Value(bpm)
70.2974828375286
70.184879017829
70.0745858993912
69.9685280459663
69.8686076811081
69.776707609339
69.6946951359591
69.624426967007
69.5677550809279
69.5265335756705
69.5026265092639
69.4979167685284
69.5143160196804
69.5537758165114
69.6182999670056
69.7099582883208
69.8309019137775
69.9833803549015
70.1697605679538
70.3924120291666
70.6487172715905
70.9294427782697
71.2246759409476
71.5241897516845
71.8174123271607
72.0934265186328
72.3410022443897
72.5486640147081
72.7047955011401
72.7977818857187
72.8161890940898
72.7489769001039
72.5857647170046
72.323108101235
71.9723011292203
71.5468768419483
71.0603320968354
70.5258914720859
69.9563234583408
69.363807941123
68.7598516464902
68.1552467220045
67.560066867521
66.98369528622
66.4348790539979
65.921805171185
65.4521944522103
65.0332217415064
64.6668415230582
64.349735439286
64.0786294242048
63.8505277371058
63.6626745751572
63.5125205472715
63.3976932234871
63.3159711150712
63.2652605548421
63.2435750405787
63.2490166812526
63.2797594496504
63.3340339984403
63.4101138419999
63.506316320543
63.6217370628321
63.7566424457907
63.9114321283617
64.0865469796917
64.2824714158242
64.4997359962894
64.7389203063592
65.0006561542215
65.2856311162941
65.5945924684487
65.9283515461271
66.2877885823371
66.6738580794363
67.0875947343438
67.5285078947819
67.9901577406234
68.4643867098992
68.9425738360377
69.4156055095468
69.8738688226033
70.3072709101041
70.7052877102806
71.0570452345214
71.3514356895604
71.5772695817185
71.7234632303714
71.7792589533225
71.7353278783731
71.5934523590463
71.3629780246565
71.0538520166163
70.676278947311
70.2405234553782
69.7567406105114
69.2348364048581
68.6843587745138
68.1144181617146
67.5336355790756
66.9501154563902
66.3714401970324
65.8046832897686
65.2564379531614
64.7324840600876
64.2364570950215
63.7712577624055
63.3396491293303
62.9442923088968
62.587783263651
62.2726909533479
62.0015970785298
61.7771378159975
61.6020480970004
61.4792091509277
61.411700235337
61.402855708642
61.4563288892865
61.5761645038774
61.7667747673774
62.0282418719246
62.354243634986
62.7380623356292
63.1729315134277
63.6519029040216
64.1677256783635
64.7127380650985
65.2787725810154
65.8570771805488
66.4382556494729
67.0122314693569
67.568240098288
68.0948550523031
68.5801278321685
69.0158383129227
69.4000408037099
69.7315367372744
70.0093746487712
70.2328591732028
70.4015570007787
70.5152996839309
70.5741832601214
70.5785647256988
70.5290554653396
70.4265118066421
70.2720229280263
70.0668963984036
69.8127904812794
69.5135449392134
69.1745071665489
68.8010279651195
68.398376818511
67.971698103971
67.5259758067872
67.0660064391344
66.5963796820477
66.1214661409511
65.6454115270264
65.1721365420784
64.7053417461985
64.2485167181405
63.8049528710738
63.3776928304313
62.9683090015555
62.5771056687646
62.2043353549137
61.8502482680837
61.5150953772244
61.1991314505019
60.9026180737655
60.6258266678633
60.3690415249465
60.1325628854417
59.9167100790869
59.7218247553701
59.5482742309232
59.3964549839815
59.2667963289756
59.1597487294866
59.0747149684143
59.0093718589528
58.9612932043609
58.9281012067657
58.9074535685533
58.8970326210533
58.8945363775856
58.8976714414185
58.9041477258709
58.9116749641687
58.9179610010313
58.9207118664604
58.9176336348749
58.9064360695732
58.8848380435159
58.8505747126437
58.8027207915745
58.7456222048495
58.6849126730973
58.6261834269441
58.5749817464456
58.5368200520843
58.5171953718719
58.5216191226256
58.5556573385065
58.6249817584592
58.7354325532647
58.8930939464279
59.1043845844014
59.3761652767584
59.7158677094813
60.1316489291028
60.6295231870154
61.2050635444254
61.8512855159725
62.5608890819452
63.3260522917597
64.1382331374492
64.9879814665938
65.8647651382397
66.7568172121226
67.6510136431452
68.5327935784516
69.3861366611887
70.1936133492421
70.9368469708841
71.6067945970131
72.2067977051395
72.7418050981574
73.2176059938825
73.640729110394
74.0183422415557
74.3581571617027
74.6683441525263
74.9574598303541
75.2343913430784
75.5083194696757
75.7887027482628
76.0844892360094
76.3986196665698
76.7311476042354
77.0821261171796
77.4516246305597
77.8397284879551
78.2465385399452
78.6721707561675
79.116755857295
79.5804389634441
80.0633792555662
80.5657496463912
81.0872835618659
81.6250232385418
82.174867435636
82.7324846910869
83.2932998196308
83.8524835925779
84.4049476242807
84.9453452432509
85.4680791559296
85.967316707299
86.437013496916
86.8711967968169
87.265753137678
87.6175000536926
87.9233075574453
88.1801210563286
88.3849911775338
88.535104655392
88.6278158178364
88.6606781479898
88.6314753458663
88.5382512770995
88.3787476045131
88.148196407695
87.841416878707
87.4537691768321
86.9812429281485
86.4205406884706
85.7691533625953
85.0254244381342
84.188600101501
83.2588626861837
82.2373454504654
81.1261353194031
79.9338329909382
78.6841807536656
77.4014631356719
76.1075266875895
74.8217501378594
73.5611297190299
72.3404484343318
71.1725023071166
70.0683618662416
69.0376524919332
68.0888422986218
67.2295307256576
66.4667348860139
65.8071740542917
65.2571575806063
64.8127881966974
64.459909231496
64.1851251718196
63.9760493537886
63.8210321351919
63.7089454834306
63.6290149032813
63.5706926951032
63.5235687553171
63.4773166912166
63.4216740289381
63.3464558049256
63.2416008774327
63.0972498951921
62.9038797953374
62.6568948143885
62.3615249189181
62.0242602541603
61.6515381547209
61.2496699983279
60.8247819373892
60.3827692387949
59.9292635373497
59.4696120065118
59.0088672622892
58.5517867276996
58.102840179146
57.6662242549739
57.2458828139678
56.8455321733256
56.4686904200108
56.1187090967149
55.7980426012857
55.5069874044866
55.2455335001844
55.0137391266981
54.811734025409
54.6397231694644
54.4979910273204
54.386906434843
54.306928160469
54.2586112608414
54.2426143398026
54.2597078421707
54.3107835359786
54.3968653636246
54.5191218746767
54.6788804921385
54.8776439114238
55.1167813133379
55.3938673580974
55.7038333912013
56.0414306541531
56.4012132469584
56.7774831052714
57.1642445018552
57.555169348966
57.9435749694708
58.322416313314
58.6842947925903
59.0214859559173
59.3259880796177
59.5895933781468
59.8039828944327
59.9608452019253
60.0526283851946
60.0794711732461
60.0468273908305
59.960590099813
59.8268943662829
59.6520162222791
59.4422826767628
59.2039943363075
58.9433614850559
58.6664538611877
58.3791638730674
58.087182629418
57.7959879114475
57.5108430810774
57.2368058845021
56.9787461589124
56.7413715675095
56.5288766042904
56.3416853585343
56.1782083773466
56.0369238753106
55.9163891085856
55.8152297955036
55.7321306132434
55.6658266406281
55.6150956381445
55.5787510742191
55.555635822147
55.5446164652961
55.5445781596629
55.5544200128045
55.5730509468502
55.5993860208825
55.632343194599
55.6708678908256
55.714637035015
55.7641258810675
55.8198563305821
55.8823582567156
55.9521707278031
56.0298433498435
56.1159377353589
56.2110291073587
56.3157080485242
56.4305824072803
56.5562793741782
56.6934477439917
56.8427603811777
57.0049169088977
57.1806466446986
57.3707118092617
57.5756799263764
57.7941247937942
58.02353862464
58.2613331592926
58.5048384675325
58.7512954552927
58.9978507703511
59.241554330615
59.479359717696
59.7081276866759
59.924633038377
60.1255750810916
60.307591872691
60.4672783797367
60.6012086165917
60.7059617342656
60.7787971178736
60.8201642610346
60.8315551963431
60.8145563545242
60.770833095934
60.702114746958
60.610180158473
60.4968439653234
60.3639436956163
60.2133278483768
60.0468450286566
59.8663342013505
59.6736160993479
59.4704857986945
59.2587064534399
59.0400041659554
58.8162048291556
58.5907740174345
58.3681861133069
58.1528008095245
57.9488514731868
57.760460007662
57.5916573905911
57.4464095795908
57.3286486186867
57.2423089475564
57.1913691132548
57.1798993139133
57.2121154729576
57.292440861691
57.4255766737635
57.6165834298849
57.870975149771
58.1921647417977
58.5751502785893
59.0131204498864
59.4990960477357
60.0257875759726
60.5854656951085
61.1698456252411
61.7699880431044
62.3762203664755
62.9780835754854
63.5643107892223
64.122844567723
64.6409001755328
65.1050816280253
65.5016936780399
65.8231403062608
66.0708989088497
66.2477046830748
66.3568537229317
66.4021290463094
66.387722824316
66.3181574475594
66.1982078300074
66.0328270350215
65.8270769404414
65.5860652691025
65.3148899234341
65.0185911986101
64.7021121235437
64.3702116689482
64.0262417585402
63.6721998973758
63.3099661837097
62.9413548720067
62.5681113144012
62.1919099965454
61.8143535745941
61.4369728185409
61.0612273679134
60.6885072085694
60.3201347836291
59.957367657093
59.6014016551276
59.2533744170778
58.9143692957643
58.5854201674487
58.267954922638
57.964544171963
57.677862310149
57.4104913293082
57.164939239521
56.9436603222996
56.7490771747361
56.5836045820092
56.4496753412643
56.3497682524592
56.2864385942107
56.2623515186056
56.2803189331745
56.3433405971358
56.4546503509341
56.6177686340284
56.8365428463948
57.1118425078889
57.4376045597067
57.8067928463322
58.2121699778241
58.646185074376
59.1008772762016
59.5677967831051
60.0379462537951
60.5017463111188
60.949029602532
61.3690682634143
61.7506396102047
62.0821343259186
62.3517101751011
62.5474923142245
62.6597198137582
62.6902454923465
62.6456008339835
62.5328580548099
62.3594652353138
62.1330975111061
61.8615230095167
61.5524864352422
61.2136119776853
60.8523261327233
60.4758001472945
60.0909111253066
59.7042203759104
59.3219673232303
58.9500772042692
58.5941808291654
58.2595692233064
57.9489573696578
57.66223176399
57.3991639840237
57.1595730361947
56.9433253785453
56.7503351805081
56.580564827079
56.4340256773414
56.3107790899746
56.2109377313108
56.1346671847344
56.0821878838324
56.0537773957543
56.0497730858337
56.0705751997454
56.1166504054579
56.1885258956967
56.2862474048171
56.4090884396177
56.5563052863358
56.727198701285
56.9211070106823
57.1373995836038
57.3754706081943
57.6347331096769
57.91461315608
58.2145442041726
58.5339615440438
58.8722968062673
59.2289725007924
59.6033965617452
59.9949568773315
60.4029752263911
60.8251984800979
61.2572475461906
61.6943544304377
62.1314705249515
62.563257497163
62.9840869334985
63.3880500267436
63.7689785927614
64.1204786114399
64.4359772909958
64.7087843392395
64.9321676806076
65.0994432825423
65.2040780594209
65.2403767471339
65.2092013495438
65.115587484249
64.964945335931
64.7629095369092
64.515249075237
64.2277854529317
63.9063204665152
63.5565744373066
63.1841352327528
62.7944180092818
62.392635279941
61.9837766675373
61.5725975417392
61.1636156485144
60.7611148120963
60.3690685915606
59.9907488101796
59.6290880543676
59.2868846917354
58.9668234455609
58.6714976187255
58.4034330804086
58.1651139662507
57.9590101379052
57.78760654762
57.6534347599937
57.5591069995796
57.5073532239521
57.5010618729654
57.5433251237522
57.6374896973608
57.7871894165628
57.9933751948659
58.2513407499741
58.5557837825336
58.901382669585
59.2827078386718
59.6941416412394
60.1298066664457
60.5835030634198
61.0486560253092
61.5182751285506
61.9849276996748
62.4407287713043
62.8773504488423
63.2860535897306
63.6577503019573
63.9854174309971
64.2679023737265
64.5051724318545
64.6974150814186
64.8450321931219
64.9486319138757
65.0090184212862
65.0271797997868
65.0042743154306
64.9416153855726
64.8406555497328
64.7029697491727
64.5302382157827
64.3242292566893
64.0867850656533
63.8205125159921
63.5296573492201
63.218619807266
62.8916914568581
62.5530332640439
62.206659762699
61.8564289161318
61.5060372078187
61.1590194665512
60.8187529282071
60.4884650562091
60.1712446809677
59.8700560711919
59.5877556134975
59.3271108486363
59.0908216911048
58.880908274375
58.696339085942
58.5352511143277
58.3958732095634
58.2765131027582
58.1755456844272
58.0914025615622
58.0225627534313
57.9675444111538
57.9248974673768
57.8931971405128
57.8710382334804
57.8570301801085
57.8497928036156
57.8479527610896
57.8501406558361
57.8550086185451
57.86231343873
57.873478023608
57.8900667320721
57.9136500534018
57.9458079753857
57.9881342277822
58.0422414269187
58.1097671581855
58.1923810465139
58.2917928808931
58.4097618779392
58.5481071919689
58.7087198055609
58.8935759660373
59.1047523706901
59.3444393770089
59.6133564336543
59.9082161924182
60.22500954943
60.5595901661835
60.9076434475725
61.2646606888569
61.6259189917972
61.9864677074948
62.3411222899481
62.6844665306497
63.0108641792385
63.3144809254104
63.5893176097159
63.8292553333136
64.0281185738988
64.1820508239347
64.2931708339356
64.364724514007
64.4001449619202
64.4030114967424
64.3770112603394
64.3259040842557
64.2534911578085
64.1635878790446
64.0600011297286
63.9465110933075
63.8268576337347
63.7047311746307
63.5837679628429
63.4675495451287
63.3588054065143
63.2573230822229
63.1622372321189
63.0726965402002
62.9878620942979
62.9069060080811
62.8290102755572
62.7533658497141
62.6791719381282
62.6056355092792
62.5319710039895
62.4574002468476
62.3811525527008
62.3024650233148
62.2205830291175
62.134923743727
62.047403512997
61.9618622538915
61.8821497412873
61.8120782836078
61.755432400436
61.7159831038109
61.6975067608394
61.7038086007459
61.7387510391471
61.806287128275
61.9104996079359
62.055646234172
62.2462123097096
62.4869716448032
62.7830023910421
63.134771516902
63.5338928857404
63.9707774990482
64.4354027507209
64.917195899568
65.4049471013948
65.8867567846157
66.3500232992491
66.7814774247042
67.167270312671
67.4931205745117
67.7445243182974
67.9070288780675
67.9665802549709
67.915305378728
67.7600092878613
67.5104708196377
67.1770457327441
66.7704099982538
66.3013289077891
65.7804577911252
65.2181774716841
64.6244652677078
64.0088004794027
63.3801019277548
62.7466942135779
62.116298892725
61.496046641498
60.8925066345288
60.3117099553187
59.7574698059213
59.230245858615
58.7301564539404
58.2573209072178
57.8118656532906
57.3939301802649
57.0036728121005
56.6412764017151
56.3069539985056
56.0009545570242
55.7235687571496
55.4751350106389
55.256045734647
55.066753979892
54.9077805099033
54.7797214385473
54.683256546186
54.6190167647091
54.5863678521632
54.5840210612678
54.6107832845785
54.6655525749697
54.7473063744895
54.8550907674612
54.9880105943466
55.1452202858914
55.3259152964713
55.5293240320291
55.7547001821357
56.0013153779809
56.2684521089125
56.5553968398289
56.8614332805821
57.1858357668095
57.5277525127158
57.8857652066048
58.258228185474
58.6434139157777
59.0395025707617
59.4445723229464
59.856590525042
60.2734059504207
60.6927422935464
61.1121931583567
61.5292187874138
61.9411448053219
62.3451632648584
62.7383362916547
63.1176026211167
63.4798451505893
63.8223576220878
64.1426371741438
64.4381477133384
64.7063342364593
64.9446413114817
65.1505334988216
65.3215175522801
65.4551661752348
65.5491430418311
65.601228727575
65.6093471315738
65.5715919167548
65.4862524478832
65.3518390543226
65.1689662126745
64.9445909064764
64.6869307971134
64.4040822508056
64.1039511100993
63.7942042500893
63.4822408532861
63.1751819651267
62.87987672341
62.6029236622065
62.3507056453475
62.1294372603018
61.9452238796185
61.8041320614555
61.7122715098571
61.6756642167339
61.6953931226961
61.7676525897102
61.8886563488874
62.0547991774879
62.2625996382781
62.5086481990189
62.7895598390411
63.1019305029414
63.4422969830791
63.8071000120857
64.192650530594
64.595099268096
65.0104099383648
65.4343365053077
65.8629273703522
66.2954221826358
66.7323840800928
67.1744077644349
67.6221174628843
68.0761683060637
68.5372478634741
69.0060778531007
69.4834160433677
69.9700583675724
70.4668412731182
70.9746443303692
71.4943931288184
72.0269335841748
72.5696543451169
73.1159197968505
73.6584882738345
74.1896894367147
74.7014323012323
75.185231057483
75.6322508330759
76.0333752641625
76.3792972247418
76.6606333040151
76.8680616071203
76.9924812030075
77.02737173584
76.9755032134891
76.8423997228538
76.6340485621097
76.3567831817251
76.0171707328238
75.6219070349433
75.1777211203211
74.6912908561546
74.1691705284568
73.6177307197134
73.0431103457927
72.4511803443198
71.8473530559629
71.2351721793215
70.6171190664949
69.995527384877
69.3725928831449
68.7503746390718
68.1307976380402
67.5156564784848
66.906620014146
66.3052367585902
65.712940894172
65.1310587448559
64.5608155895521
64.0033427094663
63.4596845791032
62.9308333607144
62.4182415893633
61.9237461307105
61.4490826226164
60.9958815039881
60.5656833702686
60.1599545528274
59.7801028831983
59.4274936397473
59.1034657093159
58.809348030328
58.5464764175537
58.3162109031559
58.1199537648969
57.9591684517786
57.8353996614541
57.7502948743578
57.7051275573742
57.6986694818095
57.7289744812418
57.794233477041
57.8927521499515
58.0229301655125
58.1832421429535
58.3722200643756
58.5884368730105
58.830491053792
59.0969920281834
59.3865462296052
59.697743757096
60.0291455339618
60.3792709259138
60.7465853809044
61.128816801171
61.5215205605169
61.9196260278126
62.3177932368977
62.7104038426302
63.091561780322
63.4551049262586
63.7946290377164
64.1035251324516
64.3750312323102
64.602299029209
64.7784755266292
64.8967990682371
64.9507084027409
64.9340325515225
64.8459380517381
64.6940447957445
64.4869782422354
64.2334705661033
63.9422288597784
63.6218268999087
63.280621083344
62.9266900744348
62.5677969253634
62.2113719261417
61.8645141862436
61.5340099105887
61.2263654705589
60.9478536499273
60.704571836127
60.5023250202218
60.3419342392073
60.2189978518353
60.1290596287381
60.0678306169688
60.0311455984941
60.0149263959388
60.0151513862282
60.0278307835446
60.0489874129381
60.0746428206001
60.1008086596321
60.123483352907
60.1386540679431
60.1423040425385
60.1304252738901
60.0992270805227
60.0493425005267
59.9858021122527
59.9138078216779
59.8385231152501
59.7650630890506
59.6984933306911
59.6438374416059
59.6060930109755
59.5902559363853
59.6013531289007
59.6444838420601
59.7248701290784
59.8479172684324
60.0192854189755
60.2449742935747
60.5309868778158
60.877092160885
61.2779866901279
61.7281859264891
62.2220540804521
62.7537031872823
63.3168997608688
63.904979704766
64.510772957758
65.1265401355328
65.7439241822274
66.3539207290987
66.9468714157318
67.51248478553
68.0399948215199
68.5215151441027
68.9529798105906
69.3306435943843
69.650909239115
69.9103768753759
70.1058940625874
70.2346053314757
70.2940000080335
70.2819570452037
70.1967855812326
70.0372599888699
69.8026482797852
69.4927328828344
69.1083183642131
68.6582123559725
68.1570433216638
67.6191185472428
67.0580987316846
66.4868949767088
65.9176215273405
65.3615969848943
64.8293865596811
64.3308784726349
63.8753886540995
63.4717892622444
63.1286581394404
62.8544480816218
62.6576767062586
62.5470916249657
62.5261329999979
62.5876362243338
62.7237653975061
62.9271186067844
63.1905538490445
63.5070359904047
63.8695011006937
64.2707359584774
64.7032717740321
65.1592922860582
65.6305573869856
66.1083443291779
66.5834093437114
67.0459731251473
67.4873498529766
67.9063506734847
68.3042139411499
68.6823104514792
69.0421351627808
69.3852993789544
69.7135231142654
70.0286278263401
70.332529694659
70.627233611906
70.9148280454115
71.1974809163553
71.4774366360936
71.7568077380208
72.0336198980495
72.3019809555128
72.5556842612014
72.7883676805397
72.9935430781651
73.1646376792402
73.2950475594736
73.3782031640645
73.4076463127179
73.3771176243053
73.2806527106468
73.1126848741766
72.8682788474104
72.5488256091279
72.1640228641541
71.7241735838927
71.2394335335244
70.7196826289562
70.1744263000459
69.6127255695808
69.0431536459757
68.4737762646541
67.9121527541902
67.3653547935729
66.8400000094445
66.3422978841215
65.8781058619419
65.4523199258623
65.064421129778
64.7115512942262
64.3910376208118
64.1003817568315
63.8372371046256
63.5993889106013
63.3847367568606
63.1912791430745
63.0170998997444
62.8603562184104
62.7192681214086
62.5921092247653
62.4771986737937
62.3728941527611
62.277618529948
62.1912961970174
62.1159003107564
62.0535445791192
62.0063399792882
61.9764044865962
61.9658742721646
61.9769164388423
62.0117434003582
62.0726290496446
62.161926910164
62.2820905202536
62.4356963669635
62.6254697651737
62.8543141732809
63.1253371779269
63.4389071357013
63.7879183603952
64.1638512395072
64.5578320767215
64.9605630450832
65.3622761139215
65.7527142240696
66.1211434690919
66.4564001658921
66.7469763735323
66.9811465528526
67.1471365800161
67.2333342059959
67.2285373310731
67.124524117658
66.9273008939042
66.6483263918558
66.2993741118002
65.8922728805009
65.4386941132611
64.9499819136225
64.437026100613
63.9101761517544
63.3791926093682
62.8532316703079
62.3408583767107
61.8500839416535
61.3884231729729
60.9629686076135
60.5804787084409
60.2455059071487
59.9554378855996
59.7063175742623
59.4944642997027
59.3164277929005
59.1689485174406
59.0489233555461
58.9533758900424
58.8794306818788
58.8242910741584
58.7852201610139
58.7595246477839
58.7445414012359
58.7376265475549
58.7361470232412
58.7374745211452
58.7392751968787
58.7423802857083
58.7495533280782
58.7635893263144
58.7872923942544
58.8234836460907
58.8750118233148
58.9447667486583
59.035695745406
59.1508232230962
59.2932737082659
59.4662986941977
59.6733078002864
59.9179048747562
60.2039298509069
60.5355073861253
60.9162615495777
61.3446811802175
61.8171186092782
62.3298124574029
62.8788283105886
63.459996718158
64.0688539660375
64.7005861652085
65.3499775754119
66.011364476239
66.6785962945806
67.3450060848743
68.0033928145218
68.6460182004428
69.2650247546008
69.8544921345807
70.4091265171247
70.923479661231
71.3919970302467
71.8090760236624
72.1691328663793
72.4666774800821
72.696395243097
72.8532341062085
72.9324950964613
72.9299238379086
72.8418003796169
72.6657956191487
72.4085154986598
72.08197004328
71.6982928096352
71.2694676894765
70.8071699766323
70.3226488627866
69.8266494510249
69.3293711178114
68.8404583516631
68.3690199721714
67.923672794419
67.5126062611269
67.1436652401239
66.8243878563397
66.5588007455761
66.3459455370852
66.1846970263715
66.0741790287485
66.0137536936216
66.0030136823465
66.0417770355025
66.1300846148275
66.268200060408
66.4566122569207
66.6960403556134
66.9874414530789
67.3320210855918
67.7312389763557
68.1836679149988
68.6798792060951
69.2087272931594
69.7584193159031
70.3164069145452
70.8693175043126
71.4029323600684
71.9022197859946
72.3514317768329
72.7342716482903
73.0341378782848
73.2344456806257
73.3190236785228
73.2778905722338
73.1199063638526
72.8585692235561
72.5079705484229
72.0824408058917
71.596245230064
71.0633356736303
70.4971605434253
69.9105312665327
69.3155412400878
68.7235316791551
68.145098078379
67.590130987779
67.0678853055868
66.5863204457138
66.1458180243852
65.7428408811643
65.374058089928
65.0363564036931
64.7268106119107
64.4426578945688
64.1812756261657
63.9401621822055
63.7169203820139
63.5092432679726
63.3149019755239
63.1317354926637
62.9576421437992
62.7905726621052
62.6285906497311
62.4722590283342
62.3252570744838
62.1914030219276
62.0744615363779
61.978162478844
61.9062240471823
61.8623803338346
61.8504134670403
61.874190656563
61.9377066474465
62.0451323031606
62.2008703023812
62.409619255134
62.676447942871
63.0068713270029
63.4026708989495
63.8550579368807
64.3532502098644
64.8859228665829
65.4410456826546
66.0057569275285
66.5662807483672
67.1078969175874
67.6149730549274
68.0710697139622
68.4591276690967
68.7617440128896
68.9615390268335
69.0416834357741
68.995322855787
68.8343228370424
68.5735316032875
68.2283324352355
67.8142501324541
67.3466231458838
66.8403470194438
66.3096894178308
65.7681730133871
65.2285198963671
64.7026498396955
64.2017244814904
63.7362300463091
63.3160923832744
62.9508196721311
62.6467668881925
62.3987942612777
62.1993370924142
62.0412474411407
61.9176924837713
61.8220717432419
61.7479508396714
61.6890101261364
61.6390071138804
61.591751986152
61.5410957694748
61.4809308869467
61.4052038668253
61.3079399255176
61.1832789915482
61.0255714349907
60.8337876170523
60.6148394785426
60.3763386382656
60.1257194886138
59.8702028075949
59.6167777615389
59.3722009753096
59.1430112724013
58.9355587742487
58.7560472720359
58.6105891251521
58.5052723852043
58.4462403894891
58.4397847208694
58.4924532138086
58.6111756379292
58.8013378155789
59.0578531530895
59.3721953290473
59.7358007935583
60.139902677432
60.5753849384024
61.0326595368099
61.5015689193685
61.971317634477
62.4304381755957
62.8667970487813
63.267647440597
63.6197345469362
63.9094584286333
64.1230970314013
64.249772276729
64.2920804195721
64.257221899435
64.1529578958889
63.9874345285503
63.769021123185
63.5061662963811
63.2072748771227
62.8806072768852
62.5342017136068
62.1758187347599
61.812906785743
61.4525871233293
61.1016561554012
60.7666032645601
60.4536420220001
60.1673591410182
59.9076211419304
59.6734062565226
59.4637751375726
59.2778640972549
59.1148790381
58.9740899959643
58.8548262249613
58.7564717632802
58.6784614265034
58.6202771816512
58.5814448608665
58.5615311785729
58.5601410201842
58.5769149741301
58.6115270821602
58.6635523750917
58.7311840111652
58.8117621516967
58.902604354247
59.0010070085741
59.1042369602647
59.2095255886134
59.314065407737
59.4150092786567
59.5094723289603
59.5945366749779
59.6672590284613
59.7246812448966
59.763843833361
59.7818023981405
59.7756469205206
59.7428317364826
59.685062659793
59.6070979624825
59.5137613112877
59.4098467661851
59.3000982389414
59.1891967154886
59.0817550405868
58.9823200046607
58.8953814639825
58.8253882633279
58.7767708118923
58.7539702867159
58.7614746029243
58.8038614989651
58.8858493430608
59.0122888447675
59.1845008582774
59.3982713144334
59.6489555941476
59.9318820856824
60.2422934098667
60.5752943223351
60.9258063729873
61.2885297453799
61.6579130061583
62.0281317629631
62.3930774491199
62.7463576104781
63.0813091453731
63.3910259212248
63.6684230961063
63.9088437799813
64.1126488150646
64.2809326916881
64.4149460470808
64.5160808561113
64.5858549980014
64.6258964950169
64.6379277036422
64.6237497174688
64.5852272152851
64.5242739589576
64.4428391149522
64.3428945419393
64.2264231559327
64.0954043893113
63.951442625148
63.7954824215884
63.6283997126196
63.4510670043143
63.2643506850112
63.0691085830667
62.8661877732854
62.6564226305801
62.44063312716
62.2196233675887
61.9941803543982
61.7650729755798
61.5330512041794
61.2988454994002
61.0631663980295
60.8267653409691
60.5915800946341
60.3605945245987
60.1367431859813
59.9228754746677
59.7217646684019
59.5361194043953
59.3685974524871
59.2218216934515
59.0983982697931
59.0009369413174
58.9320737505518
58.8944961850232
58.8909711165449
58.9243759050262
58.9977331800098
59.1142240489173
59.2748985988081
59.4767823534397
59.7165464729783
59.9908905208566
60.2964983035832
60.6299971325186
60.9879202631452
61.366672458306
61.7624988014336
62.1714570564116
62.5893940327321
63.0119265662094
63.4344278626903
63.8520200687654
64.2595916376185
64.6530383490854
65.0301607391131
65.3888949727
65.7271369442014
66.0427530229564
66.3335922366552
66.597499863431
66.8323323708415
67.0359736040332
67.2063520872145
67.3414592630906
67.4393684553264
67.4982543008108
67.5164130223046
67.4933247784968
67.4317730977308
67.3352517473889
67.2073321640812
67.0516291524373
66.8717700868417
66.6713679061613
66.4539980646998
66.2231794915269
65.9823595170793
65.734902651404
65.484083042534
65.2330804054121
64.9849791901414
64.7427577980937
64.5081424896795
64.2807495971902
64.0599963819372
63.8453175575723
63.6361641276222
63.4320023410995
63.2323127581463
63.0365894184597
62.8443391059338
62.6550807035552
62.4683446331089
62.2836723746957
62.1006160614504
61.9187381451689
61.737611128826
61.557129032373
61.3801860262712
61.2112821587964
61.0548402929415
60.9152029133627
60.7966537535495
60.7034452801142
60.639832002755
60.6101097595101
60.618661343883
60.670009099055
60.7688754143482
60.920252434881
61.1294827578787
61.402353467767
61.7451958833488
62.1606692333351
62.6408188557451
63.1757509500546
63.7550839745877
64.3677571934414
65.0018679988802
65.644543835549
66.2818570586601
66.8987931534579
67.4792841609246
68.0063195361798
68.4621455937441
68.8285617530294
69.0873805712873
69.2286192177741
69.2583980743999
69.1857155971882
69.0204571903334
68.7731222920477
68.454568779277
68.0757834340343
67.6476843851796
67.1809587699424
66.6859365395484
66.1724994737169
65.6500231096437
65.127348417306
64.6127796122598
64.1140638824984
63.6356746732096
63.1773013908756
62.738241051394
62.3178336017149
61.9154591406829
61.5305353708395
61.1625152600661
60.8108848941796
60.4751615035702
60.1548916487213
59.8496495510046
59.5590355565234
59.2826747220093
59.0202155128736
58.7713286044941
58.5357057787009
58.3133716539575
58.1060088600879
57.915808008517
57.7449241737942
57.5954911956239
57.4696377949536
57.3695052188952
57.2972665321471
57.2551477326786
57.2454509372989
57.2705799606405
57.3330687020475
57.4356128628057
57.5811056462032
57.7726782517487
58.0137461712804
58.3079512104291
58.6551069670805
59.0497877338778
59.4860953924312
59.957900576145
60.4587491786804
60.9817789631449
61.5196478025446
62.0644758893452
62.6078049968302
63.1405785150259
63.6531464562894
64.1352998481882
64.5763388078274
64.9651780209432
65.2911520651919
65.5515930160069
65.749545152297
65.88862626404
65.9728629205132
66.0066184379795
65.9945219119215
65.9414002848909
65.8522150915395
65.7320051710305
65.585836287294
65.4187582688033
65.2357699862731
65.0417922386432
64.8416484202476
64.6395882203981
64.4367888590969
64.2332302427522
64.0288903564072
63.8237482282796
63.6177839260112
63.4109785527867
63.2033142432985
62.9947741595385
62.7853424863958
62.5750044270413
62.3637461980834
62.1515550244744
61.9384191341541
61.7243277524138
61.509282458168
61.2946507150256
61.0843956605556
60.8826733106476
60.6935334310745
60.5209346286974
60.3687644288285
60.2408641328154
60.1410583746464
60.0731894436618
60.0411566138082
60.0489609220857
60.1007560764256
60.2009064560653
60.3540535097202
60.5651922782239
60.8395497798632
61.1761905277374
61.5664863156472
62.0011491131911
62.4705098886319
62.9643788440645
63.471932956062
63.9816351395038
64.4811908844406
64.9575493384841
65.3969563468622
65.7850667048963
66.1071215960301
66.3481946845367
66.4935064935065
66.5327561767733
66.472343074284
66.3234828003946
66.0979623405288
65.8078557724631
65.4652773105079
65.0821773421064
64.6701838019816
64.2404885194753
63.8037761734427
63.3701921964655
62.949345322638
62.550340371627
62.1818371957516
61.8521323832718
61.5690847082214
61.3349039968311
61.1454749770316
60.9966013368823
60.8843278449453
60.8048916410132
60.7546801334175
60.7301945861524
60.7280186978802
60.7447916533116
60.7771852738577
60.821885014859
60.8755746552893
60.934924605382
60.9965838197708
61.0571753492694
61.1137282650273
61.1674436746432
61.2218877622028
61.2806785432145
61.3474630539836
61.4259247613857
61.5197954329833
61.6328716329092
61.7690360823865
61.9322842238411
62.1267564579025
62.3567766885332
62.6268980206404
62.9419567174644
63.3071358565474
63.7275495559994
64.2011484976239
64.7198671514623
65.2750655506959
65.8575557820994
66.4574929322347
67.0642895754453
67.6665590631644
68.2520940144531
68.8078871811969
69.3202020922779
69.7747003669643
70.15663112516
70.4510853446287
70.6464893597592
70.7458219060154
70.7567580446422
70.6876883742409
70.5475194751838
70.3454866852525
70.0909849691038
69.7934220088403
69.4620959867244
69.10609906959
68.734246406163
68.3550295440546
67.9765925630242
67.6067288839606
67.2523508319603
66.9153855897683
66.5952958125229
66.2915568139904
66.0036749340409
65.7311856419345
65.4736517885939
65.2306619948971
65.0018291643183
64.786789109399
64.5851992825652
64.3967376027204
64.2211013698692
64.0580062607586
63.9071853991864
63.7685320651529
63.6433365072072
63.5336558538932
63.4415464139645
63.3690660932452
63.3182867888427
63.2913081926154
63.2902731123203
63.317384460964
63.3749241133215
63.4652738848943
63.5909389547475
63.7545741322653
63.9590134622448
64.2073037772216
64.5017977558955
64.8376022544337
65.2061743705524
65.5986405230432
66.005731602559
66.4177206366731
66.8243864737508
67.2150071082073
67.5783866279305
67.9029197136039
68.1766970617199
68.3876539493206
68.5237623503516
68.5732645480999
68.52646073366
68.3863281435169
68.1621432360014
67.8636551571185
67.5008376163021
67.0836983356129
66.622116699778
66.1257115374842
65.603739215745
65.0650208541785
64.517896480458
63.9702033308025
63.4292752047879
62.9019597542083
62.3946507606283
61.9133071889289
61.4617675206025
61.0408180411886
60.65097878156
60.2927902863979
59.9668236644957
59.6736907721585
59.4140546535695
59.1886403750926
58.9982464060135
58.8437567168646
58.726153789021
58.6465327566756
58.6061169357556
58.6062750353151
58.6485403972391
58.7346326720456
58.8653501934232
59.0366992533483
59.2433812387232
59.4800767344329
59.7413834267318
60.0217630136303
60.315497313208
60.6166541088234
60.9190635940635
61.2163065348519
61.5017154378941
61.7683900850803
62.0092287408952
62.2169761419524
62.3842890147176
62.5041809248117
62.575323142453
62.6009578988192
62.584664009344
62.5301912451716
62.4414126367864
62.3222802685385
62.1767852894034
62.008922657259
61.8226609404652
61.6219173285449
61.4105378578273
61.1922827404031
60.9708165961812
60.7497033273211
60.5324053399443
60.3221218102014
60.1203794506409
59.9277842853956
59.7449218767041
59.5723694198695
59.4106979705913
59.2604747615851
59.1222656123122
58.996637437621
58.8841608631762
58.7854129577351
58.700980094655
58.6314609575189
58.5774697074832
58.5396393329361
58.5186252053563
58.5150947103261
58.5287526031502
58.5577049061665
58.5999249949892
58.6533944232829
58.7160943952234
58.7859986294885
58.8610676018467
58.9392441721795
59.0184506166092
59.0965870962737
59.1715316010943
59.2411414094347
59.3032561026241
59.355702166703
59.3962992022435
59.4228724046236
59.4351269568307
59.4375094065591
59.4352149678749
59.4334420022793
59.4373883850356
59.4522569645089
59.4832701366577
59.5356936306029
59.6148697432241
59.7262604742952
59.8755013055628
60.0684667493174
60.3113492834894
60.6107539199754
60.9738114632056
61.4079936222068
61.9128444489839
62.4785869058782
63.0944667458426
63.7489858675693
64.429704983928
65.1230827332922
65.8143609975157
66.4875090452316
67.1252412459618
67.7091240338433
68.2197869724668
68.6372495915083
68.9413696388689
69.1133053126776
69.1509245143387
69.0668994067091
68.8755711831134
68.5920649346406
68.2318676867769
67.8104660020625
67.3430522470322
66.844302660038
66.3282256290373
65.8080752509676
65.2963232575645
64.8046815913075
64.3441680743172
63.9252084996719
63.5574593823015
63.243219480873
62.9778905202119
62.7569248289762
62.57607518938
62.4313397748468
62.3189148026835
62.2351537461391
62.1765322089089
62.1396177736712
62.1210443055341
62.1174903292929
62.1256612119461
62.1422749730433
62.1640516179323
62.1877062205756
62.2113008222739
62.2373949337271
62.2694910079038
62.3111084479385
62.365792395524
62.4371265908318
62.5287504386539
62.6443804884692
62.787836632128
62.9630734450091
63.1742172495174
63.4256096703436
63.7218586883125
64.0678984967678
64.4690497195672
64.9269936579791
65.433158929476
65.9769118516806
66.5469691013122
67.1312675987104
67.7168710483794
68.2899207673976
68.8356398368475
69.3384002770086
69.781862580302
70.1491952249828
70.4233784674799
70.5875916250833
70.6264538095027
70.5392800087088
70.3381497122773
70.0364200306382
69.6479707359898
69.1868550821804
68.6670016641736
68.1019729710768
67.5047819425976
66.8877644275178
66.2625030390401
65.639796456105
65.0296676031505
64.4414041864846
63.8836256013068
63.3641907794292
62.8857412257473
62.4457435132102
62.0416259762344
61.6710184760468
61.3317287501214
61.0217216531722
60.7391008736179
60.4820927774802
60.2490320877178
60.0383491533659
59.8485586013969
59.6782491964097
59.526074760254
59.3907460264508
59.2710233235244
59.1657173545513
59.0745632577106
58.9990375427426
58.9408209277783
58.9016086148939
58.8831209369687
58.8871151171714
58.9153982524994
58.9698416656424
59.052396807469
59.1651129368916
59.3101568573659
59.4898350518864
59.7066186336814
59.9631716212742
60.2623831585251
60.6073081810802
60.996884563948
61.4239268277669
61.880474838977
62.3581347646633
62.8479979856375
63.3405815558666
63.8257941545836
64.2929321878941
64.7307110825859
65.1273367571546
65.4706216248285
65.7481481610737
65.9474809701101
66.0564253959177
66.0653483395804
65.9784316455947
65.8057791409953
65.558026160274
65.2460768268592
64.880884211654
64.4732655264738
64.0337546478961
63.572492015154
63.0991502217937
62.6228924383719
62.1523601242599
61.6956862408833
61.2605302829566
60.854131815219
60.4833797664892
60.1532700565717
59.8616148342197
59.6044994293966
59.378242867456
59.1793587726139
59.0045219665859
58.8505400492264
58.7143293568873
58.5928948258123
58.4833133934137
58.3827206544521
58.28830055543
58.197277961452
58.1069139672443
58.0145038492886
57.9173775700989
57.8129712257256
57.7018524877495
57.5888563787884
57.4790581751843
57.3774567503911
57.2889848360763
57.2185277317616
57.1709502657079
57.1511319751351
57.1640106975482
57.2146350502728
57.3082266305033
57.4502532077439
57.6465147272661
57.9032446309524
58.2272298795897
58.6259541984733
59.1047140656507
59.6571905856274
60.2738037423738
60.9444115358266
61.6580645181642
62.4027851126692
63.1653784851351
63.9312854952605
64.6844917917548
65.4075100831481
66.081454490072
66.6862259786998
67.2008254138019
67.6038050221651
67.8766945065485
68.0221378056361
68.0530952362181
67.9838693645666
67.8296191557162
67.6059528661716
67.3285813558836
67.0130413460406
66.6744922981427
66.327586016676
65.9864049468008
65.6644634217127
65.374765664258
65.1299149667722
64.9422698748453
64.820659529857
64.7614584488994
64.7585515342807
64.8061411123283
64.8986511483439
65.0306441154489
65.196748710011
65.3915971972224
65.609771661036
65.8457588457089
66.093913625513
66.348431431508
66.6033302005058
66.8524425874649
67.0898201656909
67.3137117001698
67.5250126521796
67.7246996276791
67.9137895287431
68.0933362701943
68.2644277204879
68.4281829047163
68.5857495042841
68.7383016846521
68.8870382796612
69.0331813584116
69.1779751985699
69.3226856883848
69.4679964485716
69.6107018558672
69.7459933247502
69.8689874974885
69.9747434636508
70.0582832204495
70.1146192926899
70.138789470808
70.1258984407153
70.0711658552116
69.9699801400213
69.8179570479982
69.6110016863157
69.3453724604966
69.0192163542822
68.6369130069174
68.204424302879
67.7277151786502
67.2126807886747
66.6650841296079
66.0905043268859
65.4942953996246
64.8815550111055
64.2571024826134
63.6254651933147
62.990872400039
62.357255478164
61.7282535975089
61.107223894574
60.4972568502393
59.9018109472356
59.325599041683
58.7731988907182
58.2488454675255
57.756480659554
57.2998062682935
56.8823396738507
56.5074718644865
56.1785278579061
55.8988298636893
55.671763865033
55.5008506472651
55.3898226892982
55.3427087870024
55.3639288268014
55.4584018168124
55.6316711701623
55.8879902414364
56.2213824106276
56.6224783702476
57.0818070723533
57.5895594391795
58.1353766228857
58.7081662861969
59.2959512454742
59.8857577136703
60.4635529292863
61.0142439253844
61.5217502306925
61.9691629626712
62.3390005935646
62.6135672246397
62.7762890097812
62.8248590323257
62.7687218654078
62.6186443279384
62.3861013988016
62.0829645037944
61.7212247230689
61.3127586894482
60.86914108143
60.401504336076
59.9204436746215
59.4359637870305
58.957462512584
58.493746479482
58.0530738008712
57.6432194407331
57.2715596493817
56.9441326751262
56.6595214988426
56.4133784726803
56.2016285789157
56.0204315700537
55.866138790063
55.7352565017067
55.6244148624959
55.5303418892006
55.4498419084556
55.3797781165625
55.3170589706974
55.2586282103815
55.2014583650347
55.1425476426171
55.0789201170603
55.007629139293
54.9258043935756
54.8328702145282
54.7316516896344
54.6252215971628
54.5166104059786
54.4088024032288
54.3047351601721
54.2073022047154
54.1193587749974
54.0437305481409
53.983225271148
53.9406472662135
53.9188148403174
53.9205806992435
53.9488555503306
54.0066351783521
54.0970313981436
54.2233074305455
54.3885215378744
54.5911295246252
54.8264553764992
55.089713836585
55.3760098476996
55.6802889498477
55.9972956211554
56.3215402178972
56.6472754816551
56.9684838362608
57.2788768789236
57.5719085586174
57.8408035065059
58.0786018127012
58.2782212076541
58.4325370877072
58.5345103590572
58.5809363204993
58.5760147525481
58.5250445991878
58.4335224900508
58.3070625136551
58.1513252448776
57.9719571549772
57.774541016245
57.5645574730881
57.3473575996913
57.1281460056636
56.9119738831958
56.7037413057033
56.5082080797498
56.3300125094564
56.1736975465058
56.0437415646264
55.9428690190989
55.8690734494898
55.8196335532094
55.7919145747931
55.7833467477099
55.7914065488902
55.8136005230458
55.8474515033694
55.8904871131367
55.9402304806714
55.9941931391066
56.0498701129846
56.10473721623
56.1562506004177
56.2018485983322
56.2389559053142
56.2649903969949
56.2786855964487
56.2831482542828
56.282401962425
56.2804748446432
56.2813949846022
56.2891916186927
56.3079020997951
56.3415846626944
56.3943370814272
56.4703214043934
56.5737950868179
56.7091490161965
56.8809531513763
57.0940107801198
57.3534227583071
57.6646635476922
58.0334384589378
58.4596823127473
58.9366030073617
59.4567869805721
60.0123939222514
60.5950311049603
61.1956445832606
61.8044311472068
62.4107763208994
63.0032249187221
63.5694915743505
64.0965190596621
64.5705918972828
64.977511516456
65.3028368098758
65.5339235921402
65.6722497094349
65.7266144112793
65.7066151126145
65.6223770111635
65.4843408751009
65.3030781303674
65.0891377158395
64.8529269778561
64.604627063973
64.3541419206459
64.1110791171641
63.8847602858228
63.6842589409133
63.5184637644091
63.3953695865279
63.3133976527931
63.2647904811248
63.241846063036
63.2369610338286
63.242578104264
63.2511519058495
63.2551329258997
63.2469694612519
63.2191275903246
63.1641290534323
63.0746066427407
62.9433762429632
62.7635240485196
62.5285067424291
62.2323132055578
61.8756986538908
61.4716208614041
61.0340380905889
60.576334477214
60.111216906976
59.6506707719052
59.2059673685112
58.7877155697911
58.4059510771358
58.0702578226271
57.7899177807728
57.5740874573466
57.4320016185121
57.3732074500081
57.4078354254731
57.5469169536098
57.8018808481314
58.1721310646866
58.6474237352649
59.2175839322803
59.872375380653
60.6011204344492
61.3923439026868
62.2334398795111
63.1103666066821
64.0073804654701
64.9068264214476
65.7890083001833
66.6321674808467
67.4126019086686
68.1053053432026
68.6952745125387
69.1809546644492
69.5626839014266
69.8419302227051
70.0212258678061
70.1040781755904
70.0948616487169
69.9986964125918
69.8213184069946
69.5689464761165
69.2481510811769
68.8657287166905
68.4285853404161
67.9436523617912
67.4189281860182
66.8638819184922
66.287689901085
65.6990292895953
65.1060462444875
64.5163468787011
63.9370076307266
63.3746018397983
62.8352395798131
62.3246182046241
61.8480815252793
61.4106860467946
61.0172732169503
60.6725471719967
60.3811580036454
60.1477021352278
59.9735939190958
59.8563122342921
59.7934185062721
59.7827942064599
59.8226044430717
59.9112665942186
60.0474231272415
60.2299178957159
60.4577753227692
60.7301819726922
61.0464700872292
61.4061027221748
61.8086601669398
62.2538273668579
62.7413807769566
63.2690520103689
63.8279401655109
64.4072766909929
64.99549146907
65.5801402526457
66.1478752041093
66.6844674194367
67.1748906595462
67.6034748229705
67.9541356946744
68.2106839682618
68.3572113712088
68.3785450548536
68.2607538115559
67.996749864015
67.5997411669957
67.0881646248503
66.4808146551346
65.7963106012113
65.0526676419803
64.2669751105212
63.4551779000002
62.6319509580472
61.8106536183039
61.0033493069401
60.2208764998999
59.4729581982231
58.7683392035442
58.1149427805497
57.5200406587736
56.9904111665794
56.5289835445893
56.1313478225088
55.7927130329642
55.5088098337936
55.2758122867652
55.0902715140072
54.9490590014479
54.8493177726996
54.7884200102787
54.7639299784716
54.7735713217952
54.8151979885007
54.8867681702253
54.9863207645229
55.1119539625832
55.2618056446037
55.4340353335773
55.626886466545
55.8390165628891
56.0692158219539
56.3162612917168
56.5789079266053
56.8558801466014
57.1458638059391
57.4474985828717
57.7593708180919
58.0800068453002
58.4078668731206
58.7413394929723
59.078736902447
59.4182909479388
59.7581501033778
60.0963775134575
60.4307943852545
60.7583691501375
61.0757168163365
61.3793281963355
61.6655817548537
61.9307599152412
62.1710701086558
62.3826707151419
62.5617019295058
62.7043214422961
62.8067446592914
62.8652889957479
62.876421580591
62.8368094993648
62.7433715038219
62.5936863232336
62.3904841644604
62.1401572546983
61.8492234100633
61.5241624021459
61.1713433887668
60.7969663783631
60.4070174925601
60.0072373646178
59.6031017104697
59.1998129246226
58.8023014707803
58.4152358397641
58.0430399178598
57.6899167310578
57.3598776909944
57.0567766558544
56.7838961333599
56.5409364765407
56.3260303345644
56.137426534331
55.9734843692089
55.8326596104326
55.7134920242117
55.614594193925
55.5346414788803
55.4723629681016
55.426533310414
55.3959653214861
55.3795032850706
55.3760168799561
55.3843956764842
55.4035441572293
55.4323772258262
55.4698660701184
55.5163224884415
55.5735228283163
55.6433421384355
55.7276894933067
55.8285172560216
55.947831850935
56.0877061812578
56.250293863295
56.4378454931436
56.6527272146728
56.8974419216109
57.1746535042095
57.4872146457248
57.8381987903528
58.230937048167
58.669059667913
59.1544313625736
59.6826525719995
60.2478449048207
60.8437221125629
61.4635000253826
62.0998165481404
62.7446645584525
63.3893414228967
64.024419645456
64.6397438079631
65.2244593547374
65.7670787902046
66.2555903642584
66.6776131845876
67.0215615821392
67.28533174877
67.4726703778369
67.5880439149417
67.6364776908709
67.6234496010773
67.5547851436803
67.4365571072164
67.2749926064482
67.0763895302772
66.8470438376284
66.5931885532276
66.320944803022
66.0362848057054
65.7450045352692
65.4513639310306
65.1557887558823
64.8580662306576
64.5579938392238
64.2553793524167
63.9500408573761
63.6418067904228
63.3305159716667
63.016017639594
62.6981714839369
62.3768476751906
62.0519268892066
61.7233003253628
61.3908697168816
61.0545473319473
60.7142919194355
60.372052462713
60.0326497812407
59.7009334756612
59.3815405378883
59.0789140388695
58.7973281161938
58.5409186236344
58.3137189897462
58.1197010418279
57.9628207833197
57.8470693688544
57.7765298071808
57.755440247655
57.7882650855057
57.8797755753836
58.0351422006834
58.2588704585645
58.5476484951072
58.8947668317811
59.2935002765995
59.7369810652075
60.2180710574331
60.7292469858973
61.2624997365518
61.8092498367929
62.360282445079
62.9057061382721
63.4349406077641
63.936738899365
64.3992499342937
64.8101265822785
65.1589203005556
65.4441540013356
65.666998764397
65.8290594227022
65.9323392942973
65.9792002091707
65.9723191096051
65.9146425077751
65.8093400386959
65.6597582578635
65.4693757103526
65.241760151782
64.9805286413602
64.6893110624155
64.3717175874691
64.0315027935843
63.6729168236757
63.3001877091059
62.9173905210655
62.5284346380646
62.1370564164955
61.7468167497757
61.3611029876463
60.9831346976818
60.6159727811146
60.2625315002286
59.9255930309714
59.6078242189056
59.3117952867541
59.0400003159626
58.7948794020127
58.5785541907584
58.39065588422
58.2296190314805
58.0939695949889
57.9823232881654
57.8933744236034
57.8258858579591
57.7786798897431
57.7506299880453
57.740653248751
57.7477034906361
57.7707649173395
57.8088462829936
57.8609755095751
57.9261947130645
58.0035556035015
58.092116220977
58.191103821696
58.3001025736433
58.4187455293817
58.5466683083028
58.6835077817763
58.8289008043635
58.9824829877015
59.1438875143479
59.3127439895415
59.4886773294669
59.6713066852373
59.8602444024125
60.0550950164688
60.2554542852258
60.4609082598186
60.6710160158978
60.8845775085801
61.0993144836538
61.3128062347945
61.5225643640895
61.7260342242102
61.9205984934698
62.1035830167357
62.2722650300483
62.4238838627485
62.5556541773156
62.6647817636303
62.7484818510395
62.8039998389086
62.828634275376
62.8197626636951
62.7761757456304
62.7007334851625
62.5971140008055
62.4690315850083
62.3202062537591
62.154337651698
61.9750834410347
61.7860421853574
61.5907406448189
61.3926253276562
61.1950580939035
61.0013155791301
60.8145921972109
60.6380064894691
60.4746106109979
60.3273975184198
60.1980111975578
60.0850768956972
59.9868428228129
59.9016015571651
59.8276822327859
59.7634437965182
59.7072692653398
59.6575609297455
59.6127364613641
59.5712258930173
59.5314694472994
59.4919161955972
59.451023533404
59.407257459865
59.3590936498002
59.3050193050193
59.2443871352991
59.1799573258692
59.1153163736402
59.0540200675259
58.9995954469189
58.9555469809546
58.9253668985303
58.9125496405326
58.9206104676585
58.9531083399807
59.0136732893332
59.1060386352633
59.2340785539214
59.4018517030983
59.6136518446671
59.8740667004539
60.1865331258446
60.5481262644149
60.9541064130077
61.399625443989
61.8796483650737
62.3888806692293
62.9217018922866
63.4721062779229
64.0336519700578
64.5994206530055
65.1619900211966
65.7134218529697
66.2452687456536
66.7486026905524
67.2144268812931
67.6383421010909
68.0195321612228
68.3574446607534
68.6517176771148
68.902180744181
69.1088538018688
69.2719441679
69.3918416198228
69.4691117096057
69.5044874631363
69.4988596420222
69.4532657646879
69.3688780975762
69.2470246214549
69.0894053134976
68.8979321158737
68.674585742147
68.4213976051087
68.14043325321
67.8337767457075
67.5035161061529
67.1517299597006
66.780475427085
66.3917773177819
65.9876186373602
65.5699323997382
65.1405947141855
64.7014190995244
64.2543261085454
63.8019847474344
63.3471801534334
62.8925524503106
62.4405982225247
61.9936741212909
61.5540022578252
61.1236771138912
60.704673726422
60.2988569323158
59.9079914903614
59.5337529287333
59.1777389979715
58.8414816404226
58.5264594175505
58.2341103663305
57.9658403338393
57.7228578268475
57.5061443645486
57.3166918700078
57.1555293470184
57.0237345199958
56.9224461784092
56.8528773896718
56.816329772567
56.8142090566055
56.8480421925507
56.9194963274089
57.0304000155941
57.1827671094225
57.3788238600251
57.6210398685891
57.912163663287
58.2544373732675
58.6450360608251
59.0790021664976
59.5512094527861
60.0562835541063
60.5885238623187
61.1418327009926
61.7096531967683
62.2849178841235
62.8600106757648
63.4267453623725
63.9763642248549
64.4995605872112
64.9865291340613
65.4270545187815
65.8134765317168
66.1453814529148
66.4238167670112
66.6501757934585
66.8261712614829
66.9538056459997
67.0353391314293
67.0732560712042
67.0702307810946
67.0290934488459
66.9527968663916
66.8443845998384
66.7069611122566
66.5436642504479
66.3578468013647
66.1548275293054
65.9409401989549
65.72238872478
65.5052214114278
65.2953291726379
65.0984545499499
64.920210824487
64.7661106277873
64.6416036382487
64.5521231924399
64.5031419435405
64.5002370658532
64.5491659442795
64.6559538182673
64.8255998279539
65.0553410179021
65.3396669960378
65.6731362216797
66.0502854163377
66.4655435645576
66.9131538831326
67.3871036918622
67.8810626783168
68.3883305729785
68.9017957373816
69.4139066040518
69.9166582706247
70.4016037261867
70.8610558284188
71.2895448719504
71.6817780319424
72.0323729110229
72.3359102653348
72.5869949136185
72.7803242575232
72.9107634624519
72.9734259460478
72.9637574168261
72.8776213240016
72.7113832501472
72.4619915310708
72.1292802123056
71.7233831006807
71.2571578635171
70.7432326517754
70.193831831228
69.6206484037611
69.0347603316275
68.446586647103
67.8658784765809
67.3017399019141
66.7626738037316
66.2566483666905
65.7911806765021
65.3734347270213
65.0103147993712
64.7057052315161
64.4574958095778
64.2631301269966
64.1203653040311
64.0272388330716
63.9820400933344
63.9832858108655
64.0296988650636
64.1201899440297
64.2538416329898
64.4298945866783
64.6477354909474
64.9068865633396
65.2069963787826
65.5476746462262
65.9254632325914
66.3338792432162
66.7660620441856
67.2148158811101
67.6725586831845
68.131285786853
68.5825509152823
69.0174670846255
69.4267302683171
69.8006685835307
70.1293194137367
70.4025361970028
70.6101255549177
70.7435786038806
70.8022729017063
70.7883386392211
70.7043591848
70.5533191406926
70.3385490898833
70.0636681763192
69.7325260504279
69.3491455856418
68.9176676044254
68.4422986572691
67.9272626881961
67.376757207356
66.7949143853713
66.1858664257605
65.5558471031901
64.9129481595446
64.2648216944964
63.6185710375086
62.9807600120994
62.357436543581
61.7541677825829
61.1760842682246
60.6279310616006
60.1141242117129
59.6388113512623
59.2059356466673
58.8193027408646
58.4826507309807
58.1997236237762
57.9743491231495
57.8093973717085
57.7026028428487
57.650452263057
57.6497763529182
57.6976929637306
57.7915569346007
57.9289156227134
58.1074689891108
58.3250333337445
58.5795079449277
58.8688440697157
59.1910157310235
59.543992020586
59.9257105890333
60.3340521392774
60.7668149744056
61.221076976312
61.6920240756794
62.1742407995563
62.6619607880124
63.1490438792003
63.6289641236285
64.0948106764715
64.5393036202851
64.954826749036
65.3334791637668
65.6671471578664
65.9475972795185
66.1665906364529
66.3160174584586
66.3887288674419
66.3862237727317
66.3159479350687
66.1858275354686
66.0040218314041
65.7787893898903
65.5183733162573
65.2309070587346
64.9243413001821
64.6063915905173
64.2845057422119
63.9658496021295
63.6573096075999
63.3655105068977
63.0968467457272
62.8574528980436
62.6506026051095
62.4760924556377
62.3335871819334
62.2228484236936
62.1437334271625
62.0961944643495
62.0802789676158
62.0961303850173
62.1439897720422
62.22419814604
62.3371996409557
62.4835455122247
62.6638990551706
62.8790415153222
63.1298737618419
63.4160862180189
63.7343209774629
64.0807168220658
64.4512979955597
64.8419371381249
65.2483224142346
65.665929256337
66.0899973307131
66.5155134979774
66.9372016829833
67.3495206785351
67.7466709731297
68.1226117019181
68.4710920223713
68.7870099201177
69.0685508578026
69.3144920789343
69.5237039384783
69.6951595967714
69.8279441556571
69.9212630991107
69.9744499060964
69.9869727119909
69.9584399065594
69.888604570986
69.7773676735709
69.624779963019
69.4310730279711
69.1983161284536
68.9311982017596
68.6345995782309
68.3133363511681
67.9721253413038
67.6155561316606
67.2480699333304
66.8739449086332
66.4972874858042
66.122029145084
65.7519281351136
65.3905755856954
65.0414055131574
64.7077082629875
64.3926317608859
64.0988124716875
63.8283798961288
63.5834032932532
63.3659320117741
63.1780145829604
63.021719079977
62.8991549081722
62.8124962526415
62.7640074787171
62.7560708604379
62.7912171048418
62.8721592503254
63.0018306507501
63.1834279204567
63.4204184741708
63.7137049954148
64.0596330453422
64.4541623328731
64.893230811633
65.3726852702846
65.8882158220166
66.4352940768962
67.0091151529357
67.6045440518039
68.2160672967431
68.8377511015264
69.4632077023278
70.085571824557
70.6974558174281
71.2905706371682
71.8558559717761
72.3837832730075
72.8644343946761
73.2876042860732
73.6429337668182
73.92007232756
74.1088692256684
74.1995891691058
74.1831467154428
74.0513513215337
73.7971529754653
73.4158389676455
72.917112890547
72.3206074307793
71.6459755108984
70.9122507497849
70.1375281736774
69.3387503708732
68.5315888170367
67.7304070367333
66.9482912212159
66.197134405166
65.4877618336807
64.8300873117156
64.233292807246
63.7060261688945
63.2562231433134
62.8828510419296
62.5765515212887
62.3283370634397
62.1298134581077
61.9730376752888
61.8504025240075
61.754544194141
61.6782699476233
61.6145041026673
61.5562510998812
61.4965748904045
61.4285941665916
61.3454930788696
61.2405470565273
61.1071631824033
60.9400691592026
60.7430669580078
60.5241171049225
60.2910475298481
60.051484332204
59.8128279832692
59.5822486043486
59.3666988790602
59.172943219174
59.0076020300985
58.877210291673
58.7882901676459
58.7474379793344
58.7614266354883
58.8373255284531
58.9826410351432
59.2050412171421
59.5040896010705
59.8715958417422
60.299089674573
60.777918226776
61.2990637774552
61.8529821716309
62.4294636744678
63.0175201319891
63.6053042149368
64.1800681712727
64.7281707379285
65.2351414368257
65.6858111285858
66.0645161290323
66.3587950411861
66.5701571760759
66.704283701508
66.7675376768539
66.7668188144704
66.7094227280913
66.6029094749073
66.454985148065
66.2733992035265
66.0658591920546
65.8399636745417
65.6031533659004
65.3626799982242
65.1255920205529
64.898720884536
64.686167029379
64.4865779427903
64.29796788405
64.1184061305187
63.9460107959529
63.7789438803131
63.6154074714214
63.453641030291
63.2919197004135
63.1285535870487
62.9618879558879
62.7903043015867
62.6122222358094
62.4261021417973
62.230448538299
62.024275773798
61.8102380944258
61.5926167043679
61.375588345595
61.1632140509775
60.9594435942836
60.7681250453797
60.5930190846498
60.4378177987946
60.3061677703168
60.2016973834292
60.1280483994608
60.0889120063235
60.0880697223802
60.129439740475
60.21712954109
60.354523120425
60.5389997732075
60.7655808804021
61.0293062258938
61.3251707673275
61.6480629377057
61.9927104124746
62.3536335434651
62.7251070347472
63.1011307666973
63.4754109567405
63.8413530655446
64.1920679975906
64.5203931823445
64.8189300729194
65.0816044208821
65.3077955811396
65.4982715350503
65.6539521788818
65.7758980314978
65.8652980747716
65.9234569613504
65.9517818211341
65.9517688892013
65.9249901646714
65.8730802929748
65.7977238441122
65.7006431376065
65.583586741854
65.448327393643
65.2970329481612
65.1323977762883
64.9571232377897
64.7738680553212
64.5852411632848
64.3937967796509
64.2020316011585
64.0123840104547
63.8272351790469
63.648911951725
63.4796914056569
63.3218069900218
63.1774561692617
63.0488095143679
62.9380206832231
62.8468567758582
62.7760438749939
62.7261587079854
62.6978146262254
62.6916659407487
62.7084125965749
62.7488052362115
62.8136507096061
62.9038180958473
63.0202453112766
63.1639463896653
63.3360195330355
63.5376560469595
63.7701502922299
64.0349084676912
64.3317520897191
64.6557968051535
65.0011884333501
65.3618498363742
65.7314421622806
66.1033370253084
66.4706009715628
66.8259937910593
67.1619823452142
67.4707715567251
67.7443540283333
67.9745793921163
68.1532439220266
68.2722006409398
68.3258442966079
68.3167128259101
68.2493141688731
68.1284344927913
67.9590614770943
67.7463121626951
67.4953668193309
67.2114098928876
66.8995787204164
66.5649203605714
66.2123565931635
65.8466569000331
65.472419052643
65.0940567983269
64.715791059544
64.3412950957555
63.9733866794949
63.6146765524724
63.2676586045081
62.9347200573183
62.6181532119629
62.3201685867971
62.0429093157204
61.7884667213701
61.558897024426
61.3562391985123
61.1825340307556
61.0398445017147
60.9302776563454
60.8560082015268
60.8192279330816
60.8202104193177
60.8571535957444
60.9282673925695
61.0318637481542
61.1663374115571
61.3301482904067
61.5218050874454
61.7398500138216
61.9828444058676
62.2493551061284
62.5379414999484
62.8471431269298
63.1754678128032
63.5213802923147
63.8832742018721
64.2588289647155
64.6447781097977
65.037640442026
65.4337607175436
65.8293011474918
66.2202370867287
66.6023574749187
66.9712706201462
67.3224159112391
67.6510820085269
67.9524319881153
68.2215357970017
68.4534102118938
68.6431039911722
68.7871345750288
68.8839635454802
68.9323503050264
68.9312507707501
68.8798314420168
68.7774814597609
68.623822383354
68.4187154508966
68.1622661369126
67.8548258764682
67.4969908849643
67.0895980662382
66.6337180659638
66.1306455903799
65.5832425589917
65.0022455377359
64.400636433415
63.7906010727106
63.1834895756374
62.5898253785426
62.0193512998898
61.4811057082694
60.9835229173125
60.534553257385
60.1417997493292
59.812669869751
59.5545425358083
59.3749521805214
59.2817937135575
59.2835543950826
59.3883623804633
59.5922413142949
59.8839529662168
60.2525027758418
60.6869271507874
61.1760070217716
61.7080174070793
62.2705129880666
62.8501535729258
63.4325768079122
64.0023284840346
64.542863033063
65.0366279225355
65.4652451548858
65.8098035481861
66.0562405624846
66.2060939573321
66.2646861656295
66.238174474916
66.1333847644381
65.9576450055884
65.7186248475717
65.4241864669804
65.0822505934473
64.700680349575
64.2871843551084
63.849239509026
63.3940330179826
62.9284226003698
62.4589133580061
61.991501939084
61.530268782285
61.0781103101955
60.6377376638805
60.2117036379937
59.8024173293284
59.4121602650327
59.0431037668612
58.6973273712319
58.3768381877779
58.0835911413607
57.8195101044518
57.5865099891494
57.3865199320694
57.2215077725781
57.0935060974471
57.0046402056977
56.9565204509068
56.9468100150323
56.9717101003038
57.0275406587542
57.110701775459
57.2176363174797
57.3447973940673
57.4886203059824
57.6454988233838
57.8117657687226
57.9836779959185
58.1574059504949
58.3290280666017
58.4945303040661
58.6498111490345
58.7906923921077
58.9130531606819
59.0150832248588
59.0971579310809
59.1597810249694
59.2035008649241
59.2289066865776
59.2366247788775
59.227314612194
59.2016649570182
59.1603900295222
59.1042256975866
59.0339257779328
58.9502584518242
58.8540028234804
58.7459456419765
58.6268782040218
58.4975936617354
58.3590356606859
58.2125578463863
58.0595668115529
57.9014464830041
57.739555570898
57.5752256975375
57.4097601766739
57.2444334115269
57.0804908783321
56.9191496620037
56.761599511342
56.6090043830151
56.4625044461829
56.3232185230224
56.1922469444758
56.0706748052065
55.9595756069819
55.8599216261037
55.7722729590101
55.6970841295113
55.6348200564627
55.585958313233
55.55099150639
55.5304297923881
55.5248035500683
55.5346662292405
55.5605973983789
55.6032060175994
55.6631339666622
55.7410598618334
55.8377032001406
55.9538288749864
56.0902521133649
56.2478438922281
56.4273653873478
56.6287244498904
56.8515636465169
57.0955534030811
57.3603885203668
57.6457846274314
57.9514747283649
58.2772058121647
58.6227354976436
58.9878286872217
59.372254205173
59.7757813974571
60.198176671717
60.6391999574184
61.0986010675005
61.5761175300511
62.0716151125313
62.5852120915259
63.1170574642456
63.6673037162341
64.2361055665543
64.8236186240834
65.4299979447515
66.0553964791488
66.6999633994958
67.3638422945581
68.0471692206728
68.7500705966785
69.4726609301953
70.2148436656469
70.9724793157605
71.7372629114407
72.5000007500738
73.2507164144109
73.9786505131976
74.672291922348
75.3194460232497
75.9073449606828
76.4228038774908
76.8524253310979
77.1828516124947
77.4010682730538
77.4996511989111
77.4857746573784
77.3699462032546
77.1634092843806
76.8778702216304
76.5252506402343
76.1174721992455
75.666277684321
75.1830900638914
74.6789090909445
74.1642435197259
73.6490759974452
73.1428571428571
72.6533028294208
72.1828939450485
71.7327957470948
71.3041228621312
70.8979482859289
70.5153124566012
70.1572324103871
69.824711042023
69.5187465038796
69.240341790281
68.9905145659503
68.7703073106415
68.5807978660873
68.4231104868221
68.2978832840713
68.2034462415113
68.1375773616123
68.0981456376231
68.0830941386177
68.0904247969618
68.1181847227785
68.1644538910835
68.2273340811332
68.3049389768507
68.3953853627207
68.496785371833
68.6072397622444
68.7248322147651
68.8467633008707
68.9667381373702
69.0775073414917
69.1717337544584
69.2420193725371
69.280948178473
69.2811448795834
69.2353491050748
69.1365040272653
68.9778576700992
68.753074388629
68.4563531950693
68.0825488346283
67.6272908520494
67.0883414747458
66.4739610322267
65.7969996484171
65.0699329594318
64.3046541542772
63.51234359982
62.7033842440796
61.8873173568788
61.0728324548811
60.2677851249864
59.4792367561302
58.7135107738543
57.9762607243495
57.2725463805482
56.606914874096
55.9834846493701
55.4060307649203
54.8780368725452
54.4009633558411
53.9735506001166
53.5945453084776
53.2629295320491
52.9779124325545
52.7389247398768
52.5456158257149
52.3978533723735
52.2957256738479
52.2395466668222
52.2298638542519
52.2674693564361
52.3534144068959
52.4890277066168
52.67593816479
52.9161026928226
53.2118398884071
53.565782100238
53.9769339150437
54.4387652713984
54.9440586423561
55.4851643715783
56.0538658659728
56.6412617068873
57.2376688690705
57.8325528667806
58.414492092695
58.9711847190784
59.4895070752177
59.955632138357
60.3552153984451
60.6736526317463
60.8964098937593
61.0102959151893
61.014923341439
60.9196209957702
60.7348314399936
60.4716068221643
60.1413170230269
59.7553921628399
59.3251060872351
58.8614039102309
58.3747737269409
57.8751603448983
57.3719173430128
56.8737928965052
56.3889445043704
55.9249779034389
55.4890059316009
55.0877238087666
54.7274968620626
54.412435509689
54.1405383245157
53.9089117016076
53.7149142736304
53.5561217342132
53.4302961880171
53.335359283118
53.2693685165641
53.2304962132183
53.2170107669287
53.2272598060471
53.2596550057302
53.3126583199411
53.3847694487008
53.474514392528
53.5804349774423
53.701079261382
53.83500053129
53.981687476913
54.1424810752327
54.3189852522426
54.5128667567049
54.7258651394847
54.9598041311146
55.216604598395
55.4982992983673
55.8070496932357
56.1451651445845
56.5151248718383
56.9196031413068
57.3614982521502
57.8439660091243
58.3704585254245
58.9447693907368
59.5694658706219
60.2401407539993
60.9499803923719
61.6915118976985
62.4564833528212
63.2357577686255
64.0192264187076
64.7957486221154
65.5531263838211
66.2781233064846
66.9565376199166
67.5733387592172
68.1128753692923
68.5591596686898
68.8994074667505
69.1354315221732
69.2740096821801
69.3229278606804
69.2907635469025
69.18667316288
69.0201917691649
68.8010518681583
68.5390261026554
68.2437967779189
67.9248534815652
67.5914187205252
67.2524004772182
66.9163699104199
66.5913179251671
66.2812193205027
65.9870312875243
65.7096121349866
65.449805533311
65.2084459304196
64.9863641188769
64.7843929741617
64.603373390381
64.444160446547
64.3076298438116
64.1946846619423
64.1062624920177
64.0433430120493
64.006956083252
63.9981651687789
64.0177138246892
64.0661172741239
64.1439627631126
64.2519227199025
64.3907605197226
64.5613370417963
64.7646181169407
65.0016829803974
65.2737338637407
65.5821068824157
65.9282844024126
66.3139091016986
66.7407999804535
67.2109221446408
67.7219967911683
68.2636114378894
68.8238642495696
69.3900581292377
69.9486381834766
70.4851782690796
70.9844253965237
71.4304107422165
71.8066348415255
72.0963319415441
72.2828143159855
72.3498915806787
72.2823529411765
72.0711898592907
71.7278547424441
71.2695470466583
70.7139269053601
70.0786332382412
69.3808863934127
68.6371807019906
67.8630653884833
67.0730072343719
66.2803252237726
65.4971858859926
64.7346478568517
64.0027449471826
63.310598399349
62.6665507574383
62.0778056431129
61.5443278217076
61.0613940718341
60.6246061176054
60.2299394850558
59.8736895226704
59.5524252529362
59.2629497732818
59.0022661751903
58.7675481495599
58.5561146060135
58.365407762451
58.1929742652749
58.0364489853789
57.8935412040017
57.762022958822
57.6397193664371
57.5250596807294
57.4189501099239
57.3229589575967
57.2386422315319
57.1675497320268
57.1112319809083
57.0712479924318
57.0491739230751
57.0466126564656
57.0652044015038
57.1066384066465
57.1726659219522
57.2651145737112
57.3859043553635
57.5370654843468
57.7207584292623
57.9392259864731
58.191665790734
58.4728376325536
58.7770360867968
59.0983592291687
59.4306637918264
59.7675316019928
60.1022486184535
60.4277981560479
60.7368700521217
61.0218875524978
61.2750535458538
61.4884174233533
61.6539632600773
61.7637191939416
61.8098868237451
61.786442139098
61.6971503244715
61.549846695279
61.352590169766
61.1135173023785
60.8407256726038
60.5421789057895
60.2256336986048
59.8985883149585
59.568251362706
59.241529248636
58.9250305155093
58.6250852588888
58.3477779698216
58.0989924213365
57.8844675873233
57.7098490881996
57.5782675248892
57.4876623484594
57.4354986144179
57.4194181130128
57.437209344864
57.4867807071166
57.5661363635341
57.6733543704265
57.8065667122823
57.9639409701618
58.1436634052473
58.3439232916966
58.5628983788922
58.7987414046851
59.0495676193391
59.3134433209667
59.5885798364754
59.8738793083907
60.1683777100227
60.4710745220444
60.780929066299
61.09685709638
61.4177276788012
61.7423604043153
62.0695229744912
62.3979292139103
62.7262375631566
63.0530501120155
63.3769122357512
63.6963128998354
64.0096856956196
64.3152594598652
64.6106507214708
64.8932765066097
65.1604853081288
65.4095673804115
65.6377674274468
65.8422997381894
66.0203657758756
66.1691741715509
66.285963007321
66.3680242029732
66.412729742448
66.417559396583
66.3801295186525
66.2983865327414
66.1733199281893
66.0084883522112
65.807613870702
65.5744639303328
65.3128145363924
65.0264176124794
64.7189727590917
64.394103486676
64.0553378780592
63.7060935368604
63.3496666025672
62.9892245585122
62.6278025242498
62.2683027066054
61.9134967221266
61.5662278318233
61.2298600558826
60.9077454102162
60.6031013508013
60.3190301386919
60.0585409558183
59.8245745848492
59.6200305707075
59.4477968929365
59.3107822982392
59.2119515736381
59.1543641866566
59.1412168851425
59.1758910432295
59.2620057713351
59.4034780901713
59.6032334801927
59.857325185241
60.1595322133067
60.503597386054
60.8831260664751
61.2914950683253
61.7217733987392
62.1666557968427
62.6184107600081
63.0688453894209
63.5092899077177
63.9306050570632
64.3232157157
64.6771739050567
64.9822579265813
65.2310922044472
65.4247045004471
65.5658898959871
65.6577685542335
65.7037351931138
65.7074086433717
65.6725827728218
65.6031798819555
65.503207481266
65.376719159572
65.2277800560876
65.0604372658285
64.8786953447331
64.6864969420091
64.4877003422716
64.2851004405214
64.0795392670307
63.8716243685679
63.661949368662
63.451093705666
63.2396224841473
63.0280864330282
62.8170219638996
62.6069513230234
62.3983828306948
62.1918112018565
61.9877179421314
61.7865718137592
61.5888293662826
61.3949355272212
61.2054396444214
61.0226375410345
60.8501414702291
60.6915246355368
60.5502989648563
60.4299339920988
60.3338795720069
60.2655924473588
60.2285668077769
60.2263691194115
60.2626776685829
60.3413274557848
60.4663613075923
60.6420883545448
60.8731513688794
61.1646048887791
61.5202392997558
61.9348509668425
62.4000474072357
62.9071113562904
63.4468537209852
64.0094851913105
64.5845116319363
65.1606580823637
65.7258276117031
66.2671023447666
66.7707945220951
67.2225552611327
67.6075475168956
67.9106873895279
68.1185916588316
68.2312314362461
68.2554982727231
68.199068398403
68.070176453441
67.8774334474986
67.6296593204625
67.3357346063015
67.0044741264417
66.6445242002975
66.2642836372052
65.8718478085347
65.4749744030691
65.0810690312737
64.6971886378291
64.3292340453586
63.9788980482666
63.6466331093614
63.3328856538887
63.0381002198672
62.7627233696384
62.5072076300179
62.2720154834037
62.0576234350442
61.8645261847279
61.6932409345075
61.5443118677946
61.4183148393542
61.3158623205069
61.2376086493265
61.18425517212
61.156499951009
61.1549907937135
61.180429108919
61.2335887317031
61.3153226989518
61.426570779277
61.5683678687342
61.7418533811847
61.9482817830303
62.1890344469726
62.4656330292848
62.7797546109225
63.1332488859945
63.5281577333707
63.9667181873224
64.4480819576728
64.9642976252146
65.5060274965312
66.0633150972925
66.6255066974496
67.1812028432099
67.7182459620217
68.2237507319766
68.6841839653605
69.0855000607599
69.4133364495898
69.653270767186
69.7911376751931
69.8138149315867
69.7203262227635
69.5228450824688
69.2348807095135
68.8703093903119
68.4430575409057
67.9668385974721
67.4549472072525
66.9201103526268
66.3743922018547
65.8291476289523
65.2950183906717
64.7819657430159
64.2993336567344
63.8559375930665
63.4600500943339
63.1140682017982
62.8127661262413
62.5507129983759
62.3227873348175
62.1241181258832
61.9500358959264
61.7960324606444
61.6577284149819
61.530847625227
61.4111981826396
61.2946594126348
61.1771746296164
61.0547493875594
60.9234550036815
60.7794371296335
60.6191158185439
60.442248003566
60.251358556207
60.0490220307269
59.8377641972853
59.6200541724542
59.3982987452279
59.1748387856252
58.9519476086564
58.731831159423
58.5166298846106
58.3084221608092
58.1092291601444
57.9210210479204
57.7457244247465
57.5852309464805
57.4414070789389
57.3160836036561
57.2109523220077
57.1276635464224
57.0678935965794
57.033358721599
57.025830138582
57.0471505034285
57.0992520390541
57.1841765993464
57.3040980103061
57.4613471054815
57.6584399644933
57.8981099756031
58.1833444816805
58.5174269410857
58.9039857508084
59.3466381203586
59.8429988571102
60.3855760515678
60.9663029097055
61.5765308219405
62.2069092778456
62.8472870616508
63.4866404189228
64.1130352938025
64.7136318202672
65.2747398082278
65.7819337514483
66.2202346375023
66.5743633232684
66.8291058032681
66.9763705045333
67.0231623670677
66.9792927115391
66.8553120731335
66.6622444801204
66.4113476303857
66.113906140575
65.7810621011831
65.4236845881557
65.052277701139
64.6769251810239
64.3072686997396
63.9525164636332
63.6214787545451
63.3226268466413
63.0616271751769
62.8356646614273
62.6403789626426
62.471602245042
62.3253216152427
62.197647864642
62.0847898778254
61.983034215743
61.888729508827
61.7982753897927
61.7081157643683
61.6147362632862
61.5146657424106
61.4044817012991
61.2808194750211
61.1404610956206
60.9837018417357
60.8155913341858
60.6414354552564
60.4664282081867
60.2956466145631
60.134054335305
59.9865135153099
59.8578044105497
59.7526524681446
59.6757626902603
59.6318613196059
59.6257451390784
59.6623389860103
59.7467624528078
59.8844071971987
60.0809261047229
60.337833211969
60.6505752982976
61.0142153854228
61.4237980586285
61.8742589069938
62.360340557664
62.8765150810554
63.4169131480704
63.9752609081341
64.5448261303072
65.1183756997657
65.6881470673537
66.2458366767786
66.7826086956522
67.2900035268214
67.7627236059727
68.1962370183472
68.5859709929896
68.927360509079
69.2159025366837
69.447215229676
69.6171011143205
69.7216130418322
69.7571214127876
69.7203809534166
69.6085951470238
69.4194763159219
69.1513030255621
68.8056171113712
68.3917205386596
67.9202103330691
67.4015218824824
66.8457845369857
66.2627107122086
65.6615170191346
65.0508748393404
64.4388870822067
63.8330875445408
63.240459274012
62.6674685439009
62.1201114112732
61.6039702972774
61.1242785527884
60.6859591069903
60.2919517707508
59.9425016283932
59.6377596965243
59.3780208962703
59.1637344870179
58.9955160331862
58.8741611871083
58.8006616184154
58.7762234793634
58.8022888690986
58.8805608515409
59.0130326960504
59.2020221534546
59.4502117603909
59.7606963928568
60.1369542078724
60.578165261153
61.0763894983203
61.6227688783524
62.2079348595326
62.8218497975348
63.453672201753
64.0916513512579
64.7230587482462
65.3341655343833
65.9102760900672
66.4358282855797
66.8945699202828
67.269818439893
67.5448141802208
67.7085124272828
67.7655954610707
67.7243719004286
67.5940146943606
67.3843107551392
67.1054247226235
66.7676850704117
66.3813982792992
65.9566944205789
65.5034053864897
65.0309752855303
64.5484012325603
64.064201904118
63.5864107598858
63.1225906931824
62.6788986161263
62.2560834779784
61.853209321439
61.4693969266025
61.1038203742927
60.7557029298095
60.4243132916562
60.10896216757
59.8089991445451
59.5238098233416
59.2528131913017
58.9954592101974
58.75122659839
58.5196207888179
58.3001720463044
58.0924337294143
57.8959957438255
57.7113016275265
57.5400430002006
57.3839874389054
57.2448824326893
57.1244658225803
57.0244772486371
56.9466706542621
56.892827929531
56.8647738104498
56.8643921906914
56.8936440476859
56.954587237472
57.0493984744409
57.1803978855562
57.3500766170605
57.5611280792855
57.8160131187787
58.1123239572999
58.444543142818
58.8069637274665
59.1936607965877
59.5984289738059
60.0147306297454
60.4356562652437
60.8538990031613
61.2617454903218
61.6510857468501
62.013444559268
62.3400368457535
62.6218489766598
62.8497472684145
63.0148117029813
63.1145509112334
63.1542169342029
63.1398785814425
63.0778926746811
62.9748022427967
62.837245705234
62.6718788079081
62.4853103623808
62.2840522211992
62.0744834222779
61.8628280629385
61.6551462195522
61.4573371044628
61.2751536367556
61.114227684839
60.9795367405496
60.8705431222401
60.7837132306204
60.7155713281421
60.6627105400877
60.6217738545193
60.5894390849515
60.562407618484
60.5373968338133
60.5111361171669
60.4803664307769
60.4418433986621
60.3923438685707
60.3286758873317
60.2476919900676
60.1463056525952
60.0220240088854
59.8768922047659
59.7152428338615
59.5413708466949
59.359494663724
59.1737426659161
58.9881457083051
58.8066353339607
58.6330473426704
58.4711303775357
58.324559229983
58.196952626159
58.0918953428296
58.0129646073157
57.9637608635665
57.9479431367003
57.969264102863
58.0302928792061
58.1306958613668
58.2698584242901
58.4473063037108
58.6626973558591
58.915814614168
59.206560496483
59.5349520392756
59.9011170546572
60.3052911222363
60.7478153415684
61.2291347825332
61.7497975807681
62.3104546335606
62.9118598585533
63.5540523990124
64.2330692491279
64.9433642382796
65.6788712480867
66.432929720231
67.1982187377754
67.9667031581157
68.7295957563092
69.4773399802427
70.1996184106213
70.8853922633867
71.5229771584535
72.1001597883677
72.6049322208365
73.0321559945831
73.3817428274819
73.6542726626687
73.8508898494958
73.9732713934399
74.0235872523329
74.0044540961897
73.9188840649422
73.7702301033732
73.5621294298667
73.2984466132893
72.9832176010476
72.620599152301
72.2149014512753
71.7705431826926
71.291915027466
70.7833360273219
70.2490202881237
69.6930491965216
69.1193490014038
68.5316734966045
67.9335914547983
67.3284784026017
66.7195122908443
66.1096725984994
65.5017424103694
64.8983130238379
64.3019055069828
63.7163867349442
63.1464228873962
62.5963654338962
62.0702595097824
61.5718815925635
61.1047803573565
60.6723201006476
60.2777263594232
59.9241335847613
59.6146349573058
59.352334661258
59.1404031706894
58.9821363567909
58.881019509844
58.8407977017216
58.8654933960729
58.9552725731516
59.1036789676456
59.3038388511663
59.5489755033568
59.8322925855615
60.1468727676105
60.4855909129347
60.8410420617073
61.2054852616022
61.5708049825659
61.9284923975644
62.269649180225
62.5850166133508
62.8650326611636
63.0999208364186
63.282456999015
63.4135610881742
63.4959574319274
63.5326383613047
63.5268185426586
63.4818899200574
63.4013782983658
63.2889024390249
63.1481363709722
62.982775448255
62.7965065218721
62.5929824426607
62.3758009792726
62.14848812336
61.9144856643769
61.6770571506178
61.437889246724
61.1973695217856
60.9558354906504
60.7136152072589
60.4710272636106
60.2283808245314
59.9859756957146
59.7441024225675
59.5030424174649
59.2630681130916
59.0244431396521
58.7874225238201
58.5522529074111
58.3191727838684
58.0884127507696
57.860195776677
57.6351634273065
57.4157941960199
57.2049982447734
57.0056037056193
56.8203675119231
56.651988753456
56.5031244197544
56.3764074709604
56.2744672438503
56.1999522777845
56.1555557320745
56.1440436648014
56.1682865565188
56.2312945948058
56.3362573931494
56.4865890079325
56.685979297293
56.9365121411879
57.2334466242632
57.5704047402112
57.9408494809554
58.3379917337303
58.7547102527899
59.1834859484747
59.6163525269496
60.0448661924653
60.4600976500711
60.8526499611995
61.2127058335131
61.5301075880004
61.7944722615597
61.9953430111631
62.1228586918861
62.1759192436961
62.1611083354313
62.085698739465
61.9572768742217
61.7836064872211
61.5725088752559
61.331761892866
61.0690188742274
60.7917476484269
60.5071890939957
60.2223341628234
59.9439179963925
59.6784296380232
59.4321358875926
59.2111180236686
59.0212733824829
58.8651444864144
58.7399681888266
58.6426300580032
58.5701378369344
58.5195949740297
58.4881777223652
58.4731154477277
58.4716738777255
58.4811411000765
58.4988161803846
58.5220003200304
58.5479905143881
58.5740757011072
58.5975354079883
58.6156409201107
58.6256589862467
58.6257957446043
58.6187909330446
58.6087515353458
58.599781557527
58.5959803745316
58.601447095443
58.6202906677505
58.6566457615844
58.7146945515703
58.7986946261836
58.9130134049955
59.0621696379122
59.2508828051886
59.4841315442396
59.7672226158371
60.1058724118667
60.5044143073597
60.9592596881315
61.464484543727
62.0139293321821
62.6010836260813
63.2189793357129
63.8600939354348
64.516266098294
65.1786271714654
65.837552901172
66.4826406739333
67.1027181844568
67.685889743653
68.2196262556487
68.6929531330673
69.1056913544162
69.4617509774969
69.7655742030144
70.0220602670555
70.2364933461066
70.4144737548613
70.5618546157101
70.6846858084609
70.7891666380128
70.8816083131669
70.9684070330861
71.0560282453528
71.1508585519329
71.2539454920872
71.3594195487684
71.4608900982341
71.5518947765805
71.6259123222026
71.6763873273584
71.6967670350803
71.6805500825145
71.6213467654703
71.5129499887438
71.349415587018
71.1251501745304
70.835004139537
70.476261624718
70.0587928749573
69.5971038024194
69.1052333235324
68.5966058163556
68.0839535301691
67.5792908802658
67.0939340432884
66.6385593889937
66.2232950139844
65.8578408188015
65.5516140688289
65.3139191284299
65.1541420384169
65.0819695399918
65.1023842090733
65.2051610833336
65.3775996618394
65.6072283624713
65.8815550783565
66.1878653384385
66.5130667660301
66.8435814639395
67.1652901780715
67.4635335530343
67.7231763612625
67.9287400810726
68.0646074339465
68.1152993348115
68.0693106005466
67.9298607302744
67.7043581336871
67.4007230677873
67.027207710701
66.5922291696588
66.1042197266006
65.5714971587169
65.0021566086571
64.4039842956017
63.7843923973957
63.1503737107637
62.5084742041529
61.8647812931658
61.2249255597284
60.59409366711
59.9770503580096
59.3781676297122
58.8014594312223
58.2506205003501
57.7290682376637
57.239986787984
56.7863727622528
