Value(μV)
38.6249885559082
39.7694320678711
26.6083240509033
24.7962875366211
38.6249885559082
49.6879463195801
50.1647987365723
41.7722091674805
40.8185043334961
45.4916534423828
38.6249885559082
37.8620262145996
41.8675804138184
29.8509159088135
27.5620288848877
46.6360969543457
52.9305381774902
42.630542755127
44.1564674377441
51.8814659118652
48.2573928833008
48.1620216369629
56.8407211303711
49.4972076416016
30.8046188354492
23.5564746856689
19.074068069458
10.1092557907104
6.1037015914917
11.9212923049927
14.8777732849121
3.147221326828
-1.71666610240936
5.1499981880188
6.86666440963745
9.15555286407471
22.0305480957031
28.8972129821777
18.5972156524658
14.5916624069214
21.9351787567139
24.5101776123047
31.8536930084229
40.4370231628418
37.2898025512695
37.8620262145996
38.0527648925781
34.6194343566895
43.5842437744141
53.3120193481445
55.887020111084
59.5110931396484
59.701831817627
52.453685760498
47.1129493713379
51.0231323242188
52.9305381774902
48.734245300293
51.404613494873
57.0314636230469
59.9879455566406
55.0286865234375
38.148136138916
30.8046188354492
33.2842483520508
31.2814712524414
38.148136138916
47.017578125
39.5786895751953
34.2379531860352
38.2435073852539
35.9546165466309
36.1453590393066
42.2490615844727
48.3527641296387
57.2222023010254
55.219425201416
47.1129493713379
47.1129493713379
47.7805404663086
37.8620262145996
22.8888816833496
24.9870281219482
31.2814712524414
25.9407329559326
30.995361328125
36.1453590393066
17.5481433868408
2.47962880134583
7.72499752044678
17.5481433868408
27.1805477142334
35.2870254516602
36.6222114562988
28.5157318115234
23.6518440246582
25.177770614624
16.8805503845215
9.63240432739258
24.5101776123047
37.5759124755859
24.7009181976318
18.8833274841309
24.9870281219482
18.0249938964844
11.9212923049927
9.15555286407471
-2.00277709960938
-13.8286991119385
-20.2185115814209
-21.7444381713867
-19.2648086547852
-23.6518440246582
-33.1888771057129
-28.7064723968506
-17.8342533111572
-19.7416610717773
-23.9379558563232
-24.891658782959
-28.7064723968506
-25.4638805389404
-16.4990692138672
-22.125919342041
-29.9462871551514
-20.7907333374023
-13.1611070632935
-14.7824029922485
-17.8342533111572
-23.1749935150146
-26.9898052215576
-24.0333251953125
-18.5018463134766
-15.5453653335571
-14.5916624069214
-16.4990692138672
-10.6814785003662
-3.5287024974823
-9.25092315673828
-17.9296245574951
-46.4453544616699
-89.4573822021484
-104.239784240723
-102.713859558105
-111.869407653809
-104.62126159668
-64.9472045898438
-37.2898025512695
-41.4860992431641
-43.8703575134277
43.679615020752
250.156402587891
434.125793457031
540.84521484375
650.425720214844
790.810852050781
901.058959960938
1008.54132080078
1203.57373046875
1265.18298339844
1100.47839355469
943.880249023438
779.938659667969
582.045166015625
390.923034667969
103.286079406738
-205.904556274414
-389.206359863281
-496.784088134766
-594.920166015625
-677.41552734375
-727.008117675781
-733.684020996094
-710.985900878906
-677.70166015625
-647.46923828125
-636.6923828125
-638.885925292969
-639.839599609375
-640.221069335938
-625.438659667969
-595.110900878906
-570.79150390625
-537.793334960938
-494.876678466797
-466.074859619141
-448.526702880859
-435.937835693359
-425.160980224609
-417.149871826172
-411.523010253906
-396.359130859375
-367.938781738281
-331.793426513672
-292.691558837891
-257.118438720703
-233.943450927734
-215.632339477539
-201.899002075195
-200.277709960938
-186.353637695313
-164.132354736328
-153.355499267578
-133.995330810547
-114.34903717041
-109.675888061523
-92.1277465820313
-58.2712783813477
-43.9657249450684
-47.8759117126465
-43.1073951721191
-31.1861019134521
-15.35462474823
4.29166507720947
7.0574049949646
-2.5749990940094
4.48240613937378
24.2240657806396
44.3472061157227
61.6092376708984
62.6583137512207
56.8407211303711
59.8925743103027
67.4268264770508
72.2907180786133
64.2796096801758
55.3147964477539
63.5166473388672
70.0971984863281
67.5222015380859
70.0971984863281
78.7759017944336
95.6564483642578
115.874961853027
130.561996459961
132.755508422852
126.842552185059
130.085144042969
142.864776611328
152.687911987305
149.445327758789
143.341613769531
150.399032592773
157.551803588867
147.44255065918
137.810134887695
135.235137939453
132.46940612793
137.047180175781
142.292541503906
145.821243286133
146.393478393555
146.011993408203
159.173095703125
173.764755249023
168.996246337891
154.213836669922
155.549026489258
164.132354736328
159.745315551758
161.080505371094
175.672164916992
181.966613769531
169.091613769531
151.63883972168
144.772171020508
148.205505371094
156.979583740234
163.846237182617
167.184204101563
167.947174072266
159.936065673828
155.83512878418
159.936065673828
152.020324707031
144.104583740234
146.202728271484
146.870330810547
147.34716796875
149.54069519043
151.448104858398
159.459213256836
169.186981201172
167.565689086914
162.701797485352
157.837905883789
145.725875854492
139.717544555664
145.058288574219
150.112915039063
152.783279418945
153.069396972656
152.401809692383
154.023101806641
148.491622924805
134.56755065918
121.215698242188
114.158294677734
123.218475341797
132.850875854492
121.406440734863
103.095336914063
97.0870056152344
103.286079406738
108.436073303223
103.286079406738
90.6018218994141
77.5360870361328
77.9175643920898
81.9231185913086
71.1462707519531
56.2685012817383
53.0259094238281
51.7860946655273
37.8620262145996
22.5074005126953
12.2074031829834
-6.19907188415527
-18.4064750671387
-7.34351634979248
-6.96203470230103
-19.7416610717773
-21.9351787567139
-32.9027671813965
-47.8759117126465
-49.1157264709473
-56.1731300354004
-71.6231231689453
-81.9231185913086
-83.4490509033203
-88.4083023071289
-104.525894165039
-106.910148620605
-94.416633605957
-95.751823425293
-105.193481445313
-106.528671264648
-101.760154724121
-93.4629364013672
-86.9777526855469
-83.1629333496094
-76.1055297851563
-80.9694213867188
-96.9916381835938
-95.084228515625
-90.3157119750977
-106.814781188965
-114.635147094727
-104.239784240723
-99.6620025634766
-97.4684906005859
-98.0407104492188
-106.528671264648
-111.201812744141
-107.768486022949
-94.9888610839844
-96.0379333496094
-113.109222412109
-108.817558288574
-102.809226989746
-116.161071777344
-127.319404602051
-131.420333862305
-131.324951171875
-130.561996459961
-123.504592895508
-112.537002563477
-116.065704345703
-118.44995880127
-108.626815795898
-106.624038696289
-108.817558288574
-109.580520629883
-113.967559814453
-112.727745056152
-101.760154724121
-98.8036727905273
-109.675888061523
-110.724967956543
-100.806449890137
-94.6073760986328
-86.6916351318359
-84.4027481079102
-96.6101531982422
-104.62126159668
-97.849967956543
-89.1712646484375
-81.4462738037109
-69.6203460693359
-54.3610954284668
-50.0694274902344
-62.2768325805664
-65.2333145141602
-65.7101669311523
-71.9092330932617
-69.5249786376953
-73.0536804199219
-74.5796051025391
-74.9610900878906
-84.4027481079102
-89.4573822021484
-88.7897872924805
-76.2009048461914
-63.2305335998535
-61.0370178222656
-50.2601699829102
-30.3277683258057
-21.9351787567139
-21.5536975860596
-16.5944385528564
-13.256477355957
-4.86388731002808
6.1037015914917
-1.71666610240936
-16.022216796875
-13.9240694046021
-9.82314491271973
-17.1666603088379
-23.7472152709961
-27.5620288848877
-26.7990646362305
-22.125919342041
-25.177770614624
-28.8972129821777
-20.9814739227295
-10.7768487930298
-13.1611070632935
-13.4472179412842
-1.43055510520935
6.19907188415527
4.57777643203735
-1.9074068069458
-2.00277709960938
2.09814739227295
2.1935179233551
7.15277528762817
12.302773475647
13.1611070632935
16.4036979675293
15.7361059188843
11.1583299636841
12.2074031829834
18.1203651428223
20.9814739227295
23.6518440246582
30.8046188354492
31.3768424987793
23.5564746856689
19.1694374084473
19.2648086547852
20.9814739227295
21.1722145080566
11.8259220123291
2.47962880134583
2.1935179233551
1.33518481254578
8.3925895690918
18.3111057281494
20.2185115814209
28.8972129821777
28.8972129821777
21.7444381713867
32.7120246887207
36.6222114562988
24.9870281219482
23.3657341003418
29.1833248138428
33.761100769043
33.9518394470215
29.3740653991699
31.7583236694336
43.5842437744141
49.3064651489258
44.3472061157227
41.5814666748047
46.5407257080078
53.0259094238281
43.1073951721191
25.6546211242676
23.7472152709961
15.0685138702393
2.5749990940094
11.9212923049927
20.7907333374023
15.35462474823
4.95925760269165
-5.05462789535522
-0.47685170173645
15.1638841629028
26.1314735412598
43.2027626037598
60.5601654052734
56.5546112060547
56.2685012817383
67.3314590454102
66.7592391967773
66.6638641357422
76.5823822021484
74.1027526855469
63.5166473388672
61.323127746582
63.2305335998535
64.8518295288086
62.1814613342285
59.2249794006348
59.3203506469727
53.8842430114746
46.8268356323242
39.5786895751953
30.995361328125
27.943510055542
29.4694347381592
28.1342506408691
25.8453617095947
34.9055442810059
35.4777679443359
23.6518440246582
27.657398223877
34.4286918640137
30.3277683258057
24.0333251953125
28.2296199798584
37.6712837219238
34.810173034668
38.6249885559082
54.2657241821289
55.6009063720703
49.4972076416016
52.3583183288574
55.9823913574219
52.1675758361816
44.4425773620605
40.7231369018555
27.5620288848877
7.0574049949646
7.15277528762817
12.9703664779663
16.4036979675293
18.9786968231201
7.15277528762817
3.43333220481873
11.635181427002
10.9675893783569
5.43610954284668
0.47685170173645
-6.48518323898315
-15.2592544555664
-2.28888821601868
19.360179901123
11.8259220123291
0.190740674734116
4.38703584671021
5.53147983551025
4.86388731002808
8.48795986175537
13.3518476486206
18.4064750671387
19.6462898254395
19.2648086547852
17.9296245574951
6.86666440963745
0.858333051204681
4.95925760269165
6.6759238243103
6.96203470230103
-4.10092449188232
-22.4120292663574
-27.4666576385498
-22.9842510223389
-22.3166599273682
-22.4120292663574
-16.2129573822021
-14.3055505752563
-14.687032699585
-18.787956237793
-29.4694347381592
-43.1073951721191
-75.6286773681641
-117.877738952637
-139.240692138672
-132.755508422852
-121.978668212891
-118.44995880127
-86.5962677001953
-45.2055397033691
-32.1398048400879
-13.256477355957
58.9388694763184
217.444381713867
390.350799560547
501.552612304688
599.116455078125
736.449768066406
870.731201171875
968.962646484375
1133.95336914063
1246.87182617188
1114.78393554688
938.921020507813
793.767333984375
587.481323242188
398.648010253906
154.404586791992
-183.301788330078
-410.378570556641
-501.552612304688
-575.369262695313
-637.359985351563
-673.314575195313
-696.680358886719
-697.347900390625
-668.45068359375
-632.591491699219
-608.748901367188
-607.318298339844
-619.239624023438
-613.32666015625
-597.685913085938
-590.342407226563
-570.696105957031
-524.155395507813
-478.091522216797
-450.624847412109
-430.501708984375
-418.198944091797
-408.661895751953
-397.217468261719
-387.394317626953
-378.620239257813
-367.4619140625
-335.131378173828
-291.356384277344
-259.407318115234
-223.071228027344
-199.133270263672
-200.659194946289
-200.086975097656
-191.885116577148
-181.68049621582
-171.571243286133
-160.317535400391
-145.344390869141
-128.940704345703
-105.670333862305
-81.4462738037109
-70.3833084106445
-68.2851638793945
-64.1842422485352
-56.5546112060547
-41.1046180725098
-15.4499950408936
6.00833129882813
19.4555492401123
31.5675830841064
39.2925796508789
40.5323944091797
49.6879463195801
65.7101669311523
78.012939453125
91.8416366577148
96.2286758422852
91.5555267333984
100.52033996582
115.874961853027
128.463851928711
133.613845825195
121.597183227539
116.637924194336
130.848098754883
140.766616821289
140.385147094727
133.709213256836
126.07958984375
130.943481445313
145.916625976563
153.260131835938
152.211059570313
149.54069519043
146.107360839844
147.53791809082
145.630508422852
141.148101806641
147.728652954102
151.73420715332
143.15087890625
136.66569519043
136.188842773438
136.284210205078
134.090698242188
126.270332336426
121.883293151855
126.461067199707
123.123107910156
121.215698242188
136.284210205078
146.584213256836
138.85920715332
134.186065673828
139.336059570313
135.807357788086
130.657363891602
133.518478393555
123.599960327148
114.730522155762
120.357368469238
120.357368469238
126.651809692383
133.423110961914
120.071258544922
118.73607635498
128.463851928711
119.785148620605
110.152740478516
106.051818847656
100.138854980469
102.52311706543
108.912925720215
114.25366973877
127.128662109375
133.899963378906
134.376815795898
138.477737426758
139.717544555664
144.390701293945
148.396255493164
146.870330810547
149.159210205078
147.34716796875
142.006439208984
147.633285522461
154.786056518555
153.641616821289
152.497177124023
155.262908935547
154.976806640625
145.725875854492
134.186065673828
138.477737426758
145.058288574219
131.992553710938
120.929588317871
114.34903717041
100.711082458496
96.9916381835938
92.4138565063477
70.3833084106445
54.2657241821289
48.2573928833008
37.8620262145996
34.810173034668
34.9055442810059
27.8481388092041
18.3111057281494
4.95925760269165
-10.0138854980469
-21.3629570007324
-25.4638805389404
-24.7962875366211
-26.0361022949219
-31.0907306671143
-38.7203598022461
-43.0120239257813
-38.148136138916
-41.1046180725098
-55.887020111084
-55.6009063720703
-43.7749862670898
-45.4916534423828
-53.121280670166
-52.453685760498
-54.4564628601074
-59.5110931396484
-65.137939453125
-82.7814559936523
-101.855522155762
-115.588851928711
-118.068481445313
-98.2314529418945
-90.9833068847656
-105.670333862305
-106.624038696289
-96.8962631225586
-91.7462692260742
-91.3647842407227
-100.329597473145
-113.395332336426
-121.978668212891
-116.161071777344
-99.5666351318359
-98.899040222168
-112.155517578125
-111.1064453125
-105.86107635498
-109.485153198242
-107.291633605957
-103.667556762695
-103.76293182373
-100.424964904785
-99.2805252075195
-99.4712677001953
-97.7546005249023
-98.1360778808594
-100.806449890137
-104.144409179688
-109.771263122559
-108.817558288574
-96.4194107055664
-92.7953414916992
-94.416633605957
-89.0758972167969
-91.3647842407227
-95.4657135009766
-89.2666397094727
-87.5499725341797
-87.1684875488281
-85.4518280029297
-89.6481170654297
-92.986083984375
-92.318489074707
-87.8360824584961
-88.8851547241211
-96.3240432739258
-92.7953414916992
-81.827751159668
-76.5823822021484
-71.6231231689453
-67.7129440307617
-72.6721954345703
-79.1573791503906
-84.0212707519531
-85.8333053588867
-84.6888580322266
-83.1629333496094
-74.8657150268555
-68.4759063720703
-69.3342361450195
-58.4620170593262
-45.8731346130371
-47.6851692199707
-47.4944305419922
-44.3472061157227
-51.5953521728516
-56.4592399597168
-46.6360969543457
-39.4833221435547
-35.5731353759766
-24.4148063659668
-22.6981410980225
-28.2296199798584
-25.9407329559326
-23.6518440246582
-23.2703628540039
-19.2648086547852
-14.1148099899292
-11.4444408416748
-10.1092557907104
-6.58055353164673
-8.86944198608398
-19.360179901123
-28.8972129821777
-34.9055442810059
-30.4231376647949
-14.2101802825928
1.52592539787292
12.1120328903198
24.4148063659668
35.1916542053223
30.8046188354492
23.5564746856689
26.4175834655762
30.0416564941406
27.7527694702148
20.3138828277588
13.1611070632935
5.7222204208374
-2.09814739227295
0
0.762962698936462
-5.43610954284668
-1.52592539787292
4.67314672470093
3.43333220481873
4.10092449188232
12.3981437683105
26.226842880249
33.3796195983887
28.1342506408691
22.9842510223389
22.8888816833496
21.2675857543945
15.35462474823
10.5861072540283
10.8722190856934
18.5972156524658
24.3194370269775
17.357400894165
15.5453653335571
23.9379558563232
30.0416564941406
41.6768379211426
47.3990592956543
34.7148017883301
22.8888816833496
24.891658782959
31.3768424987793
28.0388793945313
24.4148063659668
33.6657295227051
37.5759124755859
36.8129501342773
47.4944305419922
51.4999847412109
42.630542755127
39.3879508972168
35.5731353759766
26.7990646362305
24.891658782959
23.2703628540039
20.8861045837402
23.8425846099854
26.226842880249
29.7555465698242
36.431468963623
41.8675804138184
50.2601699829102
56.6499824523926
50.9277610778809
45.0148010253906
44.4425773620605
41.1999855041504
34.3333206176758
28.0388793945313
23.1749935150146
24.1286964416504
33.1888771057129
33.8564720153809
29.4694347381592
34.0472106933594
31.1861019134521
21.9351787567139
23.8425846099854
25.6546211242676
30.4231376647949
33.2842483520508
27.7527694702148
36.9083213806152
49.6879463195801
46.1592445373535
33.4749908447266
31.1861019134521
48.1620216369629
61.99072265625
61.0370178222656
51.1185035705566
45.7777633666992
44.4425773620605
37.6712837219238
35.7638778686523
32.6166572570801
24.891658782959
18.6925868988037
10.3953666687012
9.537034034729
14.2101802825928
8.67870044708252
2.28888821601868
0.762962698936462
0.572222054004669
2.76573991775513
-5.43610954284668
-6.29444265365601
13.7333288192749
19.1694374084473
4.57777643203735
-3.05185079574585
1.52592539787292
7.43888664245605
15.1638841629028
19.1694374084473
12.2074031829834
13.5425882339478
16.8805503845215
10.4907369613647
14.2101802825928
24.1286964416504
27.7527694702148
26.7990646362305
16.2129573822021
5.53147983551025
2.1935179233551
0
11.1583299636841
21.7444381713867
12.3981437683105
2.67036962509155
-6.77129411697388
-16.1175880432129
-15.9268465042114
-27.2759170532227
-50.5462799072266
-74.8657150268555
-107.768486022949
-128.559219360352
-122.646255493164
-122.93236541748
-133.613845825195
-104.335151672363
-61.8953514099121
-58.9388694763184
-62.3722038269043
0.858333051204681
179.677719116211
384.247100830078
519.768371582031
630.493286132813
774.693298339844
913.838623046875
995.284851074219
1155.31628417969
1335.37548828125
1258.60241699219
1049.74133300781
877.979370117188
681.89794921875
461.115600585938
180.059204101563
-138.191619873047
-366.317474365234
-499.263732910156
-599.497985839844
-673.886840820313
-724.43310546875
-752.376586914063
-735.305297851563
-695.822021484375
-665.875732421875
-647.087768554688
-640.793334960938
-632.2099609375
-625.438659667969
-630.302551269531
-620.670166015625
-588.339599609375
-554.197021484375
-518.910034179688
-475.611877441406
-438.512817382813
-421.536895751953
-415.147094726563
-403.225799560547
-392.067474365234
-381.767456054688
-359.546173095703
-332.556365966797
-304.803619384766
-269.707305908203
-240.905471801758
-233.085113525391
-229.365661621094
-220.305480957031
-211.53141784668
-200.659194946289
-189.405502319336
-171.285125732422
-143.532363891602
-113.776817321777
-85.1657104492188
-64.2796096801758
-54.4564628601074
-52.2629470825195
-46.1592445373535
-31.0907306671143
-17.1666603088379
-1.14444410800934
13.256477355957
20.9814739227295
32.8073959350586
46.2546157836914
53.0259094238281
48.8296127319336
47.017578125
57.2222023010254
61.1323890686035
58.5573883056641
68.7620162963867
87.6453399658203
100.901817321777
104.812004089355
114.635147094727
130.752731323242
132.850875854492
132.850875854492
134.66291809082
129.894409179688
133.327728271484
140.385147094727
139.908294677734
139.908294677734
145.916625976563
149.922180175781
151.829574584961
153.546249389648
144.867553710938
129.417556762695
124.267555236816
128.177734375
134.090698242188
133.327728271484
129.894409179688
141.624954223633
158.600875854492
162.224945068359
162.3203125
166.898101806641
159.840682983398
140.003662109375
142.292541503906
157.551803588867
156.407363891602
158.219390869141
164.895324707031
165.086059570313
169.759201049805
169.473098754883
154.499954223633
145.630508422852
143.723098754883
141.434219360352
143.532363891602
131.611068725586
115.588851928711
111.201812744141
104.430519104004
109.485153198242
116.35181427002
113.013854980469
112.060150146484
100.711082458496
90.9833068847656
95.5610809326172
99.948112487793
112.25089263916
127.700881958008
129.799026489258
128.940704345703
130.657363891602
132.660140991211
132.278656005859
134.376815795898
142.674026489258
145.821243286133
146.298095703125
147.061065673828
149.54069519043
151.352722167969
141.338836669922
137.047180175781
141.434219360352
137.428665161133
144.009216308594
157.170318603516
149.159210205078
141.720321655273
140.289764404297
132.755508422852
128.845321655273
120.071258544922
104.812004089355
93.2721939086914
87.7407150268555
85.1657104492188
78.394416809082
70.5740509033203
62.5629425048828
47.9712791442871
33.9518394470215
26.1314735412598
14.3055505752563
-3.5287024974823
-14.687032699585
-18.2157344818115
-22.6027698516846
-34.2379531860352
-42.2490615844727
-39.5786895751953
-40.4370231628418
-45.1101722717285
-53.7888717651367
-60.1786842346191
-61.1323890686035
-70.8601608276367
-75.7240524291992
-72.2907180786133
-78.2990493774414
-82.1138610839844
-84.3073806762695
-99.1851501464844
-106.910148620605
-104.049041748047
-104.62126159668
-97.2777481079102
-92.6999740600586
-99.0897827148438
-99.1851501464844
-98.0407104492188
-104.812004089355
-112.346260070801
-114.730522155762
-111.392555236816
-108.436073303223
-115.302742004395
-126.174957275391
-131.897186279297
-127.414772033691
-122.074035644531
-129.322174072266
-131.611068725586
-121.597183227539
-120.929588317871
-129.608291625977
-133.899963378906
-135.139770507813
-137.237915039063
-129.512924194336
-117.210144042969
-114.062927246094
-107.86385345459
-100.615707397461
-103.286079406738
-102.237007141113
-102.904594421387
-106.528671264648
-104.049041748047
-102.332374572754
-100.234230041504
-93.8444137573242
-87.0731201171875
-85.0703430175781
-88.7897872924805
-95.1795959472656
-94.702751159668
-89.6481170654297
-93.5583038330078
-95.2749710083008
-81.7323837280273
-73.3397903442383
-79.3481216430664
-80.3971939086914
-77.4407196044922
-77.5360870361328
-75.6286773681641
-82.3999710083008
-88.7897872924805
-72.5768280029297
-55.3147964477539
-53.8842430114746
-49.1157264709473
-45.4916534423828
-53.7888717651367
-55.7916488647461
-49.783317565918
-50.7370223999023
-49.5925750732422
-48.066650390625
-52.8351669311523
-43.5842437744141
-31.3768424987793
-35.7638778686523
-32.5212860107422
-17.9296245574951
-16.30832862854
-19.8370304107666
-22.125919342041
-27.943510055542
-30.1370277404785
-30.1370277404785
-29.7555465698242
-34.2379531860352
-40.5323944091797
-38.3388748168945
-36.0499877929688
-35.5731353759766
-30.8046188354492
-28.8972129821777
-31.8536930084229
-29.0879535675049
-23.2703628540039
-22.6981410980225
-21.5536975860596
-19.360179901123
-10.2999963760376
4.00555419921875
6.38981294631958
5.43610954284668
3.147221326828
-5.1499981880188
-0.667592406272888
6.58055353164673
2.76573991775513
1.23981440067291
13.0657367706299
30.8999900817871
32.3305435180664
27.5620288848877
31.4722118377686
33.761100769043
36.431468963623
33.4749908447266
28.7064723968506
32.3305435180664
31.1861019134521
29.5648059844971
39.0064697265625
48.5435028076172
47.6851692199707
40.7231369018555
29.278694152832
20.409252166748
22.125919342041
26.0361022949219
29.278694152832
24.7009181976318
15.7361059188843
18.787956237793
22.3166599273682
23.6518440246582
28.3249912261963
30.5185089111328
28.5157318115234
34.810173034668
56.1731300354004
63.9934997558594
46.3499870300293
31.9490642547607
35.5731353759766
39.9601707458496
31.0907306671143
23.2703628540039
20.6953639984131
17.1666603088379
23.0796222686768
32.9981384277344
43.1073951721191
59.0342407226563
68.9527587890625
68.9527587890625
58.1759071350098
42.2490615844727
41.1999855041504
48.066650390625
46.0638732910156
32.5212860107422
21.9351787567139
26.9898052215576
34.7148017883301
39.3879508972168
46.4453544616699
52.0722045898438
56.5546112060547
57.9851684570313
52.453685760498
51.3092422485352
53.9796104431152
48.4481315612793
45.5870208740234
47.2083168029785
44.6333198547363
51.5953521728516
66.854606628418
68.2851638793945
62.1814613342285
62.6583137512207
61.8953514099121
50.7370223999023
35.9546165466309
31.9490642547607
25.3685111999512
11.2537002563477
6.19907188415527
11.3490705490112
24.9870281219482
31.9490642547607
28.6111011505127
27.3712882995605
23.4611034393311
25.7499923706055
29.4694347381592
16.6898097991943
5.34073925018311
5.34073925018311
6.86666440963745
12.1120328903198
13.6379585266113
8.20184898376465
6.48518323898315
12.3981437683105
20.9814739227295
20.2185115814209
3.91018390655518
-8.86944198608398
-7.43888664245605
-13.4472179412842
-18.1203651428223
-11.1583299636841
-11.7305517196655
-8.10647869110107
2.76573991775513
0.858333051204681
-2.00277709960938
4.00555419921875
3.91018390655518
-4.48240613937378
-16.4036979675293
-25.2731399536133
-9.9185152053833
14.4009208679199
13.3518476486206
9.25092315673828
27.7527694702148
41.962947845459
36.6222114562988
39.3879508972168
42.7259140014648
18.5018463134766
-3.147221326828
5.62685012817383
21.0768451690674
18.1203651428223
7.15277528762817
8.86944198608398
19.2648086547852
25.0823993682861
28.3249912261963
28.4203605651855
22.5074005126953
16.6898097991943
5.7222204208374
-15.35462474823
-29.3740653991699
-29.9462871551514
-31.6629524230957
-37.0036926269531
-42.1536903381348
-46.4453544616699
-41.0092468261719
-36.1453590393066
-38.0527648925781
-31.2814712524414
-28.1342506408691
-28.0388793945313
-20.8861045837402
-24.7962875366211
-29.8509159088135
-24.891658782959
-20.409252166748
-20.8861045837402
-27.8481388092041
-30.1370277404785
-29.7555465698242
-34.810173034668
-26.7990646362305
-13.9240694046021
-16.1175880432129
-12.1120328903198
-5.91296100616455
-16.7851791381836
-22.6981410980225
-20.409252166748
-29.0879535675049
-43.2981338500977
-59.1296119689941
-83.2583084106445
-116.733299255371
-141.148101806641
-136.188842773438
-124.267555236816
-113.586074829102
-79.729606628418
-47.017578125
-47.6851692199707
-53.4073905944824
0.0953703373670578
152.306427001953
343.810089111328
484.672058105469
581.568359375
707.934020996094
855.090454101563
942.258972167969
1087.31726074219
1316.11071777344
1292.74499511719
1053.07934570313
883.129333496094
719.473815917969
495.162811279297
239.2841796875
-41.962947845459
-294.026763916016
-472.464660644531
-591.582214355469
-680.562744140625
-736.831237792969
-751.136779785156
-722.430297851563
-681.993286132813
-655.766479492188
-633.354431152344
-619.716491699219
-614.947937011719
-611.800720214844
-606.4599609375
-585.287780761719
-560.777587890625
-537.697998046875
-506.988739013672
-474.944305419922
-448.240600585938
-428.498931884766
-414.860992431641
-403.321166992188
-396.168395996094
-387.298950195313
-367.748016357422
-338.564697265625
-294.026763916016
-250.156402587891
-237.090667724609
-231.082336425781
-204.474014282227
-182.538833618164
-177.865676879883
-170.80827331543
-158.314758300781
-142.769393920898
-126.365699768066
-113.395332336426
-94.2258987426758
-69.5249786376953
-53.8842430114746
-46.6360969543457
-40.5323944091797
-36.2407302856445
-27.2759170532227
-14.1148099899292
-7.72499752044678
6.6759238243103
42.3444290161133
68.6666412353516
71.2416458129883
78.2990493774414
98.7083053588867
105.670333862305
90.4110794067383
77.1546020507813
87.8360824584961
110.152740478516
119.212921142578
120.73885345459
121.597183227539
123.504592895508
128.177734375
121.978668212891
116.637924194336
120.643478393555
116.065704345703
113.681442260742
118.640701293945
119.308296203613
126.461067199707
141.720321655273
150.017547607422
153.73698425293
154.690689086914
145.535140991211
137.524032592773
142.387924194336
141.052734375
135.330505371094
142.006439208984
140.289764404297
130.848098754883
139.908294677734
152.211059570313
150.494400024414
151.448104858398
155.262908935547
142.292541503906
124.93514251709
126.07958984375
127.510147094727
127.796257019043
142.006439208984
145.725875854492
133.709213256836
123.599960327148
120.929588317871
126.270332336426
128.273101806641
126.556442260742
127.605514526367
131.706436157227
137.524032592773
139.526809692383
135.139770507813
123.313850402832
114.539779663086
122.074035644531
128.36848449707
120.452735900879
117.782371520996
123.218475341797
130.848098754883
142.960144042969
150.685134887695
144.962921142578
134.758285522461
136.570327758789
139.622177124023
128.654586791992
127.700881958008
137.524032592773
138.477737426758
143.341613769531
148.396255493164
148.205505371094
164.60920715332
178.628646850586
163.750869750977
150.017547607422
146.011993408203
129.131439208984
111.1064453125
107.577743530273
107.577743530273
103.667556762695
101.855522155762
102.52311706543
102.904594421387
102.52311706543
102.52311706543
99.7573776245117
96.7055282592773
91.4601593017578
83.1629333496094
80.111083984375
68.1897964477539
49.5925750732422
36.8129501342773
21.839807510376
7.0574049949646
-3.24259161949158
-11.8259220123291
-15.1638841629028
-12.4935140609741
-17.2620315551758
-21.2675857543945
-16.5944385528564
-21.1722145080566
-31.3768424987793
-40.913875579834
-49.783317565918
-48.9249839782715
-48.5435028076172
-59.6064605712891
-70.4786834716797
-70.1925735473633
-66.1870193481445
-72.0046081542969
-80.9694213867188
-84.5934906005859
-86.9777526855469
-84.4981231689453
-78.2036819458008
-77.5360870361328
-89.9342269897461
-103.476821899414
-99.6620025634766
-97.3731155395508
-104.239784240723
-106.814781188965
-117.114776611328
-132.374038696289
-134.56755065918
-129.799026489258
-135.616622924805
-135.044403076172
-117.114776611328
-116.161071777344
-126.842552185059
-127.128662109375
-128.36848449707
-131.611068725586
-139.240692138672
-148.110137939453
-145.725875854492
-145.43977355957
-150.685134887695
-148.396255493164
-141.148101806641
-133.899963378906
-131.420333862305
-138.76383972168
-142.006439208984
-137.524032592773
-133.518478393555
-124.458290100098
-118.831443786621
-124.839775085449
-127.510147094727
-121.978668212891
-113.681442260742
-99.0897827148438
-90.4110794067383
-96.2286758422852
-96.13330078125
-93.8444137573242
-101.569412231445
-102.427742004395
-96.4194107055664
-90.4110794067383
-81.9231185913086
-79.9203414916992
-77.7268295288086
-65.7101669311523
-57.5083160400391
-55.0286865234375
-52.5490570068359
-61.6092376708984
-76.6777496337891
-80.9694213867188
-76.7731246948242
-68.8573837280273
-64.756462097168
-61.5138702392578
-51.8814659118652
-52.1675758361816
-64.2796096801758
-72.1953506469727
-68.5712738037109
-57.4129447937012
-46.7314682006836
-39.4833221435547
-34.4286918640137
-28.8018417358398
-25.4638805389404
-25.8453617095947
-24.7009181976318
-21.5536975860596
-22.8888816833496
-21.3629570007324
-17.1666603088379
-24.9870281219482
-33.6657295227051
-31.1861019134521
-25.5592517852783
-16.30832862854
-3.8148136138916
-1.04907369613647
-4.38703584671021
-4.67314672470093
-11.5398111343384
-14.3055505752563
-2.76573991775513
3.8148136138916
6.19907188415527
10.2999963760376
6.96203470230103
8.0111083984375
24.6055469512939
33.0935096740723
32.1398048400879
32.9981384277344
24.7009181976318
24.7009181976318
37.0036926269531
40.7231369018555
38.148136138916
35.1916542053223
46.0638732910156
60.4647941589355
53.2166481018066
38.5296173095703
29.278694152832
24.9870281219482
23.3657341003418
16.9759197235107
13.4472179412842
11.635181427002
9.63240432739258
18.8833274841309
28.4203605651855
25.6546211242676
27.4666576385498
34.4286918640137
41.6768379211426
51.6907234191895
52.6444282531738
46.7314682006836
47.3036880493164
51.404613494873
51.1185035705566
57.5083160400391
75.3425674438477
80.9694213867188
67.3314590454102
55.887020111084
52.1675758361816
48.9249839782715
44.9194297790527
35.1916542053223
26.9898052215576
30.6138782501221
35.0962867736816
38.4342460632324
43.2027626037598
38.9110984802246
35.0962867736816
42.4398002624512
46.5407257080078
43.2027626037598
35.382396697998
36.6222114562988
52.453685760498
50.5462799072266
35.5731353759766
28.6111011505127
14.8777732849121
6.58055353164673
15.6407356262207
18.8833274841309
23.0796222686768
37.1944313049316
39.197208404541
37.7666549682617
44.6333198547363
43.4888763427734
43.3935050964355
50.1647987365723
47.017578125
43.0120239257813
48.6388740539551
51.2138710021973
50.5462799072266
45.1101722717285
25.7499923706055
16.5944385528564
23.8425846099854
25.7499923706055
25.4638805389404
25.7499923706055
18.1203651428223
14.3055505752563
19.7416610717773
22.5074005126953
20.5999927520752
19.360179901123
19.074068069458
15.4499950408936
13.8286991119385
19.4555492401123
25.2731399536133
30.8046188354492
32.9981384277344
26.4175834655762
27.657398223877
37.0036926269531
33.1888771057129
27.2759170532227
37.7666549682617
44.0610961914063
39.6740608215332
34.4286918640137
25.8453617095947
16.1175880432129
14.5916624069214
18.8833274841309
16.9759197235107
13.3518476486206
14.687032699585
17.738883972168
19.360179901123
12.0166625976563
7.24814605712891
14.687032699585
13.4472179412842
3.62407302856445
-4.38703584671021
-4.48240613937378
11.7305517196655
23.9379558563232
25.177770614624
24.7962875366211
11.4444408416748
3.05185079574585
12.3981437683105
8.20184898376465
-2.67036962509155
-6.38981294631958
-15.0685138702393
-16.1175880432129
-8.20184898376465
0.667592406272888
12.3981437683105
11.4444408416748
-0.762962698936462
-4.38703584671021
1.23981440067291
9.44166374206543
9.537034034729
-2.5749990940094
-19.2648086547852
-32.3305435180664
-36.5268402099609
-35.6685066223145
-29.1833248138428
-16.30832862854
-9.63240432739258
-8.77407169342041
-4.29166507720947
-8.0111083984375
-25.5592517852783
-41.4860992431641
-41.962947845459
-30.5185089111328
-27.3712882995605
-33.1888771057129
-31.5675830841064
-28.3249912261963
-31.0907306671143
-24.2240657806396
-19.360179901123
-41.1046180725098
-52.8351669311523
-39.4833221435547
-39.0064697265625
-36.5268402099609
-23.1749935150146
-28.3249912261963
-32.04443359375
-27.8481388092041
-35.2870254516602
-35.8592491149902
-27.7527694702148
-28.7064723968506
-31.5675830841064
-31.7583236694336
-31.8536930084229
-24.891658782959
-22.6981410980225
-27.657398223877
-24.3194370269775
-32.3305435180664
-55.887020111084
-70.6694183349609
-88.6944122314453
-118.068481445313
-132.850875854492
-131.229583740234
-119.022186279297
-83.1629333496094
-37.1944313049316
-26.6083240509033
-44.251838684082
-15.5453653335571
117.782371520996
311.574890136719
463.213745117188
556.390563964844
659.867370605469
807.4052734375
916.69970703125
1038.96447753906
1267.94860839844
1307.8134765625
1091.03674316406
910.309875488281
754.570129394531
564.878540039063
348.864715576172
65.2333145141602
-208.861038208008
-395.977661132813
-523.010925292969
-622.577575683594
-687.143310546875
-712.511779785156
-707.266418457031
-683.900695800781
-658.055358886719
-635.452575683594
-626.106262207031
-623.626647949219
-617.52294921875
-612.372924804688
-599.688720703125
-577.467407226563
-552.861877441406
-519.768371582031
-475.802612304688
-429.45263671875
-397.122100830078
-385.296173095703
-376.903594970703
-361.16748046875
-341.044342041016
-317.964721679688
-299.367492675781
-288.590637207031
-275.334167480469
-263.508239746094
-257.499908447266
-244.720291137695
-226.027709960938
-203.424942016602
-183.206420898438
-170.522171020508
-155.930511474609
-142.292541503906
-128.654586791992
-103.953666687012
-78.9666442871094
-65.0425720214844
-52.453685760498
-47.5897979736328
-47.3036880493164
-32.04443359375
-17.1666603088379
-0.381481349468231
20.5046234130859
31.6629524230957
47.4944305419922
61.6092376708984
65.6147918701172
65.6147918701172
61.6092376708984
70.2879409790039
79.5388641357422
68.1897964477539
64.1842422485352
81.3508987426758
98.899040222168
109.199035644531
120.83422088623
125.411994934082
115.874961853027
113.872184753418
126.174957275391
124.076812744141
104.239784240723
100.615707397461
116.924034118652
136.188842773438
142.960144042969
141.243469238281
149.731430053711
153.641616821289
151.257354736328
152.878662109375
158.791610717773
175.767532348633
182.538833618164
178.819381713867
184.636978149414
181.58512878418
172.524948120117
172.238830566406
168.80549621582
169.759201049805
171.857345581055
160.794387817383
149.349945068359
142.197174072266
131.229583740234
120.929588317871
122.169403076172
126.270332336426
122.455513000488
118.068481445313
119.308296203613
118.73607635498
116.542556762695
122.646255493164
129.703659057617
128.654586791992
131.611068725586
143.532363891602
144.486068725586
135.235137939453
128.654586791992
121.120330810547
119.403663635254
124.362922668457
123.409217834473
118.831443786621
114.825889587402
114.539779663086
125.507369995117
141.052734375
143.627731323242
136.474960327148
133.136993408203
129.989776611328
127.510147094727
127.700881958008
132.183288574219
143.055511474609
145.43977355957
145.43977355957
152.115692138672
149.445327758789
143.532363891602
145.535140991211
142.387924194336
128.36848449707
115.302742004395
111.964782714844
121.978668212891
124.458290100098
107.577743530273
90.0296020507813
76.8684921264648
76.7731246948242
82.3999710083008
77.1546020507813
77.6314544677734
74.9610900878906
60.9416465759277
56.3638725280762
48.734245300293
31.8536930084229
26.9898052215576
30.3277683258057
18.5018463134766
6.58055353164673
8.58333015441895
-1.23981440067291
-11.1583299636841
-11.5398111343384
-15.4499950408936
-20.409252166748
-41.7722091674805
-63.8027572631836
-56.6499824523926
-46.4453544616699
-51.4999847412109
-52.9305381774902
-49.783317565918
-51.9768333435059
-59.9879455566406
-66.9499816894531
-67.1407165527344
-72.9583129882813
-88.8851547241211
-95.3703384399414
-92.8907089233398
-95.084228515625
-94.8934860229492
-81.9231185913086
-78.2990493774414
-92.6045989990234
-96.7055282592773
-94.9888610839844
-105.956443786621
-120.83422088623
-132.374038696289
-136.76106262207
-136.474960327148
-144.962921142578
-154.786056518555
-154.118469238281
-145.153656005859
-134.949035644531
-135.425888061523
-141.911071777344
-140.766616821289
-131.324951171875
-120.548110961914
-112.918479919434
-107.86385345459
-104.239784240723
-103.858299255371
-109.00830078125
-115.016632080078
-111.869407653809
-105.574966430664
-115.49348449707
-133.518478393555
-139.908294677734
-134.472183227539
-125.507369995117
-118.44995880127
-109.00830078125
-105.86107635498
-111.774040222168
-110.820335388184
-110.152740478516
-114.539779663086
-108.626815795898
-101.950889587402
-108.817558288574
-109.675888061523
-98.3268203735352
-94.416633605957
-97.6592254638672
-93.9397811889648
-75.1518249511719
-58.4620170593262
-61.0370178222656
-70.1925735473633
-77.7268295288086
-78.1083068847656
-68.6666412353516
-58.7481307983398
-47.9712791442871
-43.7749862670898
-46.7314682006836
-41.2953567504883
-34.9055442810059
-38.7203598022461
-42.1536903381348
-36.7175827026367
-34.5240631103516
-34.7148017883301
-22.3166599273682
-12.0166625976563
-13.7333288192749
-16.6898097991943
-30.2323970794678
-43.0120239257813
-36.6222114562988
-30.6138782501221
-28.8972129821777
-25.177770614624
-24.5101776123047
-23.3657341003418
-20.2185115814209
-24.0333251953125
-30.2323970794678
-21.839807510376
-6.6759238243103
1.62129580974579
11.5398111343384
19.5509204864502
12.0166625976563
-3.8148136138916
-4.57777643203735
9.82314491271973
9.63240432739258
-3.62407302856445
-5.91296100616455
0.190740674734116
8.67870044708252
15.5453653335571
11.9212923049927
9.82314491271973
12.3981437683105
13.0657367706299
23.8425846099854
32.9027671813965
22.4120292663574
8.86944198608398
8.96481227874756
17.357400894165
19.2648086547852
14.4009208679199
12.0166625976563
18.0249938964844
30.2323970794678
37.8620262145996
38.7203598022461
32.6166572570801
27.657398223877
29.278694152832
29.7555465698242
32.2351760864258
37.6712837219238
44.3472061157227
45.3962821960449
38.0527648925781
37.099063873291
40.8185043334961
38.2435073852539
31.7583236694336
34.1425819396973
42.7259140014648
42.8212814331055
46.4453544616699
53.7888717651367
47.8759117126465
45.8731346130371
51.5953521728516
44.1564674377441
44.9194297790527
55.219425201416
47.8759117126465
42.5351715087891
45.1101722717285
44.4425773620605
48.1620216369629
51.0231323242188
52.453685760498
57.8897972106934
59.5110931396484
55.1240577697754
51.6907234191895
56.4592399597168
57.6990547180176
49.5925750732422
44.1564674377441
33.761100769043
21.839807510376
24.7009181976318
29.6601753234863
31.3768424987793
35.7638778686523
33.9518394470215
29.6601753234863
32.8073959350586
36.5268402099609
40.913875579834
35.7638778686523
26.7036952972412
38.4342460632324
42.8212814331055
28.7064723968506
21.2675857543945
15.7361059188843
18.3111057281494
26.7990646362305
26.4175834655762
27.943510055542
27.3712882995605
17.2620315551758
8.29721927642822
9.537034034729
20.6953639984131
33.3796195983887
43.2981338500977
46.6360969543457
48.5435028076172
51.9768333435059
50.4509086608887
48.734245300293
50.4509086608887
56.936092376709
59.701831817627
55.7916488647461
50.355541229248
39.864803314209
34.0472106933594
38.6249885559082
36.0499877929688
24.9870281219482
18.8833274841309
11.2537002563477
1.14444410800934
-7.53425693511963
-16.5944385528564
-14.0194396972656
-4.95925760269165
-3.62407302856445
-4.38703584671021
-7.53425693511963
-10.1092557907104
-0.667592406272888
8.20184898376465
11.4444408416748
21.4583263397217
23.9379558563232
9.44166374206543
2.5749990940094
5.81759071350098
2.09814739227295
2.1935179233551
8.10647869110107
0.572222054004669
-12.9703664779663
-16.9759197235107
-22.125919342041
-37.6712837219238
-41.3907279968262
-28.7064723968506
-26.1314735412598
-31.0907306671143
-29.278694152832
-30.2323970794678
-29.4694347381592
-24.5101776123047
-26.4175834655762
-18.6925868988037
-9.25092315673828
-15.35462474823
-12.0166625976563
-0.858333051204681
-0.858333051204681
-3.05185079574585
-4.00555419921875
-18.4064750671387
-36.5268402099609
-37.8620262145996
-35.5731353759766
-37.3851737976074
-30.4231376647949
-17.1666603088379
-16.2129573822021
-23.6518440246582
-18.5972156524658
-12.9703664779663
-15.4499950408936
-22.6027698516846
-45.7777633666992
-69.9064559936523
-83.5444183349609
-106.337928771973
-125.411994934082
-114.062927246094
-105.479598999023
-121.883293151855
-109.103668212891
-56.6499824523926
-30.8999900817871
-33.5703582763672
-5.7222204208374
130.848098754883
337.706359863281
471.987823486328
557.821105957031
686.666442871094
835.634887695313
936.536743164063
1075.20520019531
1257.83935546875
1222.26623535156
1032.28857421875
880.1728515625
688.955322265625
487.914672851563
262.745300292969
-59.701831817627
-324.259155273438
-439.561889648438
-510.422058105469
-586.622985839844
-649.948852539063
-689.146057128906
-690.099792480469
-665.684997558594
-640.411804199219
-615.997009277344
-597.209045410156
-592.154418945313
-596.732238769531
-599.784057617188
-590.056274414063
-568.311828613281
-539.986877441406
-496.307250976563
-440.420227050781
-403.225799560547
-392.830444335938
-390.255432128906
-378.906372070313
-362.216552734375
-357.543395996094
-355.826751708984
-333.3193359375
-290.402679443359
-255.401763916016
-239.093444824219
-219.351776123047
-203.806411743164
-199.705490112305
-193.792526245117
-194.841598510742
-187.87956237793
-158.791610717773
-128.36848449707
-103.190704345703
-77.0592346191406
-59.8925743103027
-60.1786842346191
-62.3722038269043
-57.6036834716797
-47.1129493713379
-36.3360977172852
-33.0935096740723
-26.4175834655762
-8.67870044708252
6.00833129882813
10.204626083374
18.8833274841309
35.382396697998
44.3472061157227
44.1564674377441
47.017578125
56.8407211303711
70.6694183349609
83.6397857666016
95.5610809326172
103.476821899414
107.196258544922
115.684219360352
120.262001037598
118.068481445313
117.019409179688
119.403663635254
120.166625976563
115.302742004395
126.365699768066
145.821243286133
149.922180175781
150.589767456055
154.690689086914
157.456436157227
162.224945068359
162.701797485352
153.546249389648
148.777725219727
148.586990356445
145.344390869141
148.968475341797
157.647171020508
153.260131835938
139.336059570313
134.949035644531
133.518478393555
128.273101806641
127.700881958008
129.512924194336
131.801803588867
139.049957275391
149.063842773438
159.173095703125
164.323089599609
162.797164916992
165.372161865234
160.031433105469
142.960144042969
130.37126159668
123.123107910156
130.561996459961
145.916625976563
148.300872802734
142.101806640625
141.052734375
144.486068725586
135.998107910156
120.643478393555
117.686996459961
118.354591369629
110.534225463867
111.201812744141
124.649032592773
132.087921142578
132.946258544922
136.951812744141
133.518478393555
123.313850402832
120.166625976563
113.490707397461
107.482376098633
121.024963378906
135.235137939453
140.861999511719
148.300872802734
151.161987304688
148.300872802734
145.535140991211
145.630508422852
146.870330810547
140.671249389648
133.518478393555
132.946258544922
132.755508422852
131.038848876953
119.59440612793
108.245338439941
112.823112487793
104.716636657715
73.0536804199219
50.6416511535645
46.2546157836914
34.7148017883301
17.738883972168
16.30832862854
21.1722145080566
17.357400894165
9.63240432739258
6.38981294631958
0.667592406272888
-7.91573810577393
-6.19907188415527
-11.4444408416748
-28.2296199798584
-30.995361328125
-25.4638805389404
-25.4638805389404
-26.4175834655762
-25.6546211242676
-31.4722118377686
-39.5786895751953
-41.7722091674805
-50.5462799072266
-63.7073860168457
-72.0046081542969
-77.2499771118164
-73.1490478515625
-68.5712738037109
-68.5712738037109
-67.9990539550781
-70.0971984863281
-68.3805313110352
-75.1518249511719
-94.5120086669922
-99.7573776245117
-87.5499725341797
-80.2064590454102
-84.1166381835938
-84.4027481079102
-81.0647888183594
-82.7814559936523
-81.0647888183594
-78.8712692260742
-93.0814514160156
-109.771263122559
-111.1064453125
-108.149963378906
-104.812004089355
-97.2777481079102
-91.269416809082
-88.4083023071289
-88.3129348754883
-103.286079406738
-120.929588317871
-121.024963378906
-119.59440612793
-125.507369995117
-130.37126159668
-129.417556762695
-124.553665161133
-121.597183227539
-119.59440612793
-110.438850402832
-98.9944152832031
-100.997192382813
-105.002746582031
-96.6101531982422
-88.8851547241211
-89.9342269897461
-91.6508941650391
-83.2583084106445
-81.0647888183594
-96.800895690918
-103.286079406738
-99.1851501464844
-100.329597473145
-94.416633605957
-77.8221969604492
-74.4842376708984
-82.876823425293
-85.2610855102539
-94.03515625
-98.5175628662109
-84.0212707519531
-79.2527542114258
-87.9314498901367
-87.5499725341797
-79.9203414916992
-74.3888626098633
-78.012939453125
-84.6888580322266
-77.5360870361328
-69.2388687133789
-61.7999801635742
-51.5953521728516
-56.4592399597168
-58.7481307983398
-52.2629470825195
-49.9740562438965
-40.1509132385254
-24.7962875366211
-14.2101802825928
-14.1148099899292
-23.2703628540039
-26.5129547119141
-22.3166599273682
-25.5592517852783
-32.4259147644043
-32.3305435180664
-31.1861019134521
-24.9870281219482
-16.6898097991943
-21.5536975860596
-22.0305480957031
-5.34073925018311
10.204626083374
12.2074031829834
5.91296100616455
5.05462789535522
6.00833129882813
3.5287024974823
4.95925760269165
7.24814605712891
11.2537002563477
16.022216796875
16.6898097991943
22.3166599273682
29.4694347381592
28.6111011505127
28.4203605651855
26.7990646362305
21.3629570007324
21.0768451690674
20.1231422424316
15.1638841629028
9.82314491271973
12.6842555999756
21.3629570007324
17.4527721405029
11.5398111343384
17.1666603088379
22.0305480957031
21.5536975860596
17.738883972168
17.357400894165
21.2675857543945
24.3194370269775
24.891658782959
22.125919342041
19.074068069458
18.6925868988037
18.0249938964844
18.4064750671387
23.9379558563232
26.7990646362305
30.995361328125
43.679615020752
49.4972076416016
46.5407257080078
40.4370231628418
35.8592491149902
32.5212860107422
24.3194370269775
24.5101776123047
34.2379531860352
38.3388748168945
45.3962821960449
53.8842430114746
47.3990592956543
36.431468963623
35.8592491149902
35.1916542053223
23.2703628540039
15.8314762115479
19.1694374084473
19.8370304107666
15.9268465042114
9.9185152053833
5.05462789535522
2.28888821601868
1.71666610240936
1.81203651428223
-1.9074068069458
1.62129580974579
14.5916624069214
23.3657341003418
26.7036952972412
25.7499923706055
23.9379558563232
23.5564746856689
21.839807510376
26.0361022949219
30.5185089111328
20.0277709960938
14.687032699585
26.7036952972412
32.04443359375
28.5157318115234
30.4231376647949
30.70924949646
24.7962875366211
24.9870281219482
34.6194343566895
40.0555419921875
31.6629524230957
24.6055469512939
38.0527648925781
51.404613494873
45.300910949707
41.0092468261719
50.6416511535645
53.3120193481445
43.8703575134277
43.4888763427734
60.8462753295898
63.039794921875
37.099063873291
30.1370277404785
36.9083213806152
28.9925842285156
31.6629524230957
43.4888763427734
46.0638732910156
44.8240585327148
46.2546157836914
42.630542755127
29.7555465698242
21.6490669250488
15.7361059188843
10.7768487930298
4.86388731002808
-0.667592406272888
10.4907369613647
16.022216796875
9.44166374206543
13.5425882339478
14.4009208679199
1.33518481254578
-9.537034034729
-7.15277528762817
0.572222054004669
-0.0953703373670578
-7.82036781311035
-2.76573991775513
10.9675893783569
13.7333288192749
11.9212923049927
9.82314491271973
9.44166374206543
11.2537002563477
0.667592406272888
-6.96203470230103
-1.23981440067291
-1.33518481254578
-0.286111027002335
0.190740674734116
-10.204626083374
-12.0166625976563
-15.1638841629028
-31.6629524230957
-53.5027618408203
-93.1768188476563
-124.93514251709
-120.73885345459
-111.487930297852
-106.528671264648
-76.5823822021484
-39.197208404541
-28.6111011505127
-32.6166572570801
18.1203651428223
183.969390869141
375.854522705078
498.977630615234
595.873901367188
729.678466796875
874.641357421875
965.910827636719
1118.78942871094
1297.70422363281
1232.08947753906
1029.80895996094
861.861755371094
674.268310546875
475.707244873047
218.493453979492
-101.569412231445
-343.428588867188
-474.181335449219
-576.036865234375
-673.791442871094
-727.484924316406
-733.207153320313
-720.23681640625
-700.78125
-672.456237792969
-645.0849609375
-637.550720214844
-638.027587890625
-629.253479003906
-620.384033203125
-611.896118164063
-591.391479492188
-558.774841308594
-527.111877441406
-499.931335449219
-471.034118652344
-449.861907958984
-434.411895751953
-418.580413818359
-411.618377685547
-393.021179199219
-361.358215332031
-337.229522705078
-297.364715576172
-251.396209716797
-233.085113525391
-224.31103515625
-208.193450927734
-198.179565429688
-195.699935913086
-184.732345581055
-163.369384765625
-140.099029541016
-120.643478393555
-105.574966430664
-83.925895690918
-59.6064605712891
-43.4888763427734
-31.0907306671143
-17.357400894165
-11.2537002563477
-15.5453653335571
-9.82314491271973
1.43055510520935
7.0574049949646
12.8749961853027
21.7444381713867
29.3740653991699
25.177770614624
31.5675830841064
50.7370223999023
54.9333152770996
57.5083160400391
65.0425720214844
72.8629379272461
83.0675659179688
86.4055252075195
88.5036773681641
95.9425582885742
104.716636657715
114.539779663086
123.599960327148
129.322174072266
127.605514526367
121.311073303223
133.327728271484
157.837905883789
166.230499267578
162.701797485352
152.592544555664
143.055511474609
153.069396972656
168.519393920898
172.620315551758
179.200866699219
183.301788330078
174.718460083008
168.519393920898
167.661056518555
159.459213256836
150.303649902344
152.115692138672
155.262908935547
156.693466186523
158.982360839844
151.63883972168
147.633285522461
157.742538452148
157.933288574219
140.480514526367
131.229583740234
134.281433105469
137.619400024414
142.578659057617
140.289764404297
131.515701293945
134.472183227539
137.905517578125
136.093475341797
140.099029541016
144.867553710938
148.491622924805
146.298095703125
131.801803588867
124.553665161133
127.224029541016
123.409217834473
124.267555236816
132.46940612793
141.338836669922
147.34716796875
142.387924194336
134.949035644531
136.093475341797
136.284210205078
127.891624450684
125.507369995117
134.66291809082
139.049957275391
133.995330810547
135.521255493164
152.401809692383
164.990692138672
160.985137939453
150.303649902344
138.668472290039
136.856430053711
143.055511474609
137.237915039063
128.273101806641
130.46662902832
127.891624450684
118.640701293945
110.248115539551
97.9453353881836
81.827751159668
68.9527587890625
60.274055480957
50.7370223999023
46.5407257080078
45.5870208740234
36.7175827026367
32.2351760864258
33.6657295227051
18.3111057281494
0.858333051204681
-0.190740674734116
-3.62407302856445
-11.1583299636841
-13.0657367706299
-19.2648086547852
-35.6685066223145
-51.5953521728516
-57.4129447937012
-61.0370178222656
-65.3286819458008
-65.2333145141602
-68.3805313110352
-70.7647933959961
-79.3481216430664
-89.0758972167969
-73.4351654052734
-63.8027572631836
-69.4296035766602
-63.5166473388672
-69.5249786376953
-88.0268249511719
-98.8036727905273
-107.005523681641
-103.572189331055
-91.1740417480469
-88.4083023071289
-96.0379333496094
-104.525894165039
-105.193481445313
-101.474044799805
-103.381446838379
-111.011077880859
-116.828666687012
-114.34903717041
-118.640701293945
-133.613845825195
-138.096252441406
-136.188842773438
-135.139770507813
-132.946258544922
-139.049957275391
-144.295318603516
-135.235137939453
-126.556442260742
-126.461067199707
-130.180511474609
-139.812911987305
-144.581436157227
-143.723098754883
-147.34716796875
-142.101806640625
-130.943481445313
-135.998107910156
-144.676803588867
-144.295318603516
-144.199951171875
-138.76383972168
-127.128662109375
-117.400886535645
-107.482376098633
-105.384223937988
-105.76570892334
-95.4657135009766
-82.3046035766602
-78.6805267333984
-88.5036773681641
-93.6536712646484
-89.1712646484375
-94.7981185913086
-101.950889587402
-91.5555267333984
-71.9092330932617
-64.5657196044922
-68.8573837280273
-62.9444236755371
-49.8786888122559
-50.7370223999023
-52.1675758361816
-40.913875579834
-33.761100769043
-35.9546165466309
-37.8620262145996
-34.3333206176758
-40.2462844848633
-56.0777587890625
-56.1731300354004
-44.251838684082
-30.3277683258057
-19.2648086547852
-20.7907333374023
-17.738883972168
-8.0111083984375
-15.6407356262207
-23.0796222686768
-15.9268465042114
-13.1611070632935
-10.3953666687012
3.05185079574585
12.588885307312
7.82036781311035
9.9185152053833
17.2620315551758
14.4962921142578
15.5453653335571
14.0194396972656
2.47962880134583
-0.0953703373670578
4.00555419921875
5.1499981880188
15.6407356262207
24.3194370269775
9.34629344940186
-3.05185079574585
2.09814739227295
3.91018390655518
6.58055353164673
17.0712909698486
18.5018463134766
17.5481433868408
28.6111011505127
35.2870254516602
27.0851764678955
23.3657341003418
33.761100769043
37.2898025512695
29.278694152832
23.2703628540039
24.6055469512939
28.9925842285156
28.2296199798584
25.5592517852783
20.7907333374023
10.1092557907104
-1.81203651428223
-2.5749990940094
17.5481433868408
31.8536930084229
24.7962875366211
18.8833274841309
17.738883972168
17.9296245574951
22.4120292663574
28.8972129821777
35.4777679443359
32.9981384277344
29.0879535675049
37.8620262145996
47.6851692199707
50.355541229248
45.4916534423828
39.4833221435547
41.1046180725098
48.2573928833008
60.4647941589355
65.3286819458008
61.0370178222656
62.4675712585449
58.7481307983398
43.8703575134277
31.4722118377686
23.7472152709961
23.7472152709961
26.6083240509033
23.0796222686768
16.9759197235107
10.8722190856934
7.6296272277832
8.96481227874756
13.7333288192749
14.7824029922485
12.2074031829834
15.5453653335571
20.5999927520752
22.6027698516846
28.8972129821777
37.2898025512695
39.5786895751953
38.8157272338867
37.2898025512695
35.9546165466309
36.3360977172852
38.8157272338867
45.9685020446777
50.9277610778809
53.5027618408203
55.887020111084
50.6416511535645
49.4018363952637
58.3666496276855
51.8814659118652
30.1370277404785
25.8453617095947
30.2323970794678
25.8453617095947
25.177770614624
29.7555465698242
37.1944313049316
39.5786895751953
33.5703582763672
28.8972129821777
27.1805477142334
27.3712882995605
23.5564746856689
25.7499923706055
37.9573936462402
26.8944358825684
-1.04907369613647
-8.10647869110107
0.47685170173645
-0.667592406272888
-12.1120328903198
-21.7444381713867
-24.2240657806396
-24.6055469512939
-29.278694152832
-22.6027698516846
-5.7222204208374
-0.381481349468231
3.05185079574585
8.29721927642822
6.38981294631958
15.4499950408936
36.1453590393066
40.913875579834
30.2323970794678
25.8453617095947
31.8536930084229
41.1999855041504
35.382396697998
17.5481433868408
14.3055505752563
19.360179901123
16.022216796875
12.4935140609741
7.53425693511963
-2.28888821601868
-3.05185079574585
-0.190740674734116
-1.81203651428223
0.286111027002335
10.3953666687012
27.0851764678955
34.7148017883301
25.2731399536133
19.074068069458
24.7009181976318
21.2675857543945
21.4583263397217
36.3360977172852
31.1861019134521
7.72499752044678
-4.29166507720947
-11.1583299636841
-14.1148099899292
-6.00833129882813
-6.19907188415527
-15.4499950408936
-14.0194396972656
-13.3518476486206
-25.9407329559326
-35.382396697998
-39.9601707458496
-44.251838684082
-39.9601707458496
-38.6249885559082
-39.197208404541
-36.2407302856445
-40.4370231628418
-41.3907279968262
-36.6222114562988
-32.8073959350586
-21.4583263397217
-12.0166625976563
-11.7305517196655
-10.204626083374
-6.00833129882813
-3.33796191215515
0.381481349468231
14.2101802825928
24.6055469512939
19.2648086547852
8.20184898376465
2.47962880134583
8.77407169342041
11.7305517196655
3.147221326828
-5.91296100616455
-9.72777462005615
-12.1120328903198
-20.0277709960938
-25.6546211242676
-32.04443359375
-49.4972076416016
-63.8027572631836
-74.5796051025391
-101.760154724121
-129.036071777344
-128.177734375
-119.403663635254
-110.534225463867
-69.0481262207031
-24.9870281219482
-28.8972129821777
-35.5731353759766
31.3768424987793
195.795303344727
388.7294921875
515.858154296875
604.457214355469
738.547912597656
877.883972167969
955.420043945313
1114.30700683594
1314.01257324219
1242.19873046875
1005.68023681641
840.880310058594
673.982177734375
452.818359375
185.018463134766
-104.430519104004
-339.423034667969
-490.108184814453
-599.116455078125
-687.620178222656
-737.784973144531
-756.954406738281
-748.561767578125
-716.898864746094
-685.998840332031
-658.150695800781
-635.357177734375
-629.253479003906
-629.348876953125
-620.288696289063
-604.457214355469
-578.89794921875
-536.744262695313
-501.361877441406
-484.385955810547
-466.933197021484
-448.812805175781
-440.801696777344
-434.697998046875
-417.054504394531
-396.263763427734
-384.437835693359
-356.494323730469
-306.710998535156
-270.470275878906
-247.581405639648
-228.60270690918
-212.771224975586
-195.413833618164
-188.165679931641
-179.773086547852
-157.551803588867
-137.714767456055
-120.357368469238
-100.711082458496
-78.394416809082
-53.0259094238281
-34.7148017883301
-23.0796222686768
-19.8370304107666
-22.3166599273682
-16.2129573822021
0.0953703373670578
21.7444381713867
36.9083213806152
42.0583190917969
46.4453544616699
61.323127746582
86.3101577758789
97.7546005249023
94.5120086669922
92.4138565063477
99.0897827148438
105.288856506348
103.381446838379
111.487930297852
127.033294677734
136.66569519043
142.483291625977
139.812911987305
129.417556762695
122.074035644531
121.69255065918
118.068481445313
111.583297729492
111.487930297852
112.727745056152
112.632369995117
119.117553710938
127.319404602051
131.324951171875
139.240692138672
146.870330810547
151.924957275391
160.317535400391
158.791610717773
152.497177124023
159.077728271484
166.325866699219
164.799942016602
169.091613769531
174.050872802734
169.473098754883
168.137908935547
164.990692138672
163.274017333984
172.620315551758
169.854568481445
161.271240234375
169.663833618164
172.429580688477
157.265686035156
146.965698242188
144.199951171875
139.812911987305
134.090698242188
132.374038696289
133.041625976563
126.937919616699
117.210144042969
118.831443786621
121.69255065918
115.970336914063
117.305519104004
116.542556762695
109.199035644531
110.534225463867
112.727745056152
112.346260070801
122.741630554199
142.960144042969
146.202728271484
124.076812744141
111.487930297852
120.357368469238
132.660140991211
143.341613769531
147.824020385742
146.393478393555
141.720321655273
135.998107910156
147.919403076172
169.186981201172
166.61198425293
158.219390869141
165.562911987305
164.418472290039
157.170318603516
155.453659057617
147.919403076172
136.951812744141
135.044403076172
138.191619873047
131.897186279297
119.308296203613
111.392555236816
103.953666687012
83.6397857666016
63.1351661682129
71.4323883056641
87.5499725341797
77.7268295288086
57.8897972106934
43.2027626037598
34.4286918640137
30.2323970794678
14.8777732849121
-10.6814785003662
-20.0277709960938
-20.409252166748
-30.70924949646
-35.382396697998
-29.4694347381592
-24.891658782959
-23.6518440246582
-26.4175834655762
-34.4286918640137
-42.9166526794434
-49.783317565918
-53.8842430114746
-53.2166481018066
-49.8786888122559
-51.9768333435059
-61.323127746582
-76.0101623535156
-88.3129348754883
-93.2721939086914
-101.37866973877
-105.956443786621
-103.286079406738
-100.424964904785
-99.948112487793
-111.678665161133
-125.888847351074
-121.69255065918
-117.49626159668
-136.951812744141
-156.02587890625
-154.023101806641
-153.641616821289
-156.311981201172
-151.73420715332
-151.63883972168
-150.303649902344
-145.344390869141
-143.055511474609
-140.957366943359
-133.804580688477
-116.065704345703
-106.147186279297
-115.49348449707
-121.215698242188
-121.024963378906
-123.409217834473
-123.313850402832
-123.409217834473
-129.703659057617
-130.848098754883
-124.267555236816
-121.120330810547
-116.733299255371
-118.640701293945
-132.755508422852
-136.570327758789
-125.507369995117
-111.869407653809
-95.084228515625
-81.0647888183594
-77.2499771118164
-79.3481216430664
-80.3018264770508
-74.6749725341797
-69.7157211303711
-68.8573837280273
-66.1870193481445
-64.9472045898438
-70.4786834716797
-76.6777496337891
-69.9064559936523
-62.3722038269043
-79.5388641357422
-98.0407104492188
-91.5555267333984
-82.2092361450195
-76.8684921264648
-68.4759063720703
-63.4212760925293
-60.3694267272949
-59.2249794006348
-57.8897972106934
-62.0860900878906
-67.903678894043
-59.8925743103027
-45.4916534423828
-33.0935096740723
-28.6111011505127
-32.2351760864258
-33.5703582763672
-36.1453590393066
-34.4286918640137
-29.7555465698242
-32.8073959350586
-26.0361022949219
-22.0305480957031
-28.8018417358398
-22.5074005126953
-18.2157344818115
-20.3138828277588
-11.3490705490112
-2.8611102104187
-0.0953703373670578
-1.43055510520935
-12.0166625976563
-18.3111057281494
-16.5944385528564
-13.8286991119385
-3.147221326828
1.9074068069458
2.8611102104187
8.10647869110107
8.48795986175537
18.3111057281494
25.9407329559326
17.9296245574951
20.3138828277588
28.0388793945313
30.6138782501221
33.0935096740723
34.9055442810059
36.1453590393066
31.4722118377686
27.4666576385498
29.1833248138428
28.9925842285156
28.6111011505127
28.3249912261963
28.2296199798584
24.5101776123047
24.1286964416504
34.5240631103516
39.1018409729004
39.6740608215332
36.2407302856445
22.9842510223389
16.8805503845215
16.022216796875
11.7305517196655
12.3981437683105
17.9296245574951
13.4472179412842
2.95648050308228
7.91573810577393
24.3194370269775
29.1833248138428
20.3138828277588
10.4907369613647
4.95925760269165
9.34629344940186
14.2101802825928
4.95925760269165
4.1962947845459
21.9351787567139
28.7064723968506
30.8999900817871
34.9055442810059
31.2814712524414
29.4694347381592
20.9814739227295
10.1092557907104
12.7796258926392
15.9268465042114
18.787956237793
27.5620288848877
26.7036952972412
23.0796222686768
33.761100769043
37.099063873291
30.5185089111328
35.7638778686523
47.5897979736328
56.7453536987305
64.756462097168
67.8083114624023
55.0286865234375
38.4342460632324
43.9657249450684
57.6036834716797
59.3203506469727
64.756462097168
71.7184982299805
58.8434982299805
43.2981338500977
46.2546157836914
50.9277610778809
50.355541229248
56.2685012817383
61.99072265625
63.039794921875
60.4647941589355
48.6388740539551
44.8240585327148
46.9222068786621
33.5703582763672
20.7907333374023
21.2675857543945
25.7499923706055
30.1370277404785
35.8592491149902
44.7286911010742
38.6249885559082
14.5916624069214
10.3953666687012
25.4638805389404
30.70924949646
30.8999900817871
28.4203605651855
19.7416610717773
22.5074005126953
30.2323970794678
26.8944358825684
27.657398223877
32.9027671813965
34.3333206176758
36.1453590393066
36.431468963623
28.8972129821777
11.4444408416748
-3.147221326828
-9.82314491271973
-11.1583299636841
-5.34073925018311
-8.29721927642822
-19.6462898254395
-22.0305480957031
-21.7444381713867
-15.8314762115479
-4.00555419921875
1.43055510520935
2.00277709960938
-2.38425850868225
-5.91296100616455
1.14444410800934
3.8148136138916
-0.667592406272888
2.8611102104187
6.1037015914917
0.47685170173645
-4.95925760269165
-12.588885307312
-18.4064750671387
-15.7361059188843
-7.0574049949646
-3.43333220481873
-4.29166507720947
-0.572222054004669
-5.62685012817383
-9.06018257141113
-4.1962947845459
-9.44166374206543
-11.5398111343384
-7.15277528762817
-5.7222204208374
-1.04907369613647
-0.190740674734116
-6.29444265365601
-11.2537002563477
-10.8722190856934
-8.10647869110107
-1.9074068069458
6.96203470230103
3.8148136138916
-4.7685170173645
-0.47685170173645
11.9212923049927
33.6657295227051
53.0259094238281
51.404613494873
44.9194297790527
42.8212814331055
33.0935096740723
19.360179901123
14.8777732849121
10.6814785003662
2.5749990940094
4.7685170173645
1.33518481254578
-16.30832862854
-15.9268465042114
4.7685170173645
12.1120328903198
9.34629344940186
8.10647869110107
3.43333220481873
1.81203651428223
-1.62129580974579
-13.0657367706299
-22.6027698516846
-25.177770614624
-22.7935104370117
-19.7416610717773
-19.5509204864502
-23.2703628540039
-25.177770614624
-18.4064750671387
-8.67870044708252
-8.96481227874756
-18.9786968231201
-22.7935104370117
-20.5999927520752
-19.360179901123
-25.7499923706055
-40.1509132385254
-39.5786895751953
-27.943510055542
-25.4638805389404
-25.5592517852783
-21.2675857543945
-16.4990692138672
-20.8861045837402
-36.8129501342773
-46.8268356323242
-41.2953567504883
-41.2953567504883
-50.5462799072266
-53.5027618408203
-58.8434982299805
-78.012939453125
-109.866630554199
-140.861999511719
-149.922180175781
-147.53791809082
-146.393478393555
-128.273101806641
-80.8740463256836
-46.5407257080078
-61.4184989929199
-67.2360916137695
11.1583299636841
180.631423950195
362.598022460938
488.582244873047
590.819274902344
726.435852050781
861.194152832031
940.923767089844
1109.92004394531
1307.33666992188
1222.26623535156
1000.244140625
850.608032226563
687.810913085938
495.6396484375
246.723068237305
-48.3527641296387
-284.966583251953
-439.180419921875
-557.91650390625
-654.526672363281
-702.688659667969
-707.36181640625
-687.620178222656
-655.194213867188
-626.583129882813
-606.078491210938
-595.301635742188
-597.590576171875
-603.026672363281
-603.980346679688
-594.347961425781
-558.965576171875
-511.089660644531
-483.241516113281
-463.213745117188
-443.472076416016
-430.692443847656
-416.768371582031
-410.950805664063
-396.931365966797
-368.415618896484
-345.431365966797
-312.0517578125
-272.282318115234
-236.518447875977
-209.910110473633
-205.1416015625
-194.841598510742
-173.764755249023
-171.857345581055
-174.909210205078
-160.031433105469
-140.194396972656
-126.842552185059
-108.626815795898
-84.9749755859375
-68.8573837280273
-59.5110931396484
-51.4999847412109
-43.8703575134277
-40.8185043334961
-42.630542755127
-33.3796195983887
-18.3111057281494
-14.4009208679199
-12.1120328903198
2.28888821601868
22.2212886810303
32.8073959350586
42.4398002624512
65.9009017944336
89.0758972167969
101.187927246094
108.436073303223
116.924034118652
131.801803588867
142.006439208984
140.957366943359
146.202728271484
155.549026489258
151.257354736328
145.821243286133
146.298095703125
138.477737426758
139.622177124023
155.262908935547
158.886993408203
158.791610717773
165.181427001953
169.568466186523
168.519393920898
160.794387817383
155.358276367188
162.3203125
168.233276367188
159.745315551758
148.396255493164
143.913848876953
141.338836669922
136.76106262207
135.998107910156
140.099029541016
142.387924194336
137.237915039063
129.322174072266
130.37126159668
131.801803588867
128.559219360352
129.512924194336
137.142547607422
154.309204101563
159.268463134766
142.864776611328
129.322174072266
117.210144042969
104.049041748047
103.858299255371
111.964782714844
123.409217834473
135.139770507813
134.853652954102
121.215698242188
111.392555236816
117.782371520996
128.082366943359
131.515701293945
136.856430053711
139.049957275391
126.174957275391
119.403663635254
129.036071777344
138.573104858398
142.101806640625
138.668472290039
132.850875854492
131.038848876953
127.986999511719
125.602737426758
129.512924194336
134.472183227539
145.153656005859
158.505508422852
158.028656005859
150.589767456055
148.396255493164
148.300872802734
145.2490234375
143.436996459961
152.974029541016
162.224945068359
151.829574584961
137.047180175781
130.943481445313
118.545333862305
106.147186279297
96.3240432739258
77.1546020507813
60.0833129882813
55.3147964477539
53.3120193481445
52.3583183288574
55.7916488647461
52.2629470825195
38.6249885559082
27.5620288848877
21.3629570007324
23.8425846099854
27.657398223877
6.1037015914917
-22.125919342041
-29.8509159088135
-35.2870254516602
-39.3879508972168
-34.7148017883301
-31.1861019134521
-34.0472106933594
-48.5435028076172
-61.5138702392578
-63.3259048461914
-71.9092330932617
-85.2610855102539
-82.1138610839844
-72.7675704956055
-78.9666442871094
-85.2610855102539
-89.9342269897461
-104.335151672363
-113.490707397461
-110.534225463867
-97.2777481079102
-84.3073806762695
-87.7407150268555
-98.1360778808594
-103.476821899414
-101.664779663086
-96.8962631225586
-110.629592895508
-132.087921142578
-132.087921142578
-129.703659057617
-133.995330810547
-128.36848449707
-123.504592895508
-125.316627502441
-122.93236541748
-115.874961853027
-117.782371520996
-116.256446838379
-104.430519104004
-104.144409179688
-102.141632080078
-98.4221878051758
-106.147186279297
-104.812004089355
-104.144409179688
-105.956443786621
-100.901817321777
-101.474044799805
-101.950889587402
-96.5147857666016
-90.8879318237305
-89.3620071411133
-90.7925643920898
-89.9342269897461
-88.5990447998047
-87.1684875488281
-83.7351608276367
-83.7351608276367
-94.2258987426758
-108.340705871582
-111.201812744141
-102.61848449707
-95.6564483642578
-99.2805252075195
-108.149963378906
-112.632369995117
-112.727745056152
-106.910148620605
-91.0786743164063
-83.8305282592773
-90.6971969604492
-93.8444137573242
-100.711082458496
-103.476821899414
-91.8416366577148
-89.2666397094727
-86.2147903442383
-67.4268264770508
-52.0722045898438
-47.017578125
-45.0148010253906
-43.4888763427734
-43.3935050964355
-36.431468963623
-32.6166572570801
-41.5814666748047
-40.4370231628418
-25.2731399536133
-14.8777732849121
-17.357400894165
-23.9379558563232
-21.9351787567139
-15.1638841629028
-12.6842555999756
-15.4499950408936
-14.687032699585
-10.204626083374
-13.4472179412842
-11.7305517196655
-2.67036962509155
0
0.762962698936462
-1.43055510520935
-10.3953666687012
-11.1583299636841
-10.3953666687012
-17.738883972168
-13.5425882339478
-6.00833129882813
-8.29721927642822
-12.302773475647
-15.4499950408936
-14.0194396972656
-11.3490705490112
-4.48240613937378
6.77129411697388
7.6296272277832
5.62685012817383
12.302773475647
18.8833274841309
22.3166599273682
22.9842510223389
17.0712909698486
11.1583299636841
10.4907369613647
9.06018257141113
15.0685138702393
20.8861045837402
12.8749961853027
7.34351634979248
4.67314672470093
5.24536848068237
15.6407356262207
17.2620315551758
11.5398111343384
10.204626083374
8.20184898376465
6.77129411697388
19.074068069458
33.2842483520508
31.8536930084229
39.9601707458496
55.0286865234375
47.7805404663086
39.9601707458496
48.3527641296387
55.1240577697754
51.1185035705566
40.6277656555176
40.6277656555176
49.1157264709473
47.5897979736328
46.9222068786621
51.0231323242188
48.3527641296387
53.0259094238281
58.652759552002
52.1675758361816
53.121280670166
64.1842422485352
64.2796096801758
54.170352935791
54.6472053527832
61.2277565002441
59.6064605712891
59.8925743103027
68.2851638793945
71.5277557373047
65.137939453125
51.6907234191895
30.8046188354492
22.125919342041
26.8944358825684
22.7935104370117
20.6953639984131
28.0388793945313
26.7990646362305
24.0333251953125
30.2323970794678
35.0009155273438
33.6657295227051
29.0879535675049
31.9490642547607
37.099063873291
36.0499877929688
39.5786895751953
42.1536903381348
43.2981338500977
48.734245300293
45.4916534423828
43.0120239257813
48.3527641296387
45.8731346130371
37.099063873291
31.1861019134521
25.8453617095947
27.4666576385498
43.0120239257813
52.0722045898438
43.0120239257813
38.4342460632324
43.5842437744141
31.5675830841064
12.4935140609741
12.0166625976563
6.00833129882813
-10.7768487930298
-16.4036979675293
-4.86388731002808
13.256477355957
11.635181427002
0.286111027002335
10.0138854980469
25.9407329559326
30.6138782501221
38.6249885559082
50.355541229248
44.5379486083984
26.226842880249
17.357400894165
15.7361059188843
17.4527721405029
18.5972156524658
12.1120328903198
9.06018257141113
8.29721927642822
2.76573991775513
-0.858333051204681
-1.23981440067291
0.0953703373670578
0.0953703373670578
1.71666610240936
5.05462789535522
2.28888821601868
-3.43333220481873
-14.5916624069214
-27.8481388092041
-28.9925842285156
-20.0277709960938
-16.4036979675293
-19.360179901123
-14.8777732849121
-10.7768487930298
-18.787956237793
-28.8972129821777
-22.3166599273682
-8.67870044708252
-15.1638841629028
-22.6981410980225
-24.9870281219482
-33.3796195983887
-33.761100769043
-27.943510055542
-24.0333251953125
-22.9842510223389
-21.4583263397217
-16.7851791381836
-12.302773475647
-14.7824029922485
-29.7555465698242
-40.8185043334961
-31.3768424987793
-22.125919342041
-24.0333251953125
-14.3055505752563
-0.381481349468231
-10.4907369613647
-34.7148017883301
-54.8379440307617
-75.6286773681641
-91.8416366577148
-90.4110794067383
-83.925895690918
-83.1629333496094
-65.2333145141602
-37.1944313049316
-26.7990646362305
-22.8888816833496
48.4481315612793
233.848068237305
406.373016357422
494.113739013672
591.582214355469
733.970153808594
863.196960449219
978.213562011719
1164.56726074219
1251.544921875
1102.099609375
939.970092773438
788.331237792969
584.429443359375
394.260986328125
129.131439208984
-192.552719116211
-399.792449951172
-502.22021484375
-585.7646484375
-659.295166015625
-712.416442871094
-726.435852050781
-709.74609375
-682.374755859375
-640.507202148438
-603.217407226563
-586.050720214844
-583.189636230469
-590.628540039063
-593.680358886719
-577.467407226563
-542.37109375
-496.116516113281
-449.289672851563
-413.144317626953
-394.070251464844
-387.585052490234
-382.053588867188
-375.186920166016
-363.074890136719
-341.235076904297
-323.210083007813
-299.081390380859
-258.835113525391
-231.273071289063
-222.212890625
-208.956420898438
-191.503646850586
-181.108276367188
-180.345306396484
-179.963836669922
-163.274017333984
-134.66291809082
-107.196258544922
-88.4083023071289
-85.6425628662109
-74.2934951782227
-49.783317565918
-45.9685020446777
-49.4972076416016
-45.2055397033691
-40.913875579834
-27.7527694702148
-9.44166374206543
9.44166374206543
25.9407329559326
31.8536930084229
34.0472106933594
34.2379531860352
35.4777679443359
47.3036880493164
61.7046089172363
75.4379425048828
78.012939453125
65.9009017944336
65.6147918701172
80.5879364013672
94.03515625
96.9916381835938
92.8907089233398
98.1360778808594
106.051818847656
97.4684906005859
90.3157119750977
90.5064544677734
87.2638626098633
98.899040222168
118.354591369629
127.510147094727
142.960144042969
150.112915039063
134.090698242188
129.703659057617
142.960144042969
144.104583740234
141.052734375
148.968475341797
148.014770507813
140.861999511719
149.159210205078
164.132354736328
168.137908935547
163.655502319336
160.22216796875
157.456436157227
158.410140991211
164.704574584961
167.374938964844
166.325866699219
165.086059570313
162.224945068359
152.401809692383
142.197174072266
148.491622924805
149.63606262207
137.047180175781
136.188842773438
133.327728271484
127.224029541016
135.616622924805
139.145324707031
130.37126159668
124.744407653809
130.085144042969
139.240692138672
134.281433105469
124.839775085449
125.984222412109
124.076812744141
127.700881958008
144.867553710938
154.023101806641
156.121246337891
159.554580688477
161.748092651367
160.126800537109
150.399032592773
142.960144042969
144.676803588867
146.011993408203
139.240692138672
139.049957275391
150.303649902344
154.690689086914
149.922180175781
134.186065673828
120.262001037598
119.117553710938
113.395332336426
101.474044799805
96.800895690918
94.1305236816406
79.4434967041016
65.3286819458008
59.3203506469727
55.3147964477539
57.3175735473633
54.2657241821289
41.5814666748047
39.6740608215332
48.4481315612793
46.8268356323242
33.0935096740723
22.6027698516846
15.35462474823
5.43610954284668
-4.29166507720947
-16.9759197235107
-23.8425846099854
-14.687032699585
-11.2537002563477
-19.5509204864502
-24.6055469512939
-28.6111011505127
-27.4666576385498
-20.2185115814209
-26.226842880249
-33.2842483520508
-30.5185089111328
-37.5759124755859
-50.2601699829102
-56.8407211303711
-58.7481307983398
-54.3610954284668
-55.3147964477539
-69.7157211303711
-86.3101577758789
-100.424964904785
-106.814781188965
-102.52311706543
-100.138854980469
-105.574966430664
-105.86107635498
-98.1360778808594
-99.4712677001953
-106.433296203613
-106.147186279297
-103.858299255371
-111.964782714844
-125.125885009766
-129.608291625977
-128.463851928711
-116.542556762695
-107.95922088623
-114.158294677734
-112.537002563477
-111.011077880859
-113.013854980469
-96.8962631225586
-86.1194152832031
-98.8036727905273
-108.531448364258
-99.0897827148438
-83.4490509033203
-78.6805267333984
-83.5444183349609
-85.2610855102539
-82.876823425293
-80.778678894043
-84.3073806762695
-90.8879318237305
-81.827751159668
-68.7620162963867
-72.5768280029297
-76.9638671875
-74.198127746582
-75.0564575195313
-79.3481216430664
-80.111083984375
-86.8823776245117
-101.37866973877
-104.62126159668
-102.52311706543
-101.760154724121
-97.0870056152344
-97.3731155395508
-97.7546005249023
-95.6564483642578
-102.999969482422
-101.283302307129
-81.4462738037109
-69.5249786376953
-63.6120147705078
-58.8434982299805
-70.3833084106445
-82.3046035766602
-76.1055297851563
-68.7620162963867
-66.0916442871094
-58.652759552002
-56.2685012817383
-58.7481307983398
-55.6962776184082
-58.2712783813477
-68.3805313110352
-64.5657196044922
-52.2629470825195
-45.0148010253906
-36.1453590393066
-34.1425819396973
-35.4777679443359
-32.2351760864258
-35.2870254516602
-38.0527648925781
-32.7120246887207
-27.1805477142334
-24.891658782959
-26.3222141265869
-21.7444381713867
-9.63240432739258
-8.96481227874756
-14.7824029922485
-11.5398111343384
-13.6379585266113
-20.1231422424316
-16.022216796875
-14.3055505752563
-16.9759197235107
-11.0629596710205
-2.95648050308228
0.858333051204681
4.1962947845459
7.24814605712891
11.1583299636841
14.9731435775757
16.2129573822021
17.2620315551758
21.4583263397217
28.8018417358398
34.7148017883301
44.3472061157227
57.1268348693848
57.9851684570313
47.6851692199707
41.6768379211426
42.0583190917969
40.0555419921875
38.2435073852539
32.5212860107422
17.6435127258301
12.588885307312
19.6462898254395
30.8999900817871
42.4398002624512
45.5870208740234
38.7203598022461
26.1314735412598
19.074068069458
17.5481433868408
15.6407356262207
17.5481433868408
16.8805503845215
9.34629344940186
14.3055505752563
27.657398223877
32.1398048400879
31.1861019134521
27.0851764678955
21.1722145080566
17.9296245574951
28.0388793945313
40.3416519165039
33.3796195983887
26.4175834655762
26.226842880249
19.4555492401123
15.8314762115479
14.9731435775757
15.35462474823
24.9870281219482
28.8972129821777
25.9407329559326
32.3305435180664
31.5675830841064
25.9407329559326
31.8536930084229
32.9027671813965
28.8018417358398
36.1453590393066
47.017578125
47.3036880493164
45.5870208740234
45.1101722717285
41.1999855041504
34.4286918640137
21.7444381713867
22.6981410980225
35.5731353759766
36.5268402099609
39.6740608215332
45.6823921203613
40.8185043334961
35.4777679443359
35.2870254516602
37.2898025512695
38.5296173095703
33.5703582763672
28.4203605651855
27.8481388092041
34.7148017883301
53.4073905944824
61.323127746582
51.6907234191895
49.1157264709473
49.9740562438965
47.1129493713379
43.7749862670898
37.0036926269531
38.5296173095703
44.6333198547363
40.6277656555176
35.9546165466309
32.2351760864258
25.5592517852783
29.3740653991699
34.9055442810059
29.9462871551514
31.5675830841064
38.9110984802246
36.1453590393066
28.2296199798584
26.7036952972412
29.278694152832
29.6601753234863
29.7555465698242
18.8833274841309
1.43055510520935
1.23981440067291
12.1120328903198
18.5972156524658
14.0194396972656
7.24814605712891
10.2999963760376
4.00555419921875
-15.6407356262207
-19.1694374084473
-13.0657367706299
-23.1749935150146
-33.761100769043
-28.8018417358398
-21.5536975860596
-17.4527721405029
-16.6898097991943
-17.1666603088379
-11.4444408416748
-6.58055353164673
-4.67314672470093
-4.86388731002808
-14.4009208679199
-18.5972156524658
-7.91573810577393
-1.43055510520935
-9.15555286407471
-11.1583299636841
-2.28888821601868
-1.71666610240936
-3.33796191215515
-2.09814739227295
-2.38425850868225
0.667592406272888
-2.00277709960938
-4.1962947845459
1.43055510520935
-3.147221326828
-5.7222204208374
2.09814739227295
-11.4444408416748
-39.864803314209
-63.7073860168457
-98.5175628662109
-122.169403076172
-113.20458984375
-108.245338439941
-102.809226989746
-62.2768325805664
-33.0935096740723
-34.3333206176758
-15.5453653335571
74.5796051025391
268.086029052734
460.066528320313
564.2109375
650.330322265625
784.32568359375
912.884887695313
995.952453613281
1173.81811523438
1319.25793457031
1195.08569335938
991.756164550781
808.168273925781
601.691467285156
398.075805664063
104.049041748047
-222.594375610352
-418.866546630859
-531.308166503906
-638.027587890625
-721.667358398438
-765.15625
-775.36083984375
-759.529357910156
-717.184936523438
-679.704406738281
-667.020141601563
-655.003479003906
-647.564636230469
-645.943298339844
-636.024780273438
-617.046081542969
-586.432189941406
-556.581298828125
-528.160949707031
-484.86279296875
-448.431335449219
-434.602630615234
-427.449859619141
-420.487823486328
-403.511901855469
-374.710052490234
-353.728576660156
-334.749877929688
-298.413787841797
-260.170288085938
-237.472152709961
-209.52864074707
-178.724014282227
-170.236053466797
-167.756423950195
-149.063842773438
-127.891624450684
-110.343482971191
-83.925895690918
-55.4101676940918
-42.7259140014648
-42.2490615844727
-47.017578125
-46.2546157836914
-35.0009155273438
-28.7064723968506
-21.7444381713867
-6.77129411697388
3.8148136138916
11.7305517196655
20.7907333374023
28.9925842285156
33.0935096740723
32.4259147644043
39.0064697265625
49.4018363952637
62.5629425048828
88.5036773681641
106.051818847656
107.100891113281
114.062927246094
127.414772033691
130.657363891602
130.37126159668
125.793479919434
115.588851928711
126.365699768066
144.867553710938
144.486068725586
141.911071777344
139.145324707031
134.186065673828
139.812911987305
139.622177124023
136.76106262207
134.090698242188
122.169403076172
119.785148620605
117.782371520996
106.814781188965
104.430519104004
110.438850402832
129.036071777344
146.774948120117
144.199951171875
142.006439208984
146.011993408203
145.630508422852
140.671249389648
127.986999511719
123.218475341797
135.711990356445
138.668472290039
136.093475341797
150.399032592773
159.173095703125
152.306427001953
149.54069519043
147.44255065918
149.445327758789
156.311981201172
149.731430053711
142.197174072266
145.058288574219
146.298095703125
145.916625976563
143.055511474609
138.76383972168
143.055511474609
142.864776611328
138.85920715332
145.153656005859
147.156433105469
141.148101806641
135.521255493164
133.423110961914
134.56755065918
135.139770507813
134.090698242188
130.943481445313
135.425888061523
146.202728271484
148.014770507813
145.630508422852
149.63606262207
161.366607666016
170.426803588867
168.424026489258
158.982360839844
148.300872802734
143.627731323242
136.951812744141
126.07958984375
126.365699768066
134.949035644531
138.573104858398
130.752731323242
114.444404602051
98.2314529418945
76.4870147705078
64.0888671875
74.7703475952148
76.3916397094727
61.99072265625
53.8842430114746
51.2138710021973
48.2573928833008
46.4453544616699
49.0203552246094
42.5351715087891
18.5018463134766
4.86388731002808
12.2074031829834
12.588885307312
2.38425850868225
-2.09814739227295
-4.38703584671021
-8.77407169342041
-15.1638841629028
-27.0851764678955
-39.7694320678711
-55.887020111084
-75.3425674438477
-82.7814559936523
-83.6397857666016
-86.7870101928711
-86.5962677001953
-82.7814559936523
-80.778678894043
-84.7842330932617
-83.0675659179688
-80.3971939086914
-96.800895690918
-115.49348449707
-116.733299255371
-112.918479919434
-113.967559814453
-110.248115539551
-108.722190856934
-117.019409179688
-115.016632080078
-111.869407653809
-122.169403076172
-127.796257019043
-124.649032592773
-117.49626159668
-115.016632080078
-125.698104858398
-137.237915039063
-138.573104858398
-132.46940612793
-132.946258544922
-135.711990356445
-131.229583740234
-132.850875854492
-136.570327758789
-127.796257019043
-111.964782714844
-110.915702819824
-116.637924194336
-105.002746582031
-96.7055282592773
-92.1277465820313
-81.4462738037109
-90.9833068847656
-105.002746582031
-94.6073760986328
-89.6481170654297
-99.4712677001953
-97.6592254638672
-93.4629364013672
-94.5120086669922
-92.1277465820313
-92.0323791503906
-92.6999740600586
-89.0758972167969
-88.8851547241211
-91.1740417480469
-87.5499725341797
-89.7434921264648
-95.1795959472656
-83.7351608276367
-70.1925735473633
-71.7184982299805
-70.0971984863281
-59.3203506469727
-51.9768333435059
-56.3638725280762
-64.8518295288086
-57.1268348693848
-42.630542755127
-42.630542755127
-47.2083168029785
-49.4018363952637
-48.2573928833008
-38.5296173095703
-27.2759170532227
-23.9379558563232
-21.839807510376
-17.6435127258301
-16.4990692138672
-24.3194370269775
-37.4805450439453
-37.6712837219238
-30.4231376647949
-35.0009155273438
-41.1046180725098
-40.2462844848633
-43.0120239257813
-43.4888763427734
-28.5157318115234
-15.8314762115479
-17.0712909698486
-17.5481433868408
-10.6814785003662
-7.34351634979248
-8.0111083984375
2.5749990940094
12.9703664779663
5.53147983551025
3.5287024974823
8.67870044708252
4.00555419921875
3.91018390655518
6.48518323898315
3.43333220481873
-4.48240613937378
-16.6898097991943
-8.20184898376465
21.839807510376
27.943510055542
13.1611070632935
14.2101802825928
14.1148099899292
1.33518481254578
0
3.24259161949158
-1.23981440067291
-0.9537034034729
2.95648050308228
2.76573991775513
10.2999963760376
21.839807510376
25.6546211242676
31.3768424987793
40.2462844848633
49.0203552246094
49.3064651489258
34.6194343566895
25.3685111999512
27.8481388092041
26.3222141265869
18.9786968231201
16.1175880432129
22.6981410980225
21.3629570007324
18.787956237793
32.04443359375
35.2870254516602
31.9490642547607
27.5620288848877
7.91573810577393
2.67036962509155
17.1666603088379
29.8509159088135
37.2898025512695
34.7148017883301
32.5212860107422
37.099063873291
31.4722118377686
20.5046234130859
18.8833274841309
19.9324016571045
23.0796222686768
31.1861019134521
38.7203598022461
35.382396697998
28.6111011505127
29.5648059844971
27.7527694702148
32.1398048400879
44.9194297790527
50.355541229248
56.3638725280762
58.4620170593262
53.4073905944824
52.2629470825195
53.5027618408203
55.0286865234375
49.0203552246094
40.5323944091797
46.9222068786621
51.8814659118652
40.4370231628418
37.0036926269531
48.066650390625
46.7314682006836
38.0527648925781
38.4342460632324
34.5240631103516
33.0935096740723
37.5759124755859
25.2731399536133
10.9675893783569
10.8722190856934
15.6407356262207
22.7935104370117
33.5703582763672
36.1453590393066
26.3222141265869
20.3138828277588
16.8805503845215
15.6407356262207
24.9870281219482
30.5185089111328
29.4694347381592
30.0416564941406
32.9027671813965
36.5268402099609
31.1861019134521
18.787956237793
6.86666440963745
2.00277709960938
7.6296272277832
12.3981437683105
11.2537002563477
11.0629596710205
7.6296272277832
5.05462789535522
11.7305517196655
16.5944385528564
20.7907333374023
21.4583263397217
13.4472179412842
14.9731435775757
26.8944358825684
29.4694347381592
18.3111057281494
9.72777462005615
10.0138854980469
7.15277528762817
5.24536848068237
13.1611070632935
16.9759197235107
11.8259220123291
8.58333015441895
10.9675893783569
14.1148099899292
15.4499950408936
23.9379558563232
33.8564720153809
25.9407329559326
10.4907369613647
9.44166374206543
17.8342533111572
18.787956237793
10.3953666687012
7.34351634979248
6.6759238243103
-3.147221326828
-8.0111083984375
-0.190740674734116
2.67036962509155
2.47962880134583
10.8722190856934
17.0712909698486
8.3925895690918
-2.47962880134583
2.1935179233551
5.24536848068237
-8.96481227874756
-16.9759197235107
-16.022216796875
-16.6898097991943
-18.4064750671387
-20.5999927520752
-11.1583299636841
-1.04907369613647
0.762962698936462
10.2999963760376
12.8749961853027
7.72499752044678
12.2074031829834
7.15277528762817
-8.58333015441895
-22.9842510223389
-30.8046188354492
-24.7962875366211
-24.4148063659668
-33.6657295227051
-40.5323944091797
-44.4425773620605
-33.5703582763672
-20.9814739227295
-18.787956237793
-18.2157344818115
-26.226842880249
-29.3740653991699
-24.5101776123047
-28.0388793945313
-28.9925842285156
-28.8972129821777
-34.0472106933594
-27.4666576385498
-16.1175880432129
-21.0768451690674
-22.6027698516846
-13.8286991119385
-15.0685138702393
-10.6814785003662
2.76573991775513
7.43888664245605
3.62407302856445
-5.81759071350098
-16.30832862854
-32.3305435180664
-60.7509078979492
-92.986083984375
-127.700881958008
-150.208282470703
-146.393478393555
-141.434219360352
-133.423110961914
-90.7925643920898
-48.066650390625
-48.9249839782715
-55.6009063720703
-3.71944332122803
139.145324707031
321.111938476563
461.4970703125
566.404418945313
694.20068359375
838.114562988281
924.901550292969
1067.38488769531
1296.55981445313
1281.77734375
1054.12841796875
881.031188964844
702.593322753906
480.571136474609
233.657333374023
-42.4398002624512
-279.244354248047
-444.521148681641
-561.82666015625
-646.324768066406
-698.301635742188
-727.008117675781
-722.430297851563
-685.903503417969
-654.908142089844
-634.022033691406
-609.893310546875
-594.347961425781
-597.876647949219
-606.555358886719
-593.585021972656
-558.679443359375
-525.2998046875
-497.070220947266
-460.161895751953
-423.444305419922
-407.040618896484
-401.318389892578
-393.498016357422
-391.304504394531
-385.200805664063
-356.398956298828
-324.449890136719
-303.373046875
-281.723999023438
-261.505462646484
-240.714736938477
-222.880477905273
-217.444381713867
-207.144378662109
-187.87956237793
-173.669387817383
-154.881439208984
-125.411994934082
-99.0897827148438
-77.4407196044922
-58.3666496276855
-49.2110939025879
-44.7286911010742
-36.431468963623
-33.1888771057129
-24.5101776123047
-2.1935179233551
6.58055353164673
11.4444408416748
28.0388793945313
41.3907279968262
53.9796104431152
66.854606628418
84.0212707519531
100.043487548828
92.1277465820313
85.2610855102539
90.3157119750977
89.3620071411133
95.8471908569336
103.76293182373
103.476821899414
113.490707397461
127.033294677734
125.125885009766
116.733299255371
116.35181427002
122.741630554199
136.284210205078
152.306427001953
150.494400024414
147.156433105469
164.60920715332
172.620315551758
163.560134887695
161.080505371094
165.467544555664
162.224945068359
155.167541503906
156.502731323242
160.603652954102
166.516616821289
177.674942016602
169.473098754883
150.303649902344
152.306427001953
154.309204101563
143.532363891602
142.483291625977
150.875885009766
153.355499267578
146.298095703125
138.76383972168
138.477737426758
139.812911987305
143.913848876953
146.774948120117
136.570327758789
132.946258544922
134.56755065918
120.643478393555
114.34903717041
117.019409179688
115.207366943359
119.212921142578
123.027740478516
124.649032592773
131.229583740234
137.142547607422
131.515701293945
120.452735900879
117.59162902832
125.125885009766
138.191619873047
148.968475341797
157.074951171875
160.603652954102
160.031433105469
158.982360839844
152.783279418945
146.202728271484
146.202728271484
149.826797485352
147.728652954102
146.488845825195
156.02587890625
156.788833618164
155.072174072266
158.696243286133
150.971252441406
149.54069519043
147.728652954102
133.804580688477
131.420333862305
128.940704345703
121.978668212891
124.267555236816
116.35181427002
99.4712677001953
95.2749710083008
97.6592254638672
94.7981185913086
89.3620071411133
79.8249740600586
61.0370178222656
49.2110939025879
47.2083168029785
36.6222114562988
20.3138828277588
9.44166374206543
6.38981294631958
9.15555286407471
13.5425882339478
10.7768487930298
-0.572222054004669
-12.7796258926392
-20.0277709960938
-19.074068069458
-19.360179901123
-29.4694347381592
-43.2981338500977
-56.5546112060547
-66.3777542114258
-70.2879409790039
-72.6721954345703
-79.5388641357422
-85.3564529418945
-93.5583038330078
-106.528671264648
-107.673110961914
-105.002746582031
-111.774040222168
-111.583297729492
-110.915702819824
-121.406440734863
-123.123107910156
-113.586074829102
-108.054595947266
-102.904594421387
-94.416633605957
-91.269416809082
-88.6944122314453
-84.4981231689453
-97.182373046875
-115.016632080078
-122.455513000488
-124.362922668457
-124.362922668457
-128.845321655273
-124.076812744141
-119.022186279297
-123.218475341797
-114.921257019043
-110.343482971191
-111.201812744141
-108.245338439941
-117.877738952637
-116.542556762695
-97.182373046875
-96.5147857666016
-109.199035644531
-109.96199798584
-111.487930297852
-121.024963378906
-126.651809692383
-129.703659057617
-121.787925720215
-110.629592895508
-114.158294677734
-108.340705871582
-90.9833068847656
-88.9805297851563
-97.6592254638672
-105.670333862305
-109.485153198242
-111.487930297852
-111.583297729492
-102.141632080078
-97.0870056152344
-99.0897827148438
-91.4601593017578
-86.5962677001953
-90.9833068847656
-90.8879318237305
-86.3101577758789
-84.0212707519531
-76.296272277832
-67.903678894043
-79.3481216430664
-93.7490463256836
-89.0758972167969
-80.3018264770508
-75.4379425048828
-70.7647933959961
-67.3314590454102
-64.9472045898438
-72.2907180786133
-76.9638671875
-69.4296035766602
-69.4296035766602
-67.0453491210938
-57.2222023010254
-59.4157218933105
-63.8027572631836
-64.6610870361328
-69.0481262207031
-58.1759071350098
-39.864803314209
-33.0935096740723
-21.1722145080566
-16.5944385528564
-23.6518440246582
-20.7907333374023
-20.3138828277588
-17.9296245574951
-2.47962880134583
6.6759238243103
6.19907188415527
2.47962880134583
0.858333051204681
0.0953703373670578
-8.86944198608398
-14.8777732849121
-9.06018257141113
0
8.20184898376465
17.357400894165
14.7824029922485
8.77407169342041
9.537034034729
4.67314672470093
7.24814605712891
16.2129573822021
20.6953639984131
22.4120292663574
16.1175880432129
19.360179901123
37.3851737976074
49.5925750732422
51.404613494873
49.783317565918
43.3935050964355
34.1425819396973
33.2842483520508
35.6685066223145
33.2842483520508
30.4231376647949
34.2379531860352
40.3416519165039
38.2435073852539
35.8592491149902
36.6222114562988
36.431468963623
38.3388748168945
36.5268402099609
30.2323970794678
32.3305435180664
39.3879508972168
42.4398002624512
43.679615020752
42.1536903381348
37.7666549682617
36.0499877929688
39.3879508972168
46.4453544616699
51.9768333435059
51.9768333435059
49.9740562438965
48.4481315612793
47.8759117126465
40.3416519165039
28.8018417358398
27.943510055542
29.0879535675049
20.5046234130859
11.3490705490112
20.3138828277588
37.0036926269531
32.7120246887207
26.4175834655762
37.5759124755859
46.1592445373535
46.2546157836914
47.9712791442871
51.7860946655273
52.0722045898438
46.9222068786621
36.431468963623
31.4722118377686
38.0527648925781
35.6685066223145
31.3768424987793
49.8786888122559
55.9823913574219
35.1916542053223
35.382396697998
50.2601699829102
51.3092422485352
46.4453544616699
43.7749862670898
49.9740562438965
50.9277610778809
38.3388748168945
32.5212860107422
42.3444290161133
59.4157218933105
56.7453536987305
36.1453590393066
32.04443359375
30.8046188354492
19.8370304107666
21.2675857543945
20.1231422424316
11.8259220123291
12.3981437683105
11.1583299636841
10.3953666687012
16.4036979675293
21.7444381713867
27.5620288848877
31.6629524230957
27.1805477142334
12.9703664779663
2.5749990940094
8.58333015441895
12.9703664779663
0.190740674734116
-8.96481227874756
-4.00555419921875
-1.9074068069458
-6.38981294631958
-7.91573810577393
-2.00277709960938
4.7685170173645
10.9675893783569
19.360179901123
28.3249912261963
42.1536903381348
48.8296127319336
41.0092468261719
35.382396697998
23.3657341003418
6.86666440963745
12.8749961853027
24.891658782959
26.6083240509033
28.2296199798584
23.1749935150146
20.9814739227295
27.7527694702148
23.1749935150146
12.3981437683105
14.0194396972656
23.8425846099854
29.1833248138428
27.5620288848877
28.0388793945313
27.3712882995605
18.8833274841309
18.5018463134766
19.2648086547852
3.05185079574585
-3.71944332122803
5.05462789535522
3.62407302856445
-3.71944332122803
-11.3490705490112
-22.3166599273682
-23.1749935150146
-17.2620315551758
-22.8888816833496
-27.8481388092041
-17.9296245574951
-5.43610954284668
-3.62407302856445
-6.1037015914917
-3.147221326828
2.67036962509155
-2.09814739227295
-12.9703664779663
-3.8148136138916
8.67870044708252
3.43333220481873
8.48795986175537
21.7444381713867
21.4583263397217
22.125919342041
24.1286964416504
18.5972156524658
11.4444408416748
1.9074068069458
-3.71944332122803
-5.53147983551025
-14.4962921142578
-24.7009181976318
-29.7555465698242
-26.9898052215576
-24.5101776123047
-22.6027698516846
-15.8314762115479
-13.7333288192749
-13.5425882339478
-7.24814605712891
-2.8611102104187
-5.34073925018311
-1.04907369613647
6.6759238243103
-5.34073925018311
-21.4583263397217
-23.6518440246582
-28.6111011505127
-30.70924949646
-26.7990646362305
-30.3277683258057
-31.4722118377686
-23.6518440246582
-17.1666603088379
-18.4064750671387
-22.4120292663574
-21.839807510376
-25.5592517852783
-28.7064723968506
-24.9870281219482
-28.8972129821777
-28.8972129821777
-24.1286964416504
-26.9898052215576
-20.3138828277588
-14.5916624069214
-17.1666603088379
-9.82314491271973
-6.00833129882813
-12.588885307312
-15.4499950408936
-15.8314762115479
-21.6490669250488
-29.278694152832
-32.3305435180664
-33.1888771057129
-29.6601753234863
-24.7009181976318
-28.6111011505127
-29.4694347381592
-23.7472152709961
-24.1286964416504
-26.6083240509033
-21.2675857543945
-14.4009208679199
-14.4009208679199
-23.0796222686768
-38.7203598022461
-55.6962776184082
-82.6860809326172
-111.869407653809
-121.787925720215
-128.082366943359
-127.891624450684
-95.751823425293
-55.9823913574219
-47.7805404663086
-59.2249794006348
-36.7175827026367
83.2583084106445
270.947143554688
424.302642822266
533.787780761719
657.578491210938
807.214538574219
906.304321289063
1015.21728515625
1244.10607910156
1309.91162109375
1106.10522460938
921.563598632813
762.48583984375
553.43408203125
316.343414306641
29.0879535675049
-252.731399536133
-450.243377685547
-561.540588378906
-638.313659667969
-693.914611816406
-712.511779785156
-699.446044921875
-668.355346679688
-641.460876464844
-616.950744628906
-594.443298339844
-600.73779296875
-612.372924804688
-599.211853027344
-586.909057617188
-578.230346679688
-546.853515625
-502.983184814453
-473.418365478516
-450.434112548828
-422.299865722656
-405.419311523438
-398.648010253906
-391.399871826172
-383.102661132813
-362.025817871094
-332.174896240234
-305.47119140625
-274.189727783203
-242.526779174805
-218.970306396484
-204.760116577148
-201.803634643555
-205.427719116211
-202.089752197266
-186.258270263672
-167.470321655273
-140.099029541016
-111.678665161133
-92.4138565063477
-71.8138656616211
-61.5138702392578
-59.2249794006348
-48.734245300293
-39.7694320678711
-36.2407302856445
-22.3166599273682
0.286111027002335
5.05462789535522
3.33796191215515
25.4638805389404
41.7722091674805
46.7314682006836
66.2823867797852
77.6314544677734
80.2064590454102
94.3212661743164
107.005523681641
112.155517578125
120.071258544922
132.087921142578
147.061065673828
150.685134887695
141.529586791992
139.049957275391
138.668472290039
139.812911987305
144.009216308594
140.575881958008
139.908294677734
143.532363891602
144.199951171875
148.110137939453
152.974029541016
155.453659057617
155.453659057617
148.300872802734
141.911071777344
144.676803588867
142.006439208984
135.139770507813
148.014770507813
164.51383972168
158.505508422852
149.731430053711
147.251800537109
143.341613769531
152.401809692383
161.938842773438
153.73698425293
152.783279418945
161.938842773438
155.072174072266
141.148101806641
136.951812744141
133.327728271484
135.616622924805
145.153656005859
145.630508422852
137.810134887695
134.281433105469
131.420333862305
133.423110961914
143.246246337891
142.960144042969
143.246246337891
160.031433105469
166.898101806641
151.448104858398
139.622177124023
131.992553710938
114.730522155762
109.00830078125
124.267555236816
134.376815795898
129.512924194336
125.888847351074
128.845321655273
140.957366943359
154.976806640625
155.930511474609
147.728652954102
145.058288574219
153.355499267578
157.837905883789
161.843460083008
175.576797485352
180.917541503906
173.669387817383
164.418472290039
160.603652954102
159.268463134766
153.069396972656
152.401809692383
154.976806640625
147.44255065918
146.584213256836
150.303649902344
134.186065673828
111.583297729492
97.0870056152344
84.7842330932617
74.8657150268555
70.8601608276367
74.1027526855469
74.7703475952148
65.7101669311523
56.6499824523926
42.630542755127
27.943510055542
26.5129547119141
24.2240657806396
10.4907369613647
0.762962698936462
-3.43333220481873
-18.5972156524658
-27.5620288848877
-15.5453653335571
-12.2074031829834
-22.8888816833496
-37.8620262145996
-53.7888717651367
-55.7916488647461
-47.1129493713379
-47.8759117126465
-53.8842430114746
-47.5897979736328
-44.6333198547363
-57.2222023010254
-67.1407165527344
-75.6286773681641
-90.1249694824219
-100.138854980469
-108.149963378906
-112.441627502441
-104.62126159668
-103.476821899414
-116.065704345703
-121.311073303223
-122.550888061523
-133.709213256836
-135.139770507813
-115.970336914063
-104.049041748047
-110.534225463867
-115.970336914063
-110.820335388184
-106.337928771973
-115.398109436035
-127.796257019043
-136.188842773438
-142.578659057617
-148.300872802734
-145.2490234375
-135.139770507813
-141.338836669922
-146.679580688477
-135.902740478516
-129.703659057617
-125.602737426758
-124.076812744141
-134.66291809082
-137.524032592773
-124.93514251709
-120.262001037598
-126.747184753418
-129.036071777344
-125.888847351074
-126.07958984375
-130.561996459961
-136.66569519043
-138.95458984375
-132.374038696289
-120.166625976563
-110.438850402832
-110.057373046875
-116.542556762695
-127.414772033691
-136.856430053711
-136.379592895508
-130.943481445313
-128.654586791992
-126.842552185059
-120.262001037598
-114.25366973877
-109.485153198242
-99.5666351318359
-89.5527496337891
-85.9286727905273
-89.0758972167969
-86.1194152832031
-68.1897964477539
-49.9740562438965
-38.3388748168945
-33.761100769043
-32.2351760864258
-25.7499923706055
-24.6055469512939
-37.7666549682617
-51.3092422485352
-47.3990592956543
-38.0527648925781
-38.4342460632324
-36.8129501342773
-25.3685111999512
-18.3111057281494
-19.9324016571045
-22.6027698516846
-25.8453617095947
-18.4064750671387
-3.91018390655518
0.286111027002335
-4.00555419921875
-10.2999963760376
-16.30832862854
-25.2731399536133
-29.5648059844971
-24.5101776123047
-24.6055469512939
-24.6055469512939
-13.5425882339478
-1.04907369613647
4.67314672470093
5.43610954284668
2.95648050308228
4.29166507720947
6.48518323898315
1.43055510520935
-5.91296100616455
-14.4009208679199
-12.2074031829834
5.1499981880188
22.125919342041
27.2759170532227
18.4064750671387
9.34629344940186
10.8722190856934
17.5481433868408
23.6518440246582
22.9842510223389
22.5074005126953
31.0907306671143
29.8509159088135
25.2731399536133
32.5212860107422
28.9925842285156
16.7851791381836
15.7361059188843
20.9814739227295
31.2814712524414
45.3962821960449
56.7453536987305
62.1814613342285
55.887020111084
45.9685020446777
41.962947845459
41.7722091674805
46.2546157836914
54.7425765991211
62.6583137512207
60.6555366516113
51.7860946655273
50.6416511535645
52.3583183288574
55.3147964477539
59.0342407226563
54.8379440307617
53.6935005187988
48.066650390625
35.8592491149902
38.4342460632324
44.5379486083984
47.3990592956543
50.5462799072266
53.3120193481445
58.0805358886719
47.1129493713379
28.8972129821777
25.5592517852783
30.2323970794678
35.0962867736816
25.7499923706055
7.72499752044678
6.77129411697388
13.3518476486206
18.6925868988037
26.1314735412598
28.4203605651855
32.2351760864258
37.4805450439453
43.5842437744141
51.0231323242188
48.3527641296387
43.5842437744141
42.2490615844727
44.7286911010742
44.7286911010742
39.5786895751953
36.8129501342773
38.148136138916
46.5407257080078
43.8703575134277
35.2870254516602
37.2898025512695
34.9055442810059
35.0962867736816
37.6712837219238
27.657398223877
25.177770614624
37.4805450439453
47.017578125
43.2027626037598
27.0851764678955
20.1231422424316
30.995361328125
39.1018409729004
35.0009155273438
26.9898052215576
23.3657341003418
26.226842880249
24.4148063659668
12.3981437683105
9.15555286407471
17.1666603088379
17.8342533111572
17.357400894165
20.8861045837402
18.5018463134766
18.8833274841309
29.6601753234863
37.1944313049316
32.6166572570801
19.2648086547852
11.5398111343384
13.7333288192749
17.9296245574951
20.0277709960938
10.6814785003662
2.1935179233551
4.1962947845459
-6.00833129882813
-15.8314762115479
-11.5398111343384
-9.34629344940186
-2.28888821601868
6.86666440963745
5.43610954284668
5.34073925018311
8.77407169342041
15.4499950408936
29.278694152832
31.8536930084229
21.4583263397217
19.5509204864502
19.2648086547852
15.0685138702393
16.7851791381836
20.7907333374023
24.5101776123047
17.8342533111572
5.62685012817383
11.1583299636841
12.588885307312
4.10092449188232
9.537034034729
7.72499752044678
0.762962698936462
-0.286111027002335
-10.4907369613647
-14.0194396972656
-13.7333288192749
-27.7527694702148
-34.1425819396973
-30.1370277404785
-29.0879535675049
-27.5620288848877
-21.1722145080566
-16.7851791381836
-14.4962921142578
-7.15277528762817
-7.82036781311035
-13.6379585266113
-17.4527721405029
-27.2759170532227
-26.3222141265869
-13.5425882339478
-2.1935179233551
3.05185079574585
-4.7685170173645
-15.9268465042114
-15.35462474823
-11.2537002563477
-18.4064750671387
-22.4120292663574
-17.8342533111572
-22.6981410980225
-30.3277683258057
-32.6166572570801
-32.9981384277344
-28.8972129821777
-10.204626083374
4.48240613937378
-2.09814739227295
-6.19907188415527
-7.43888664245605
-13.256477355957
-13.9240694046021
-9.72777462005615
2.67036962509155
11.3490705490112
14.7824029922485
29.4694347381592
35.382396697998
27.3712882995605
26.7990646362305
31.9490642547607
33.9518394470215
22.6027698516846
8.10647869110107
7.72499752044678
2.5749990940094
-5.91296100616455
-0.667592406272888
-0.0953703373670578
-10.7768487930298
-19.074068069458
-22.8888816833496
-24.7009181976318
-26.8944358825684
-29.5648059844971
-33.3796195983887
-41.1999855041504
-46.9222068786621
-44.6333198547363
-39.3879508972168
-35.5731353759766
-34.2379531860352
-35.382396697998
-33.5703582763672
-30.0416564941406
-27.1805477142334
-20.9814739227295
-15.1638841629028
-13.8286991119385
-10.4907369613647
-11.3490705490112
-18.787956237793
-18.4064750671387
-23.2703628540039
-30.5185089111328
-20.9814739227295
-8.86944198608398
1.04907369613647
1.43055510520935
-16.5944385528564
-32.9981384277344
-60.6555366516113
-109.96199798584
-131.611068725586
-123.599960327148
-133.518478393555
-138.573104858398
-105.288856506348
-65.805534362793
-46.7314682006836
-32.2351760864258
26.226842880249
179.58235168457
363.647094726563
491.634094238281
591.582214355469
717.184936523438
849.940490722656
930.909912109375
1082.45336914063
1284.06628417969
1229.99133300781
1018.74597167969
866.725646972656
696.489562988281
490.585021972656
234.992523193359
-59.701831817627
-299.081390380859
-463.213745117188
-574.892395019531
-655.194213867188
-708.410888671875
-720.904418945313
-704.9775390625
-682.470153808594
-655.003479003906
-626.392395019531
-608.367370605469
-603.408142089844
-605.697021484375
-602.072937011719
-587.29052734375
-565.260009765625
-534.55078125
-497.73779296875
-466.265594482422
-444.139678955078
-426.782257080078
-407.326721191406
-396.645233154297
-401.223022460938
-388.538757324219
-351.535064697266
-322.161010742188
-296.887878417969
-263.985107421875
-232.417510986328
-208.861038208008
-199.800857543945
-191.789749145508
-173.478652954102
-164.990692138672
-157.456436157227
-129.799026489258
-100.424964904785
-80.6833038330078
-64.2796096801758
-45.5870208740234
-30.3277683258057
-32.1398048400879
-33.4749908447266
-22.9842510223389
-10.8722190856934
7.72499752044678
17.5481433868408
16.4990692138672
27.8481388092041
40.6277656555176
49.4972076416016
62.6583137512207
72.7675704956055
75.7240524291992
77.4407196044922
80.778678894043
87.5499725341797
96.5147857666016
99.2805252075195
94.2258987426758
96.2286758422852
101.569412231445
107.100891113281
120.071258544922
129.512924194336
132.755508422852
135.425888061523
148.777725219727
170.617538452148
181.108276367188
180.536056518555
176.625869750977
178.247161865234
183.111053466797
180.822158813477
181.203643798828
176.911987304688
158.696243286133
147.824020385742
150.208282470703
151.543472290039
151.066619873047
154.881439208984
159.936065673828
155.549026489258
145.821243286133
145.058288574219
141.052734375
125.984222412109
118.44995880127
116.828666687012
118.640701293945
124.267555236816
120.548110961914
116.161071777344
118.926811218262
115.874961853027
112.155517578125
114.444404602051
114.539779663086
113.872184753418
115.302742004395
117.210144042969
122.83699798584
128.845321655273
127.891624450684
124.93514251709
117.49626159668
108.722190856934
111.964782714844
113.490707397461
105.670333862305
101.092559814453
104.144409179688
111.487930297852
121.024963378906
129.036071777344
129.894409179688
130.37126159668
136.474960327148
141.815689086914
152.401809692383
170.617538452148
180.154571533203
180.059204101563
183.587905883789
177.865676879883
158.219390869141
154.213836669922
155.262908935547
150.112915039063
162.51106262207
167.851791381836
155.739761352539
156.884216308594
158.600875854492
142.197174072266
124.744407653809
116.924034118652
107.768486022949
96.8962631225586
91.5555267333984
85.8333053588867
76.296272277832
60.274055480957
45.6823921203613
42.4398002624512
39.864803314209
34.5240631103516
28.7064723968506
13.6379585266113
0.0953703373670578
1.81203651428223
2.5749990940094
-2.95648050308228
-7.82036781311035
-13.6379585266113
-17.357400894165
-19.9324016571045
-34.9055442810059
-55.9823913574219
-59.2249794006348
-51.3092422485352
-44.251838684082
-36.2407302856445
-40.5323944091797
-57.3175735473633
-63.3259048461914
-61.2277565002441
-67.2360916137695
-74.8657150268555
-78.012939453125
-83.2583084106445
-98.3268203735352
-120.73885345459
-121.120330810547
-102.427742004395
-100.997192382813
-111.201812744141
-115.684219360352
-109.96199798584
-99.5666351318359
-104.812004089355
-116.065704345703
-122.741630554199
-126.937919616699
-122.455513000488
-127.224029541016
-133.804580688477
-117.686996459961
-107.673110961914
-118.068481445313
-121.597183227539
-118.640701293945
-125.125885009766
-137.810134887695
-145.344390869141
-141.052734375
-136.284210205078
-144.295318603516
-150.303649902344
-142.960144042969
-140.194396972656
-142.006439208984
-137.047180175781
-136.474960327148
-141.243469238281
-139.526809692383
-136.474960327148
-138.85920715332
-137.810134887695
-130.657363891602
-130.180511474609
-136.379592895508
-138.191619873047
-141.148101806641
-151.352722167969
-155.262908935547
-147.061065673828
-130.848098754883
-102.52311706543
-82.9721984863281
-90.9833068847656
-97.7546005249023
-90.3157119750977
-78.6805267333984
-72.0999755859375
-84.4027481079102
-86.6916351318359
-66.2823867797852
-58.4620170593262
-63.3259048461914
-57.9851684570313
-51.4999847412109
-57.4129447937012
-59.5110931396484
-54.4564628601074
-51.8814659118652
-47.7805404663086
-50.6416511535645
-61.0370178222656
-59.2249794006348
-44.9194297790527
-34.1425819396973
-35.0009155273438
-44.3472061157227
-47.8759117126465
-31.4722118377686
-17.357400894165
-21.4583263397217
-25.0823993682861
-17.5481433868408
-8.77407169342041
-12.4935140609741
-19.6462898254395
-12.302773475647
4.10092449188232
10.4907369613647
4.57777643203735
-1.33518481254578
-6.00833129882813
-8.29721927642822
-7.43888664245605
-7.53425693511963
-2.1935179233551
0.0953703373670578
-2.1935179233551
3.33796191215515
4.86388731002808
-3.24259161949158
-3.05185079574585
8.20184898376465
12.8749961853027
8.67870044708252
10.8722190856934
18.1203651428223
27.5620288848877
34.810173034668
30.6138782501221
36.1453590393066
46.3499870300293
33.6657295227051
22.5074005126953
26.9898052215576
29.3740653991699
32.6166572570801
43.5842437744141
53.0259094238281
55.9823913574219
46.9222068786621
39.197208404541
54.2657241821289
62.6583137512207
57.8897972106934
63.5166473388672
62.1814613342285
55.6009063720703
58.2712783813477
62.3722038269043
63.9934997558594
65.3286819458008
69.1434936523438
65.0425720214844
