Value(μV)
60.396162149758
31.3811019315991
22.7364112214989
28.8642544171984
36.2762520893531
36.8306845475194
32.7323193761835
30.417487088887
32.2194599855623
34.9445960000494
34.9978801816079
32.6660728068738
30.8852316388119
31.2362075624266
32.5422093309244
33.1621686265162
33.3359223041843
34.5749460509198
37.354273813644
40.315390265063
41.7628347486021
41.2180483015531
39.1408250438635
35.6633316352436
30.3453740168682
23.2094997133726
15.397077206054
8.38863188919476
2.81910849741994
-1.54083723368648
-4.76316562393346
-6.27421311889808
-5.62982304608929
-3.39933628414649
-0.783796941342336
1.6353684646663
4.35203010158633
7.96944245836141
12.122586780566
15.7556316702383
18.3691248482935
20.5313700633422
22.9732439937256
25.5418054048321
27.4783307853487
28.641980726081
29.9590719087435
32.4029138001613
35.8181233263608
39.1444209982889
41.7173941108206
43.8808115832478
46.1155313356308
47.9567355467242
48.2951873548596
46.7607787134732
44.3417484757691
42.3418016692812
40.9840522285963
39.4552316349307
37.2632348318161
35.0336073891163
33.6642504224746
33.0240338868926
32.0347847990854
30.1025028187088
27.9949546045156
26.9623148583354
27.2525544233671
27.990527287836
28.5321540150764
29.3851491282087
31.3830882447416
34.2366007587978
36.5238377240189
37.2623461092144
36.9901068690583
36.8479828374008
36.8454476387573
35.6791131152823
32.4446149401
27.9827121544935
23.984113453833
20.9604252392135
17.7997024015826
13.5878803492787
9.30043607015793
7.00203439027919
7.44146202220666
9.13989074302528
10.2156324043767
10.6089807854798
11.8090733124107
14.4760783719572
17.179805199147
18.0308310758761
17.1011336221788
16.3813526945536
17.2231792997866
18.5720009151157
18.3000109034518
15.8528343485276
12.67903677477
9.91188951941951
6.53383094224315
0.665929571205787
-7.62915942192897
-15.8441148844982
-21.6823378468136
-25.4660577883594
-29.1092101000893
-33.0463822998994
-35.3441313363828
-34.3461884242568
-31.331104897315
-29.4230869241144
-29.9590991555114
-31.097017499974
-30.6290355814904
-29.2878544924541
-29.9847916176305
-33.8333266515453
-38.3277099147972
-40.3261311370935
-39.8882340019473
-39.5623912430436
-39.8726276697409
-37.4219102778487
-29.0328137664231
-16.9808702121814
-7.94220978164753
-6.01196029712332
-8.44808501104558
-10.080863350276
-11.0361934009777
-17.2760638696371
-32.4084872847839
-51.4755639962558
-66.1140022648185
-75.4387486977412
-87.4688939080905
-106.58117068278
-122.127992825949
-115.93439621553
-84.3332353700513
-48.5214942785385
-35.1078359528641
-42.8119750971383
-32.7809342763273
40.6047214738042
186.072229154869
365.001774692829
527.714116275641
659.362489792473
786.130226077431
934.752610595749
1089.67414275
1195.26346581719
1201.52656393355
1105.09567481506
944.207660996583
757.476079226217
553.454863329186
321.364271310728
64.954915715542
-182.703593310525
-380.680841406045
-512.746505656742
-595.118764947031
-653.596396544128
-697.867747261665
-720.098558342522
-714.470968986101
-691.646359733255
-671.610644311963
-665.202467781483
-666.215182171767
-661.290011808772
-644.259092562245
-619.298070825693
-592.770980334597
-566.105521727088
-537.605701573907
-508.263708065727
-482.521852149442
-463.196792195663
-447.978342394584
-432.323486588447
-414.668478459716
-397.021717863577
-380.591224631757
-362.822417069168
-340.097775423111
-312.550115555994
-284.52499644523
-259.94325243431
-238.440406621911
-217.016663589867
-194.729758618203
-174.211666416643
-158.191560333248
-145.761913785859
-133.295012735332
-118.741174439998
-103.73331804566
-90.9565538477863
-80.4084043572915
-69.4114533535282
-56.1725823624062
-42.1133567117936
-29.990473782996
-20.3931801176485
-11.1978963363947
-0.552662211285678
10.6217511452337
19.8429952215425
26.2932701714234
31.8213701119107
38.5082999005055
46.0490510425078
52.2948424309982
56.0931114938414
58.6672148164801
61.860164413952
65.7046243552751
68.5353035220892
69.4154110808343
69.6564773040268
71.5155755448512
75.8561229249389
81.7509703539699
88.2880985403157
95.9635259884031
105.777034162135
117.336159334365
128.593282602709
137.615005534918
144.096925357584
148.773304357243
151.739420497769
152.094654314892
149.404380910265
144.920550913717
140.774506168892
138.07951769687
136.365398998194
135.002007314841
134.617644452069
136.54183584543
140.980410788871
146.38652926748
150.962160586132
154.419581414819
157.771334270342
161.494159789582
164.535436815583
165.502458062315
164.482796173452
163.092033628483
162.645601758482
162.780535953793
162.241603718549
160.726260817469
159.354012816673
159.187581407841
159.798072764641
159.775364483339
158.508554155099
156.912517274202
156.191127203747
156.296542194811
156.088538212139
154.919520003687
153.512716194693
152.990035362882
153.37993001166
153.604712547398
152.956900199872
152.092527383424
152.216292006359
153.527358487269
154.959120957516
155.525669533934
155.479357348895
155.768573026916
156.557443897526
156.809172416077
155.514991781634
152.966202697566
150.402231821638
148.491673681477
146.609280348884
143.798188479181
140.098722360939
136.489678607378
133.558672275177
130.695188468813
126.883218017302
122.043880796504
117.163394392069
113.055856731951
109.392779437302
105.238319550096
100.322292661934
95.3384668718252
90.8976826933871
86.5735703555891
81.3434749570208
74.8511154583523
67.8151165161452
61.0429412891884
54.3607424376403
46.8725584171837
38.1904363320185
28.9937168714087
20.1811558615291
11.7578619790239
2.948407310254
-6.61168917727441
-16.1977345528169
-24.7526036865194
-32.1072344093733
-39.0853852819741
-46.3852102809405
-53.7232834243558
-60.3385983856725
-66.123824476744
-71.8237936568447
-78.0090638015697
-84.1915257801064
-89.2800667215287
-92.800947309536
-95.2948593106495
-97.4025764289264
-98.8982621584147
-98.9912778419623
-97.5053243572113
-95.341709990172
-93.5605695722405
-92.255926887671
-90.7051156410294
-88.607876429625
-86.7807691173504
-86.3642630926217
-87.5427791819476
-89.4215604488796
-91.1968364576211
-93.0749183351754
-95.7492895668217
-99.1628343894438
-102.236816610825
-103.982329800422
-104.590429275478
-105.114562806816
-106.181964623374
-107.399683719899
-108.157093409
-108.668461159783
-109.808203039946
-111.935679522152
-114.28678843138
-115.784689925113
-116.249529756395
-116.451495694439
-116.96813807393
-117.37085057243
-116.807437161845
-115.178396943471
-113.309103639703
-111.862961376706
-110.44402745138
-108.126832969331
-104.77524917291
-101.438267527767
-99.2748709523386
-98.3573769843658
-97.8476755819123
-97.2376041144745
-96.9578482443869
-97.5161341402672
-98.3086871704273
-97.7511121349199
-94.7118685474446
-89.5487447065026
-83.5294588656036
-77.4423729305798
-71.1631818958577
-64.6290078052076
-58.8175223920637
-55.3324528303038
-55.0160054313891
-57.2670283253806
-60.8425601506104
-65.0717365406558
-69.9950174094341
-75.4144842749816
-80.2290985130143
-82.9713177928276
-82.8623930061482
-80.0931096052288
-75.1325675444757
-68.1200061385237
-59.1463568900354
-48.9161393456677
-38.7394242509936
-29.7484332162196
-22.3154591777171
-16.3606672634155
-11.9970496234497
-9.51669356539965
-8.72026711795947
-8.63932764237116
-8.27523273460785
-7.57212416766727
-7.37739298090845
-8.36169521679327
-10.2263834699963
-12.183687523428
-14.0261670450468
-16.2945633649978
-19.2351247160221
-21.9071710749366
-22.7328574703586
-20.9739526775435
-17.3864283205654
-13.2801129355027
-9.18346217032339
-4.7491965103597
0.12278553774833
4.55839273404885
7.43876313494484
8.68458374674427
9.40622554919819
10.6649669686927
12.3780140956486
13.7040501944994
14.3281950769034
14.9376080509319
16.3004818444725
18.2275438974434
19.8352685588565
20.770147466987
21.7398703153596
23.5865425395959
26.0665491525215
27.9226743816964
28.1808032141704
27.0429238520478
25.3191306212763
23.2679067940067
20.443991443739
16.7401265436102
13.1550300261033
11.1390825103736
11.2443848574266
12.7468668795352
14.6643983950675
16.8156603368471
19.5994978226805
22.945379028442
26.0003398047351
28.0769666785868
29.6000683805782
31.6930644639736
34.8208506135313
38.1984924301763
40.723753994747
42.2145709561093
43.3489908488017
44.4476977006771
44.8044549101969
43.5530348532847
40.9757006948119
38.4752981609284
37.1093643770594
36.4599825430386
35.2236340223971
32.7366735514235
29.5211965985534
26.2931272689362
22.9019978784603
18.6972317231778
13.8419390599472
9.77406225971993
8.10720593503544
9.30350166540495
12.7191121104448
17.786078081899
24.6369508207426
33.3508076690212
42.9836968316269
51.9059871593152
59.1735103059132
65.1512742130577
70.5116408449918
74.9086017065436
77.1359832060747
76.628924144447
74.3159719730038
71.6098137533745
68.7975676378707
64.9703731050102
59.647353726491
53.9534611842834
49.6883138978039
47.3563471019787
45.6573420092487
43.1173511284218
39.7900785099144
36.8855645129996
34.9175600189193
32.9127711286643
29.7925869269622
26.09383915243
23.6649497482801
23.620525368281
25.1757026739165
26.8647811717696
28.5023970047464
31.2543353670817
35.725861960871
40.692105986434
44.3037915789813
46.2638437189358
48.0403602444882
50.6932860588772
53.1135968337139
53.0743392662261
49.8495101683629
45.0294879699459
40.4555913666888
35.99139623754
30.1133963443277
22.5720415481409
15.5242257689518
11.4309289680118
10.2828124237527
9.73205893554239
8.00755269912787
5.86317076525865
5.079946846863
5.6200198321312
5.35998522834736
2.89206453978697
-0.327467379497932
-1.50609922594233
0.0974628712324659
2.33306621213661
3.02453760097041
2.78110905078601
3.98995316093178
7.31332485230281
10.474774635691
11.1652006095665
10.2745572104627
10.937808679696
14.343721654034
17.7786481431536
17.7076682785948
14.0276437198501
9.822408000857
6.79493804604378
2.55354751574284
-6.14750552150947
-18.0578858569982
-27.2208829554399
-28.9605628761558
-24.9087503799286
-20.5919480620872
-18.4599933219374
-15.4186809663971
-8.47412694285298
-1.47378432136105
-3.85823100387923
-22.01196728081
-53.1113985167387
-88.2309513899854
-119.861118211001
-144.225334739308
-157.227847054036
-152.755478964543
-128.78621348002
-93.5624982756991
-59.7338948634519
-28.2793957349616
19.3673237304628
106.796340551069
236.727099843027
382.437216225063
510.490477176179
613.654039413339
717.260613212342
848.025711769328
996.171949065096
1112.37055724097
1145.56585575833
1083.6936611362
955.922074416394
796.930360410596
614.313412671496
394.255033927418
135.850426344391
-127.78010166031
-347.31504605442
-495.156650148484
-582.815516468857
-641.26526987593
-688.276529993159
-717.672450017856
-717.420037826063
-691.36079189091
-659.214052867075
-637.604820396284
-626.088977359577
-613.235388392334
-592.843645671918
-570.247109400115
-553.245651712873
-541.201443008367
-526.136215124444
-503.219424852859
-476.682743886074
-454.200685689335
-437.63191117114
-421.691757981565
-401.235313273728
-377.258952462975
-354.497312001227
-334.790232658802
-315.230040974002
-293.000620591572
-269.899832555717
-250.402683728053
-235.97101270588
-223.182807802222
-208.032622027939
-190.701019108465
-174.743641903619
-162.090452784423
-150.527134184024
-136.773137557265
-120.885458891248
-106.191507935965
-94.9719395477813
-85.5767197414562
-74.5683944741925
-60.8961670780835
-46.7026375282755
-34.0215297620247
-21.9706820410652
-8.13290744285291
7.86751797609215
23.4295930757096
35.9247087283078
45.6681171255258
55.1402224933529
65.6605670002309
75.9223056420721
84.1322096643229
90.681500270687
97.6923781381994
106.067776171758
114.031434911044
119.161559908162
121.308536884489
122.658869638174
124.976473513453
127.684474017588
129.20469450657
129.602684975797
130.900535110528
134.580030838036
139.561383964275
143.344249252491
144.873075796045
145.477993717057
146.796964570534
148.492689711867
148.734973881846
146.715633938999
143.816673994578
141.890058434434
140.931300421258
139.203291703319
135.636904834003
131.38313236095
128.545649114779
127.788165748843
127.877373126635
127.596954552184
127.38853900472
128.558817932616
131.190388757695
133.605267946728
134.148835633691
133.005083125929
131.746286292087
131.296253182061
130.980583153988
129.779258668409
127.945055415618
126.737054065442
126.625858979785
126.426851803488
124.610033739429
121.147264950096
117.533435252765
115.003691688528
113.292506424029
111.486651445882
109.707236718142
109.268893033844
111.032291153304
114.123448196372
116.770896451033
118.261339610803
119.558373094482
121.870194976835
125.086788286104
128.089248641595
130.408603487547
132.940250368828
136.72027831524
141.382156506552
145.366914179804
147.66618115326
148.872853094193
150.230479720461
151.977905682291
153.146474505321
152.987091284806
152.03780384556
151.353998739343
150.908630397755
149.318242299893
145.336247267332
139.241053340285
132.378956475429
125.513193175657
118.131969701856
109.533512883492
100.136194284748
91.1940715822058
83.260268849788
75.4447460421744
66.495219675758
56.3384741540893
46.1155171649014
36.7193472168851
27.7852985642795
18.4370387813794
8.73237012453427
-0.182443334063605
-7.46982288168653
-13.7054765570535
-20.1709623016475
-27.1723880363848
-33.5280521548662
-37.8942794599855
-40.2532260668917
-41.7155292738758
-43.0005281337164
-43.6556815558476
-43.0606681988901
-41.8785756239823
-41.9835449261265
-44.8292753366475
-50.207757098358
-56.8320704319128
-63.873695463943
-71.4831605562615
-79.780570050774
-87.839466525828
-94.1439810257516
-98.0030904447524
-100.123604534137
-101.635389899969
-102.844681407684
-103.260404341704
-102.704253169064
-101.915190775938
-101.817003695834
-102.458319955615
-103.076786284715
-103.21520171876
-103.393739477098
-104.429554363324
-106.301103648735
-108.063246102924
-108.923251429869
-109.056024259
-109.109697431973
-109.121250078402
-108.354446266724
-106.32437478731
-103.64937838694
-101.549400891772
-100.5740080658
-100.161182406163
-99.5456891847613
-98.7806369670917
-98.5275097572118
-98.9434914146446
-99.2197316192915
-98.4642678561594
-96.8140281062413
-95.3097399614401
-94.6612450741261
-94.475739497621
-93.9087070392852
-92.8313605355681
-91.9514138172452
-91.7412681967724
-91.6382366419585
-90.6420964569077
-88.5809746297294
-86.3976652593336
-85.0565829744117
-84.4616061864368
-83.75552841706
-82.5634732017357
-81.5188881118445
-81.3773510727808
-81.9039931528923
-82.034907598803
-81.1422196035189
-79.7712689050345
-78.8896165431881
-78.6154483291857
-78.0558558404076
-76.4269888591542
-73.9706219481302
-71.4898998880112
-69.1692416540163
-66.2805815419515
-62.1854213034865
-57.3104391491308
-52.7948063371693
-49.2466633565587
-46.2039121347298
-42.9504557119061
-39.5557892990102
-36.7458036335816
-34.8072873805084
-33.0452311179629
-30.5878720172887
-27.5219917314618
-24.8537210340926
-23.3012628671566
-22.4582918634389
-21.3921851962091
-19.8670278857942
-18.568706806373
-18.036083181797
-17.7305504190589
-16.5254912382756
-14.0440355663518
-11.1356097249353
-8.85711900546005
-7.2283263098185
-5.30072266400225
-2.38248758024258
1.18758407356358
4.66743479311452
8.02804040833513
12.0235961282172
17.081823736654
22.440795670787
26.6452982990643
28.7792962024629
28.9377125915556
27.5219722207482
24.4846682762059
19.6073906323682
13.3926597278286
7.25272290636724
2.5967288352951
-0.102682350500743
-1.14953661324921
-0.714599339928839
1.51137812546597
5.62332602679481
10.7909486695308
15.6551967354783
19.4680857167796
22.5370358957725
25.3817671244313
27.7137780990768
28.6243367727526
27.7792196345183
26.0375746772619
24.6108860365499
23.7975907800461
22.9361806836316
21.6489060697685
20.7199509708911
21.3703933075162
23.7810539478366
26.7605772717311
29.0414307439504
30.599941902975
32.3552945289524
34.6959090455778
36.8023108883751
37.6857677149098
37.5868721103331
37.850230717273
39.3349774291608
41.3339341377002
42.3632530578328
41.819516735479
40.4341022181395
39.0539961652185
37.4492027347684
34.7642126656342
31.0228306090738
27.6649521676295
26.3159951696853
27.2657078865674
29.4958591508953
32.0952865518333
35.169028848885
39.127200169152
43.4474244838527
46.7001047634294
47.906979488399
47.4842196409869
46.5378704039319
45.4448619147355
43.5755806245904
40.460511779981
36.7563538900967
33.6480702934498
31.4687671232457
29.43374628604
26.9183793575144
24.5887553787735
23.7991629329875
24.9523633944206
26.9676246640417
28.6177349699129
30.0285603725483
32.3598946317822
36.0562723768318
39.990559878308
42.7134557520469
44.2397001281904
46.0015954424545
48.9237578880329
52.0482260832596
53.5012046407629
52.5988806356891
50.4183791122277
48.1603320793565
45.5140035693253
41.2171105436222
35.0768520156938
28.7293195982249
24.0205732057759
21.0233056338964
18.227897775419
14.6289813912651
10.9611813676274
8.50017832463604
7.12319550144503
5.34603264243297
2.39733829314724
-0.439600771365093
-1.14864324005298
0.613327703228393
3.13817753653107
4.83378165384982
6.08268062764304
8.31279727628337
11.5484333131026
13.8651450051197
13.7167472360527
12.1563213185203
11.8573580839839
13.9571893939358
16.7537518807354
18.0315837416802
18.007418138716
18.8985727869689
21.5016664116618
23.3267095041574
21.1131531698938
14.872529811462
8.31789902191832
4.90950097607691
4.33546742526308
3.73820209606116
1.86060366315508
0.488951911018489
1.21308534890953
1.87295453140257
-2.42929309638397
-15.023464672362
-35.7380967722606
-63.2786216728964
-97.0159004167565
-133.646588434556
-162.72481301962
-170.093971368226
-150.180567056186
-114.437636936263
-82.3124172342791
-58.9957012119141
-22.8101115483817
59.6856737789332
201.030576173535
375.277204561996
537.033730928612
661.423096052184
764.775530768818
882.96205315849
1027.56616220078
1164.08351376982
1234.59454409077
1202.3855325306
1075.33497123965
889.248890914237
673.736313988779
437.093312210143
180.968363848684
-78.2135350981606
-308.550076754687
-483.495301193383
-600.047771643577
-674.651111571599
-723.356116779
-749.121752880288
-748.21663362918
-724.658902256504
-693.847617476043
-671.20402522027
-659.613442724607
-649.836474333438
-632.303063532992
-606.524177362133
-579.041163973205
-554.780597699412
-532.784921001037
-509.92632174741
-486.168627047636
-464.439043494861
-446.191138818869
-429.128555759574
-409.975201041039
-388.294287239214
-366.354490856895
-345.640218538982
-324.967988169494
-302.688988406183
-279.80756539305
-259.623418042962
-244.152776956587
-231.831022562869
-219.335382774384
-205.121398336793
-190.282449963196
-176.001326004725
-161.235768476387
-143.752667581721
-123.107704659715
-101.634953858977
-82.1389363432729
-65.2032052461432
-49.3863315503862
-33.7765441096213
-19.4474224364507
-7.99255984197083
0.787739652771549
8.92098187450829
17.9298738932143
27.1248493217019
34.6762714395667
40.0573700742128
44.7860277101031
50.6594791175524
57.8303898757776
65.0948697438349
71.8027431031923
78.7819980630528
87.1086439944556
96.4230132358348
105.040044313231
111.729121605066
116.919217987331
121.910341114818
127.234649421378
132.250040523003
136.277396303167
139.570314472621
142.774859197447
145.680612303048
147.062849668754
145.966168997521
142.854836457629
139.208862596152
136.137298702485
133.76408153527
132.000796989639
131.434526798522
132.950802280611
136.498505043364
140.676467590731
143.85924286398
145.619587473761
146.803007157771
148.285721933847
150.029345056047
151.524391017235
152.839268780222
154.734235180449
157.610634544134
160.675869946803
162.489589086575
162.308857630233
160.649121567578
158.490552685324
156.227773692102
153.635293492269
150.667141983509
147.81088250287
145.411370602578
142.884323663973
139.002287302292
133.077659153901
125.677613303276
118.061261365716
111.110847348234
105.075110688152
100.268244251392
97.5538906711518
97.7434711619914
100.5608378881
104.545962617661
108.192261584034
111.087972029225
113.816848970575
116.890929126669
120.105505328147
123.034871807082
125.8512759338
129.25243741891
133.50798023799
137.854207278618
141.083721877234
142.68782486029
143.228398991893
143.587862280618
144.094496957538
144.542029115665
144.874413648349
145.463558640485
146.540615932832
147.555882599249
147.407669557378
145.380533558395
141.716491997839
137.196584349457
132.321812818795
127.082185534509
121.428595523833
115.623853636236
109.889366350257
103.820580620764
96.4639776936136
87.1375547650677
76.0929504117114
64.2653326009746
52.4605290940371
40.961501118221
29.8986961080521
19.6912693765905
10.809880532365
3.1035138369888
-4.36254015409319
-12.566554180223
-21.631828096027
-30.7636154981187
-39.039679350972
-46.0995270658101
-52.0184541069037
-56.750025543342
-60.0364105377201
-61.9750794410048
-63.4583639478651
-65.7658979253542
-69.6270416980447
-74.7520845691086
-80.2883098409444
-85.5883186796215
-90.4237101704478
-94.5961806747088
-97.6798681347475
-99.3699682192018
-100.004912589072
-100.50335522162
-101.655407101468
-103.523224231932
-105.586979848619
-107.383931117695
-108.867754447853
-110.180980659419
-111.3165957602
-112.21297013516
-113.139794052397
-114.754909964659
-117.601814644916
-121.560176619726
-125.869732769046
-129.675345029347
-132.463169524073
-134.001937156477
-134.097772190645
-132.667384673203
-130.085878786975
-127.250108672237
-125.063251894241
-123.785594166131
-122.937244297758
-121.829202996747
-120.095175629739
-117.685748415783
-114.529969463927
-110.482589896335
-105.719798004875
-101.038375083947
-97.5167647662851
-95.7532900287848
-95.4542655349725
-95.7816879584819
-96.0278109672068
-95.8990963405547
-95.2741440382256
-93.9623880114223
-91.8898512089802
-89.4566247898086
-87.4825223016996
-86.6325259809423
-86.8792846262966
-87.5549352246313
-87.8782809573761
-87.3618211149086
-85.7776872803007
-82.9718003825395
-78.943133637694
-74.1205722395188
-69.3748086879318
-65.5657940407971
-63.0169834765786
-61.4413840087536
-60.3320359236769
-59.3282738360216
-58.2080967251711
-56.7098580399934
-54.591516739308
-51.9267128471744
-49.1997664858148
-46.9357268532394
-45.1975512596252
-43.5109890493571
-41.3021521912616
-38.342792450816
-34.7505589627153
-30.7056662476669
-26.3965039322005
-22.3175627126321
-19.4384391222551
-18.7939314620986
-20.7462258145554
-24.6608663113132
-29.3475804983323
-33.7828552288549
-37.3791991839064
-39.7029635771966
-40.2465844450089
-38.725424056974
-35.574663182054
-31.918363008772
-28.8405423360873
-26.6409502804537
-24.8307925335171
-22.7987556724669
-20.35815226618
-17.6360588484528
-14.6299956095267
-11.1314063357849
-7.1513225425759
-3.24494945332085
-0.193987547191464
1.6968717030875
2.91445728861758
4.31174882334907
6.43161821831944
9.29134392308814
12.7121549332211
16.6296784743533
20.9571655328838
25.2602766678153
28.8104641098893
31.1070711346291
32.3222348216411
33.1551761663163
34.2459748348249
35.761670579535
37.4842567435115
39.1145131670999
40.3504889598494
40.7426943100306
39.7173793496593
36.9521131115384
32.7696820454588
28.0982952587353
24.0053665765231
21.2605368379782
20.2583651320436
21.1377768508503
23.7518349506462
27.4935307612655
31.3433095837336
34.3210648546893
35.9997437139758
36.5784479591639
36.481116551604
35.9705113974889
35.1742779661794
34.3368964650925
33.8173624105841
33.7478106255941
33.8196504428897
33.5935065063341
33.0687830364164
32.8473132034791
33.6521460224101
35.7224290614539
38.7377864907612
42.2497055050669
45.9795869107514
49.5904713801128
52.33115485144
53.2242678007979
51.8056648371972
48.6407033572511
44.9810445519146
41.8812270929636
39.7004868103905
38.4069815507783
38.1126992677933
39.048990652252
41.015907206595
43.1290525508659
44.3925163015808
44.5813829007634
44.4473374408492
44.9962310645756
46.6407127954597
49.1088356503377
52.0227575316569
55.2849360065845
58.7797524798454
61.8872309811394
63.6042005716602
63.2870005932034
61.1902090074537
58.1741194360646
54.9395669432247
51.6624864742182
48.3145880637349
45.0735090842072
42.2022520950742
39.6006040066111
36.7556684458312
33.3094624455365
29.5892872746626
26.4031848053367
24.297785319453
23.1538605443092
22.5513834851072
22.3384549742214
22.6065943773462
23.1299771872163
23.1292492595178
21.8589138675485
19.4104767362925
16.7281323086195
14.7352514122381
13.5586129591317
12.7082653640981
11.8664661874493
11.2059509998344
10.8472274141926
10.2692416652129
8.60359936319302
5.58014609597718
1.96419932319336
-1.11484902159303
-3.17588468552239
-4.55890705643895
-5.66659429895359
-6.35832946892248
-6.30336847036592
-5.74358609053602
-5.50139424867
-6.05626911973903
-6.82187616038833
-6.61594308181367
-4.83428526170585
-1.9298575941391
1.32031668465164
4.72517394293739
8.55026022439073
12.582935511873
15.7851314485293
17.2025303028692
17.08845963088
16.7801336820119
17.3796317700765
18.8164738300842
20.3816634669694
21.9116520171128
23.9707811221166
26.7664437273949
29.3207374658438
30.1876433208663
28.9596372373604
26.6423562036328
24.3351970097422
21.8567470938508
18.0849990249436
12.5665658167697
6.25090496803236
0.328412727589949
-5.29395994849892
-11.7526034011606
-19.382263533507
-26.6601730431452
-31.4800277541408
-33.3086675687398
-33.5381861655172
-33.6031994767576
-33.3385148446902
-31.7494170990782
-29.1260535780026
-27.5022934972277
-28.5395797334909
-31.4218774551253
-33.5957069896943
-33.6137371974046
-32.516069298708
-31.9623511092311
-31.5923734750498
-29.2454542228448
-23.9725677104071
-17.9308257457657
-14.4422268289971
-14.4295369761912
-15.7020001263176
-15.989165494836
-15.7469668844738
-17.0874912862408
-20.4425585195884
-23.726131231267
-25.3355968670004
-26.8237049449215
-31.2771958550314
-39.5765995758357
-50.2562667796261
-63.7339715171442
-84.2215895624193
-113.901687447222
-144.71714953705
-159.845106805973
-147.935756339919
-116.128231214856
-84.1708448982739
-60.9378264826615
-27.6421115922044
49.5570003789679
185.004652083172
352.334165666884
503.343729537888
612.604295450177
702.448882437774
818.816255803901
978.49332865117
1140.44303834558
1232.02803183563
1206.08539879927
1074.20439338254
887.044391431309
686.1773983684
477.066591067525
245.498454450821
-7.23222681589074
-251.03021382783
-447.815566036732
-580.974089330074
-662.126659030835
-712.04399866353
-739.934915911015
-742.611166526739
-719.591245804996
-683.271439347204
-652.171064583228
-636.115618108977
-630.072898374565
-621.703110328687
-602.806418551936
-573.574762629889
-539.083784391566
-505.072110382888
-476.951611549205
-459.271382985556
-452.701917211164
-451.336611649737
-445.310192386249
-428.096351933011
-401.417177360611
-372.409830966051
-346.198935175094
-322.04126317886
-296.613068295857
-269.567066974526
-244.4593023843
-224.479979301728
-208.787851961713
-193.912929985755
-177.999444944744
-162.37688154067
-148.863239822626
-136.772899402875
-123.623883124098
-108.410058855284
-92.9810309229087
-79.7399714503342
-68.7300125933216
-57.8156600747469
-45.4800105935305
-32.4398945958407
-20.0978532452715
-8.16215602033235
5.21325318775048
20.9110054302279
37.3305084533415
51.9265967601209
63.8360495433089
74.2497948759321
84.2255408616494
92.9851107711398
98.9840781594793
102.262674025899
104.84100716441
108.505293759826
112.798465647819
115.799569458874
116.670530131497
116.7026931649
117.60889343703
119.387954534346
120.559431217411
120.389628802102
120.122512133618
121.574478898758
124.916265352857
128.498879155214
130.895678379102
132.498817111143
134.692497395257
137.82789638676
140.709384150885
142.200934725658
142.740027794394
143.72481790122
145.603853913492
147.211340822889
147.219051065264
145.784988949273
144.262727966151
143.426425233895
142.596549289662
140.789172524254
138.285267963053
136.463924392359
136.0774223668
136.245588433903
135.523557357674
133.679297969695
131.89608680578
131.189704188862
131.149316255844
130.630981281276
129.422438329994
128.619113157492
129.176358766273
130.533929160575
131.138165118133
130.221061331418
128.578910837363
127.423021185301
126.870475371787
126.034281310501
124.500952883959
123.151074885135
123.184041480594
124.61178948314
126.199624078705
126.938845439484
127.157283020679
127.89932196772
129.492332727949
131.224537026888
132.499870578358
133.832545503518
136.270324533521
139.963665988007
143.771870584725
146.451199163564
147.898852052873
148.880360060875
149.69325001496
149.613855397392
147.888170428844
144.921240636415
142.011434972004
139.892123884724
137.946180613546
135.111241988119
131.296548116505
127.475921149923
124.36972169951
121.478566305124
117.751813858207
113.005409219368
108.206663006367
104.227678464124
100.679582891352
96.3396595878234
90.6148297229643
84.1602607771903
77.9025950666419
71.7916349142371
64.9083749200193
56.7374096494742
47.8928193193337
39.3477067173376
31.2098730973661
22.6680053571483
13.1681268931096
3.26813102819208
-5.92314422949131
-13.9388063357872
-21.2069754385955
-28.1060419067976
-34.1845638028279
-38.6620099610346
-41.5636676435421
-43.9454174295352
-46.8462170075038
-50.2918940099968
-53.6080059078016
-56.5646983110422
-59.7864054278936
-63.8710378686691
-68.4272122062875
-72.3892088461056
-75.2824831911866
-77.8191021021561
-81.0353122652132
-85.0672147322522
-89.1194376379113
-92.6103653169158
-95.9454088073589
-99.8908655317289
-104.396651804165
-108.46321438243
-111.279150105713
-113.17877543016
-115.19287592282
-117.790703282357
-120.43571052048
-122.472659423258
-124.110291643729
-126.174544824113
-128.972565182616
-131.801462486361
-133.779923364373
-134.925407416407
-136.07633007779
-137.784290458336
-139.64267993825
-140.905665012372
-141.522606615667
-142.17712619602
-143.278598313924
-144.277215650489
-144.253190796123
-143.026776581128
-141.327549941078
-139.801716037624
-138.176168169935
-135.683376550535
-132.16481234584
-128.362373271482
-124.995472545604
-121.85928283226
-118.173583258333
-113.749684056626
-109.429576702045
-106.183563598095
-104.014607185743
-102.076352020984
-99.81332549893
-97.5884050070479
-95.9616480761775
-94.6079738437288
-92.3840985976314
-88.5585605809498
-83.6636783543222
-78.8796264460524
-74.749188542044
-70.8723899027812
-66.9189469731363
-63.5436436624164
-61.9071193453538
-62.3496607992929
-63.9168346221528
-65.369771091453
-66.410376395968
-67.5930244710702
-69.1121052184079
-70.1047149334325
-69.4102162066845
-66.8161905261921
-63.1948196313574
-59.3874010986165
-55.302892202525
-50.3677817295803
-44.6696154670113
-39.245413735569
-35.1177154985443
-32.3213026177004
-30.1389386032354
-28.1556171052516
-26.7042978439556
-26.1579119082108
-26.1003510347641
-25.5641546811594
-24.0694007969101
-22.1034055783653
-20.4128134874166
-19.0510808680872
-17.4290125597678
-15.252689586279
-13.0364702247554
-11.4571446943958
-10.3951165262077
-8.96688328324134
-6.55876706230664
-3.53780979924013
-0.721802992251827
1.69053810794983
4.33520415544549
7.79357310792884
11.8031696176745
15.6144113368076
18.9938944804903
22.5110683672797
26.7090230469367
31.2551850634565
35.1966475317374
37.9781050649734
39.8860591857134
41.3846215659712
42.3121712239953
42.0779578111252
40.6008181515459
38.6657596402815
37.1140418712268
35.8690701969441
34.0915264007744
31.3069950772149
28.0573813326271
25.2361527858456
23.0118012802276
20.8140759620065
18.4552691357475
16.902716666104
17.5836100802888
20.9698283443775
26.1478241788984
31.8638067297563
37.7004759322227
43.9472563043234
50.4674095937849
56.1636055402543
59.8268523824704
61.3210920756609
61.6056034228775
61.5865667716036
61.2475768739191
60.0614396163122
57.9891184113663
55.6806188637843
53.6573936992772
51.652463041275
49.0407579302163
45.785103496948
42.6188013167096
40.227731295948
38.5475111647033
37.1098462762087
35.9135423974973
35.5644920004981
36.4410188926621
38.0202575407151
39.3375783719342
40.0207526086018
40.5166257665592
41.1811184927576
41.4612744444992
40.3397800078236
37.5453117734803
33.9614166311877
30.6730885274925
27.8910003055193
25.1809149405719
22.6854443800634
21.6358330286429
23.3067023084093
27.6156463807079
33.1230716823072
38.4558280901549
43.3764770714625
48.2094086202927
52.5040415877647
54.832686163616
54.1321386137429
50.9304032180204
46.8657293057965
43.0481516809454
39.2621922147207
34.8910174431341
30.2284478500424
26.4160093333246
24.1166744717197
22.7195368343442
21.1547037252678
19.2618112585597
17.934694855969
17.8931663495259
18.7298243218118
19.4688559172656
19.8356849696812
20.5085086625277
22.0324855919756
23.90942194401
25.1506150031902
25.5894375734305
26.1768968254098
27.8025794774023
30.1566174950135
32.1256092202779
33.1924121084749
33.9719742146123
35.1675874533592
36.3615274795083
36.313828378646
34.4511213920687
31.6149871284734
29.0701940925273
27.045448531062
24.6893797168065
21.4533824361027
18.0340525766896
15.6135894188582
14.4182800775329
13.5292529626301
12.2021751715364
10.9230315910383
10.7672750383049
11.8986181589838
13.2091337059624
13.5921923717602
13.1646774947855
12.8331781404471
12.8370340047447
12.2918955246038
10.4069633262087
7.75071392657549
5.80236711858991
5.28673672982472
5.44075087476149
5.15683960207552
4.46034572531156
4.33764022627334
5.163190697416
5.89906020088949
5.23947895213316
3.24088617203284
1.25306979311451
0.186316675367934
-0.616761123513704
-2.40846686090201
-5.26740024954425
-7.92453631713414
-9.44062251826033
-10.4664920641129
-12.3287686657995
-15.11561765774
-17.3612837027905
-17.8515568741763
-17.2078839291127
-17.1261542714631
-18.2470161342783
-19.4940384649736
-19.7736016549945
-19.7204986132857
-21.0359538543189
-24.191766705039
-27.5743953103223
-29.3341942080999
-29.5939029055867
-30.1046353204961
-31.7915184285437
-33.4758132330297
-33.5166136551514
-32.1617955916418
-31.3662672486616
-32.2300246343754
-33.5079814106324
-33.2943377469902
-31.675438797278
-30.7298815953001
-31.8151984880942
-33.8539905376411
-35.024209751231
-35.4556251324059
-36.8997979882461
-39.501947669999
-40.2575834041612
-35.9867453379979
-27.4580547127038
-19.0640750816592
-13.9740200925942
-11.0962952350232
-8.37847775533912
-8.34057070721499
-17.6484717445919
-39.6181160665171
-68.5626074372824
-94.11434605022
-111.321032930231
-123.785629399972
-134.97499525741
-138.850235300041
-124.079259191003
-89.3303638746161
-49.9176319058092
-22.447932971381
-0.953221782333479
46.1914466087333
148.009540847451
297.513372905171
451.46380930543
569.703603228786
655.703254755732
753.218007278192
897.555941480943
1069.41171421838
1199.92678046096
1224.29650582225
1131.74597559384
964.706380594766
773.165798551668
573.803489038241
352.776354850677
101.570087436745
-157.372739748396
-381.962248869507
-542.949050948992
-641.807132663877
-698.856999162732
-729.712107555498
-736.342764396415
-717.628120363937
-681.869391190506
-645.303084010298
-619.983085440556
-606.239649307083
-597.0497027508
-586.878358794569
-574.501379750734
-559.299826009348
-538.773860442583
-511.436983284475
-480.404683838241
-451.573362122019
-427.839192453495
-406.585083293834
-383.704661875212
-359.052458686669
-336.499729925442
-318.836983965787
-304.259344720193
-288.817170245745
-271.408247000146
-254.840449328217
-241.840987160844
-231.366445843247
-219.859525203831
-205.524044511562
-189.994421099655
-175.51404187833
-161.65578985696
-145.951881037296
-127.424839545905
-108.213010315492
-91.1471544895712
-76.5066360564805
-62.1395167134465
-46.5979895929564
-31.0518069865326
-17.5508576797532
-6.12794982924081
5.3040776661136
18.1179031211975
30.9800145609045
41.3491765107219
48.5210847999597
54.3106156342479
60.6204953542409
67.1709908720739
72.2995279492989
75.6051061586715
78.8275030674691
83.7807488695005
90.0855171079477
95.6813555690539
99.425090359088
102.393457001917
106.287408359943
111.140211334469
115.345823742003
117.878170260987
119.695202871459
122.473364198519
126.385381722079
129.881203227717
131.771318316253
132.901341589267
135.275437819464
139.803582736822
145.538897971264
151.212447349911
156.878021834231
163.472303232939
170.962785753002
177.637506628316
181.553328460526
182.327404908248
181.073373190025
178.753800259326
175.198910510613
169.966057384487
163.651714167642
157.69768385163
152.861774380332
148.411313625369
143.176622777632
137.121015327554
131.394696850126
126.871711357053
123.188012230359
119.587775361574
116.396222594351
115.024445890542
116.339581534026
119.461552449673
122.589867663076
124.868645110212
126.95575130902
129.644186733998
132.401376023018
133.763581879738
133.073076422428
131.287067668925
129.802103040484
128.813755561861
127.308603671745
124.648476932646
121.667979010794
119.888790794563
119.900250377022
120.9615093852
122.210683380897
123.790370448824
126.424120544965
130.109814399631
133.759859822084
136.312176614862
137.861362283119
139.349003924856
141.268383703561
143.09360323501
144.094586574148
144.313981160866
144.312697122802
144.038036389803
142.437532977406
138.488393309828
132.399008360317
125.443256755082
118.638839949742
111.964089597042
105.049114326812
98.2855247613868
92.7355895046812
88.8542938829142
85.6998519474023
81.764242601621
76.4795933013681
70.5664107634954
64.8659530327204
59.2197712412601
52.8246048062504
45.5054103296208
38.1395776231844
31.6135093117552
25.6650588499848
19.1519116462152
11.4417443234082
3.17061181178322
-4.54917490759
-11.3913070382495
-17.9275622236306
-24.5534315280791
-30.7636249001396
-35.7962776748243
-39.7801099689125
-43.8009256206668
-48.7162076717482
-54.2092872266019
-59.274051531215
-63.4544545881043
-67.2065661951031
-70.9668145856054
-74.268713579698
-76.1964789073265
-76.6534645462883
-76.7647853585062
-77.7991375875845
-79.918369045296
-82.3171899540134
-84.5393076213404
-87.2508926794306
-91.4758198087562
-97.303007130197
-103.751772473877
-109.959178255726
-116.130121239258
-123.00671351572
-130.540367039762
-137.480110537755
-142.414277920319
-144.976426377889
-145.796977756909
-145.439695677584
-143.799268669121
-140.686153031442
-136.670833184738
-132.922144187459
-130.157056469408
-128.033772690508
-125.748530198656
-123.033613454845
-120.296200489598
-117.860454008894
-115.489985241644
-112.923843825089
-110.675889790309
-109.873817295355
-111.149142315891
-113.905394485228
-116.895605967816
-119.397118027626
-121.532121754506
-123.436272037286
-124.512820117439
-123.887345631347
-121.539100942948
-118.594492757607
-116.271296311157
-114.688468691425
-112.959502204617
-110.38516124191
-107.21721775962
-104.09858624201
-101.03807616883
-97.3524266936346
-92.6782416432659
-87.6972573498671
-83.5570159472328
-80.6582111683862
-78.3051667153842
-75.6094483580744
-72.4588382780539
-69.3610598218458
-66.4967614216581
-63.3327242360928
-59.3360118247777
-54.8103898362905
-50.6840555398101
-47.4619496066237
-44.6706734599789
-41.4939767094371
-37.7653249549952
-34.0718290223948
-30.9423408558778
-28.2895176731537
-25.860117059792
-24.0102064235706
-23.6252633113509
-25.1410918863222
-27.8738042934505
-30.5384149683313
-32.3310835457509
-33.256799760199
-33.4236506364127
-32.4083830048487
-29.667501250273
-25.485945162303
-21.1157409903606
-17.7347937048806
-15.4066799137766
-13.291582700158
-10.8062510758516
-8.25767887808934
-6.21107110273199
-4.53245356658831
-2.46049691106771
0.337068697770457
3.13079598716313
4.83703244694163
5.25001094957511
5.27294381119715
5.87701279866326
7.11258353354138
8.36628409806752
9.39806897206722
10.6977630319174
12.6688737504844
14.7745111353054
15.8889774292901
15.5230913750371
14.4061050697382
13.6908994253514
13.7919993387419
14.2897938627162
14.8948069762209
16.0729579417354
18.4293193093375
21.6689435832425
24.5976589757532
26.3033509333609
27.0896760982568
27.997865622634
29.5350358067208
31.2123428496526
32.4006865529586
33.2808836069383
34.5777627884744
36.4321219059382
37.968313636756
38.2411310100662
37.4206583561587
36.7037898989887
37.0412589360891
38.2646645499467
39.6386598527633
40.9910374462395
42.8545154801332
45.4318539684068
47.8369054208061
48.7690381832003
47.8981039068524
46.2407517756969
45.0410278712707
44.5537957170957
44.2131780562997
43.8370690442822
44.1709377178615
45.9824093357458
48.8908352854153
51.543113142873
53.0288418511134
53.7901910869106
54.880530224129
56.515346385926
57.74176537783
57.5902830673273
56.1716804289496
54.3095272484796
52.2624783114217
49.3022175454714
44.780847678361
39.3323961708989
34.6183119553693
31.861329680851
30.929999042098
30.9816857390447
31.6674101419612
33.2776026981559
35.7366607267694
37.9610554685708
38.6291414537056
37.4966521473624
35.592582738486
34.0312260769248
32.9347581785746
31.7520466107745
30.3746620211882
29.4178726143978
29.2408649686285
29.0971221770245
27.7437384757553
24.9053754698282
21.7485999899708
19.7017041224612
19.0774043509565
19.2182687936504
19.8790945836539
21.9010463484067
26.1543036984062
32.0805929472401
37.8414363909296
42.0834896320179
45.1994829175595
48.5068256159339
52.3722476680797
55.6448254327688
57.0718320458554
56.8181824833719
56.0973399123191
55.4035671939208
53.682947638656
49.5752995366531
43.1622841341136
35.9872092405641
29.3447460959273
23.0529301730858
16.2276782343391
8.92269467131949
2.3983318799971
-2.31828577572148
-5.58293052716596
-8.37635526718026
-10.6373339232517
-11.0079437949269
-8.48390368928301
-3.8640617255611
0.954962168222551
4.97629402141592
8.76665334989605
12.8997789883778
16.3273869563091
17.0717880749471
14.5846622685468
10.7206357246948
7.83727787852525
6.21755846441842
4.02290995249479
-0.162816910686388
-5.4780289580803
-10.0304227079766
-13.5838812609866
-18.0259836628022
-24.7761840932304
-32.3802041514525
-37.513083892712
-38.3356512191353
-36.0888821027083
-33.0217774038283
-29.4640399695456
-23.9317708518799
-16.0984100368736
-8.54472173656342
-4.6595265350706
-5.13131602108359
-7.50078727172288
-9.40601963779267
-11.3469304480917
-15.385030144868
-21.5529042658853
-26.8582669848235
-28.4002150662558
-26.6048671360263
-24.3047045944516
-22.8909291616228
-20.7711537114181
-16.3146757117231
-11.2462086971967
-9.54481850039279
-12.9371128598284
-19.0488658161043
-25.0263448132201
-31.7923569867998
-42.5947583829426
-57.1464720942132
-69.6688059989478
-75.1371975423548
-76.7353329567332
-83.8420095913956
-100.690069062637
-118.917492479796
-124.795167324792
-114.154153621143
-96.1239025545837
-78.0397797939111
-47.8553337293465
22.1371681845401
148.550571835129
314.324276496802
478.169861016232
610.781953960996
720.737076979211
840.293332179373
983.333861506674
1119.29523041161
1191.81824127618
1163.99462203975
1044.51707956849
870.861089839184
671.886082693098
451.429192577563
206.914883971512
-43.919445271485
-262.629276389976
-417.99340097295
-510.941869780144
-569.001569362611
-617.433280343881
-658.76548343524
-680.138310574229
-675.640408964448
-656.517886518019
-639.718887486442
-631.074876591422
-623.109131277769
-607.604503029367
-585.797771437889
-564.469147958758
-545.118679310761
-521.388116596857
-488.099682020439
-449.956645571381
-418.451642420926
-400.37103527573
-391.415028361961
-381.799203222158
-366.411700044584
-347.834627336447
-330.37562651199
-313.935937376209
-295.178127861325
-273.207075244944
-251.564381304084
-234.005634734083
-219.951311956205
-205.58970016628
-188.872541171428
-171.675779839516
-156.534532898962
-142.708078219834
-127.063920558924
-108.640967332854
-90.7226424005074
-77.4524494369973
-69.1510136100903
-62.1911130891853
-53.4377486932457
-43.5484354783587
-35.1593728115139
-28.6843685012073
-21.3634359762416
-10.7351849131865
2.10543598667729
13.7222786663958
22.4127589926049
29.9198955562676
38.7795228468657
48.953797409221
58.1158961230088
65.0004074781377
71.2459312581789
79.2778329450504
89.0532442384832
97.9514334731719
103.936156228892
107.892540328356
112.230134756177
117.740606080587
122.839882745077
126.030471526629
128.164408926471
131.458260185288
136.588724494465
141.73376758435
144.828734221672
146.089101326748
147.566071019467
150.428754861101
153.570919765998
155.257287397045
155.462253577117
155.719526036904
156.723539268691
156.981493176032
154.438324501513
149.04435302039
142.965333853442
138.212852536985
134.802447649982
131.736695199848
129.285129500482
129.301526358273
132.982766514723
138.983267707297
144.469601899724
147.920002011374
150.202633838367
152.696623649545
155.033065365484
155.442596127958
153.195933987238
149.834001559072
147.467497959995
146.289302981408
144.510007350308
140.800983454569
136.101306870712
132.510411357511
130.774718603371
129.629404214697
127.74353801688
125.597753544479
124.782100814908
125.669892364754
126.598570531878
125.71872014427
123.17375828314
120.84156036956
120.039233182372
120.183743924203
120.048589999034
119.801125418617
121.012025766616
124.56830179583
129.245167395318
132.876386876691
134.694768445143
135.91449253033
137.923870709811
140.503593558494
142.318436279665
142.861098617926
143.146310283296
144.196823073968
145.349076754649
144.662851159972
140.945577931605
134.804898268718
127.477227637222
119.11998282171
108.879069552657
96.5661529149879
83.5632612458822
71.6029700890788
60.9672723129337
50.5056607199154
39.4984242339507
28.9222314665748
20.4216887418156
14.3099327440852
9.22635808836688
3.91428081564032
-1.22103527251752
-4.844115646484
-6.76146315183169
-8.57858766097793
-11.9934459284291
-16.8607852365355
-21.492129199947
-24.7932052080557
-27.5100146807275
-31.0703764708215
-35.6442619686808
-39.9992523226244
-43.2956742309627
-46.3860416102707
-50.842843547105
-56.938081115078
-63.1793715003508
-67.9784941815031
-71.2852710697957
-74.1536128447797
-76.9797150456839
-78.8667982015328
-78.9848540273144
-78.0607938756566
-77.9080696991423
-79.4880783178062
-81.9577707573841
-83.8956660935957
-85.0788469452366
-86.5221581505122
-88.8344024750253
-91.172820605565
-92.2457396701738
-92.0494776524781
-92.0086085193908
-93.270987431679
-95.3373200470236
-96.7766491357578
-97.0700965678637
-97.2042305364077
-98.3371139030329
-100.390284468436
-102.433869922758
-104.264983510374
-106.955675448071
-111.529980116574
-117.456240847197
-122.930387550504
-126.595103876487
-128.499240052492
-129.189951011915
-128.360073542439
-125.035457451302
-119.125482209298
-112.197324760388
-106.257092530579
-101.950598125004
-98.4231340912478
-94.9466629266562
-92.1249442030918
-91.0800665028178
-91.7460656874956
-92.6315749526006
-92.4859775476435
-91.7394407205308
-91.8063726281241
-93.1111882086362
-94.3868120628617
-94.160168159699
-92.4989001965777
-90.7753642549378
-89.8227965102349
-88.9583712669331
-87.1582331054547
-84.7720326470233
-83.408826323389
-84.0335491320116
-85.7082143310345
-86.6139761710194
-86.032399829505
-84.7453049694636
-83.4417243153702
-81.3749755761919
-77.1644476303117
-70.7350664696436
-63.7885330031201
-58.0652002894881
-53.5585224010748
-48.9473282622078
-43.6405533504157
-38.7396051325294
-35.6668428933219
-34.2933300180984
-33.0638294561681
-30.980244804766
-28.8379399235695
-28.070992140526
-28.6997828038617
-29.0647906320193
-27.7073630259929
-24.9722950519671
-22.3067245216116
-20.262897574161
-17.872534052545
-14.1810198272324
-9.82843992484489
-6.49426722146866
-4.8697116260164
-3.80295533829525
-1.74486762754742
1.38742645350337
4.33170713770012
6.34027812368198
8.23668490004251
11.2334704848691
15.1038986755309
18.2105645411068
19.4495336905887
19.6006012167484
20.3049391410972
21.9849359472723
23.3998824030806
23.3690732933918
22.344724411561
21.7467167344388
21.9700389856503
21.7624618102306
19.8644300932563
16.7884863576418
14.3893895524762
13.7530973094147
14.1191564954869
14.164838396283
13.8669993058998
14.4434490946948
16.4898720320346
18.8756996105063
19.9710043725839
19.6561438940499
19.4753803152928
20.7092845034248
22.8697980455172
24.5421353694652
25.3763428672127
26.5220850533769
28.9175874480726
31.7627530883226
33.3104367782926
33.0240082351693
32.2787528126411
32.6579976119092
34.0604188945182
35.0823728700072
35.1101103252275
35.2694763256251
36.9059198457177
39.6056319151268
41.4574900807476
41.313743402804
40.1090070444491
39.4696786001642
39.4101054096761
38.1619064899474
34.4079642280808
29.0110491054721
23.9590425014103
19.9122061923865
15.6108887855718
9.96806399256909
4.09377616658131
0.505437629782122
0.418117741142861
2.53182069996142
4.81340425928523
6.90696474373752
10.0595279604627
14.7844287591956
19.4928031745732
22.0316709512194
22.1875711342586
21.8854858941526
22.8018788645395
24.4725381415225
25.2737841658463
24.8399952403344
24.6238771596659
25.8608595029149
27.7333804195736
28.3001279715442
27.0442527675264
25.6664948281251
26.0261271647812
27.9176912841571
29.6030652383223
30.3427843147537
31.4801537787015
34.5626063228112
39.0048099640084
42.5107952132372
43.8340733967193
44.2709036616769
45.8618576745118
48.6208311004053
50.4540537391238
49.9049155509956
48.0864194219993
47.1956264050279
47.556107063867
47.1655369387069
44.44603984174
40.5844686601469
38.2778541539693
38.4160011509783
39.0243132886683
37.8732953700329
35.3138903698844
33.5668812891441
33.4142482260606
32.7796796529469
29.2531676781016
23.3299657350281
18.0352902024309
15.2931964739507
13.7395688346388
10.8453482598996
6.51796008650824
3.34316574925773
3.09326540456711
4.19419579083023
3.67734477640239
1.14021798700999
-0.602222513452741
0.799467489954456
4.03859041888152
5.78153365775339
5.0208722989159
4.24232032045637
5.65189457239191
7.53638274924971
6.05018655610653
0.564196980642411
-4.49504198075342
-4.31454609256659
0.668477869026479
5.45311519942953
6.84964260469557
7.26750144663375
10.5487337457401
14.7750287487489
11.4870811371061
-6.76414450920061
-38.9019619509421
-76.1186160564852
-108.965610101902
-131.7894877369
-140.955070838515
-133.032466825514
-108.751565007856
-77.5617641939085
-52.0362056926702
-32.410005013697
2.13985282668081
80.0920475088238
209.849369325871
365.969588708598
508.264970099152
618.444902010553
716.5936248264
837.305560069649
987.334046300013
1127.9864639475
1201.32763073808
1174.43700357343
1058.68442478775
889.086845701109
690.270817054016
465.326563514419
214.149333661245
-45.3019342776027
-279.317596614582
-461.062096029037
-587.293143651664
-672.005222477386
-727.230586701189
-753.798096549898
-749.918122500593
-723.480562585854
-691.352121046273
-666.617563969924
-649.496942771419
-632.206224326973
-610.780031030768
-589.559582093722
-574.393315672178
-564.439645071939
-552.891586518922
-534.916831519806
-512.494478306972
-490.698503666562
-470.954618280692
-449.82707957986
-424.115624958766
-395.181173018751
-367.193061992029
-342.177354440013
-318.447990007872
-294.006521531678
-269.953865455872
-249.350080995673
-233.222906743281
-219.069311679276
-203.702889491524
-186.632367817811
-169.737515313897
-154.039597439584
-138.030252539447
-119.693500398954
-99.4021135555934
-79.8439409812513
-63.140915714115
-48.9112065398812
-35.5879672954597
-22.9845322295265
-12.6352674110416
-5.57587740474632
-0.639785238394072
4.42563423626946
10.4887574565115
16.4059774152089
20.9520149979109
24.7124965861301
29.5144141824167
36.2472937188111
43.9442156017657
51.2146407969403
58.0338044925401
65.5475323878742
74.2566493729085
83.0508636347681
90.3678938744707
95.9562423799714
101.007064605423
106.607010946828
112.582248663612
118.132812331018
123.228397530626
128.804603581141
135.498276737289
142.638023645888
148.851857054297
153.519705316465
157.237268052643
160.803907996146
164.146319563936
166.556973570912
167.810009627676
168.580242470005
169.589048659123
170.627462627425
170.760612361072
169.452976179509
167.17901772573
164.808505448105
162.648279189682
160.374025550737
157.81621383181
155.432436855724
153.790043663095
152.768676583544
151.587292983682
149.664254043925
147.227030986882
144.941189493088
143.112075559663
141.507745435376
139.947767111233
138.760850228742
138.427974164795
138.869795300526
139.351345330068
139.182592730098
138.363739903214
137.416160985205
136.695916832283
136.095338755186
135.437480220384
134.919131720666
134.93628272764
135.514891591559
136.136220124003
136.231248571995
135.737520077213
135.049070770938
134.501053702234
134.103185086057
133.820197115885
133.903594483378
134.714075756915
136.221507290446
137.884515191533
139.158158242705
140.043532810421
141.004223960536
142.372350566224
144.003230744749
145.571725048384
147.028132201266
148.519914398768
149.8273099234
150.072625591858
148.187384522639
143.692416114053
136.952474814691
128.70331627073
119.48949559612
109.643257494534
99.6517264744129
90.2540769217892
82.01669595903
74.873928730125
68.2123438130385
61.4209599759857
54.2954746623698
46.9313295740243
39.3894034797633
31.6152564772954
23.6475622696275
15.7262596548921
8.07854531698911
0.647663816555777
-6.85921855347901
-14.6405537532934
-22.5852542641587
-30.3959776480977
-37.8266226194288
-44.7107472420436
-50.8175171130953
-55.8544396343603
-59.725041651257
-62.7385481421227
-65.4532136341742
-68.274192335624
-71.2412822514783
-74.2006645426934
-77.0732951466777
-79.8535324767789
-82.3920052511084
-84.3524964915644
-85.5117754517878
-86.0815991385739
-86.6397956682751
-87.7082026518474
-89.4319677257247
-91.6642316061769
-94.2566220153879
-97.1600180480099
-100.274052369874
-103.358071878275
-106.216249089573
-108.951998780618
-111.943509167412
-115.526780474099
-119.729104865848
-124.299005430936
-128.886536938396
-133.094534846571
-136.410948125696
-138.292539102
-138.487035522179
-137.291038764218
-135.419461969688
-133.597655222302
-132.311268253737
-131.904264050285
-132.720465752479
-134.932916277899
-138.202481439745
-141.66936064755
-144.448074231664
-146.145203092815
-146.825231113962
-146.507997669779
-144.871760320007
-141.565110515382
-136.714800951739
-130.925290824939
-124.72154824545
-118.153568899031
-111.121207957098
-104.039974044336
-97.957974834988
-93.8611893676975
-91.9136258829195
-91.4805397241982
-91.8242605609514
-92.5610978683355
-93.3543003615408
-93.3865415104923
-91.5009969109012
-87.044451540116
-80.4812551874576
-73.0361055318428
-65.7570494823633
-59.0401259608864
-53.0133079069994
-48.0861468313206
-44.8324009362033
-43.3308026846793
-42.8680099070615
-42.4850857457499
-41.7775940784449
-41.0291056784187
-40.5846275677258
-40.2804140038728
-39.5947936367873
-38.2246859011694
-36.2936359549523
-33.9640917505656
-31.0493554749738
-27.1985918672217
-22.4282088501977
-17.2924537145242
-12.4583163062249
-8.21670221375789
-4.49633653381149
-1.24138914725472
1.44279814081734
3.56624937090005
5.47338622405425
7.55790391109234
9.74777276829877
11.4418456523388
12.0600105300231
11.5762934904937
10.4102517775737
8.88446753930772
7.01581263112174
4.92667877225502
3.26351209829495
2.91627139579314
4.2273258746112
6.61162823295339
9.08776161947525
11.1354170778034
12.9232887882221
14.7644514206996
16.601778362525
18.1957625029478
19.6879430202117
21.6792775899886
24.5962646830957
28.0763107725007
31.1261897610446
32.871267506732
33.0404832432331
31.7621786667019
29.1520269445866
25.3425136676473
20.8628795547708
16.6946670398177
13.7274661908061
12.1799483973945
11.6669657411761
11.7955317548143
12.5231903236682
13.8878082076924
15.6059317121564
17.2174017083367
18.6622605590662
20.4910165273764
23.3066501460428
27.0403448596436
30.9397286166152
34.289570974515
36.9875298302525
39.3309486618637
41.4175006682617
43.0297602842199
44.1496509032522
45.325665356516
47.2610630930441
50.0331321692087
52.893925085917
54.8948803331776
55.5497609362334
54.773336230921
52.3668162969249
47.9478386231323
41.5638843229836
34.1685373884559
27.1676982525975
21.4125259611446
16.7976529834884
12.918791989276
9.90989354760519
8.36477597330533
8.47472523619163
9.58859960787463
10.8798532415706
12.3270254738969
14.7231657567289
18.6234679573952
23.5080881668722
28.1967414691744
31.9881273332007
35.118367011253
38.0589792754067
40.6771151536111
42.3961947534906
43.1046221437975
43.5296826624155
44.4947120534729
45.9718182883425
47.1365395011956
47.3329452218914
46.6970486077323
45.7003211788535
44.3514828981188
42.2302966107449
39.329967161995
36.4908492031246
34.683554517349
33.9592623701664
33.4254326617581
32.3286865415303
30.8790159980841
29.7748829120657
29.1072821541567
28.1606202106123
26.4268649339428
24.4609512969642
23.3051402226987
23.0602383827482
22.3919653177525
19.6894708493022
14.5503623368371
7.87231824909551
0.608276873905165
-7.09758608747929
-15.2730406328548
-22.918272485569
-28.0016894901473
-28.9090570534795
-25.7256863065308
-19.8995170961624
-12.8062122220025
-4.96521574310502
3.37204852496537
11.3742185957531
17.8542890206961
22.3133730254815
25.3673790804417
27.9269996187591
30.1623556257152
31.5314191950133
31.681247717516
30.887024930009
29.4434596162717
26.9932950263106
22.9323233893762
17.4891217191741
11.9769873039546
7.6910047691634
4.76457326735926
2.47806339474177
0.640633689941929
0.1827667293615
2.07124657138416
5.91486385965285
10.1625148166335
13.7687834249356
17.2095436142688
21.466109441952
26.2236960876311
29.6363208297944
30.0640717565197
27.6520510519523
23.8081637322367
19.3457340456449
13.7557990954617
6.52039963818476
-1.38668397901909
-7.96643062793948
-12.1825979681792
-14.9562575405202
-17.8895147107223
-21.3822604882885
-24.5497880925525
-26.894232295761
-29.3122100050279
-32.9426487984296
-37.3661122317431
-40.6851281506416
-41.5750570139022
-40.709774660262
-39.6947879235388
-38.9137022146975
-37.1505871810974
-33.4644953151728
-28.7121962190001
-24.5390513226411
-21.1234006680317
-16.7991894253128
-10.2652758713463
-2.54169310367874
3.99731239389981
8.32304370081239
11.5705420422541
14.8079643405811
16.8081406600106
15.1156629880912
9.34711962238145
2.40201965716684
-2.32079858188892
-4.41068980030668
-6.25202358439173
-9.47257031175214
-12.7814402694283
-14.1279216585585
-14.350561405163
-17.5100351927598
-27.5980862270046
-45.9887879822644
-72.1543505273934
-104.522717018559
-137.874521008725
-160.47800769301
-158.553508997883
-128.442545499555
-84.1851199706063
-47.4339166663756
-24.2643925051347
7.81514109787313
83.9874688994693
217.767004258669
382.387770600451
531.063277059644
639.755587278587
729.234385985932
840.94169029619
988.340915163863
1132.63230329062
1208.50039779567
1175.21490986536
1043.89332754517
858.134423236821
652.857006538521
434.218295370987
195.727895717773
-54.1523151058274
-286.018931734631
-469.95861583344
-597.394088909009
-680.824357917163
-735.172292252042
-763.88713060483
-763.820882282235
-739.208267772047
-705.689364775319
-679.261478590536
-663.485231723231
-649.407794287156
-627.210127382747
-596.149071796103
-563.459725975753
-536.244808566868
-516.441197833753
-502.505152310131
-492.784800384269
-485.483955427703
-476.763750226377
-461.700220893306
-438.381999145026
-410.143305369274
-382.495688168503
-357.891729776737
-334.322701880795
-309.075428700951
-282.738319008786
-258.608149076323
-238.637903207995
-221.208913239801
-203.3083500271
-184.031566829222
-165.005890344653
-147.634578556793
-131.080304579766
-113.566449340427
-95.0223053602921
-77.4440383216163
-62.5322239244522
-49.7492551735322
-37.2331588392868
-24.1798140659399
-11.5241620217931
-0.215211177309168
10.3836786156542
21.7386062712241
34.0851430999089
45.9005543813741
55.6883587731374
63.7777803590785
71.8372608196905
80.8075249817805
89.9549197238887
98.1510910974212
105.508000063973
113.095662827797
121.10684257771
127.9609466897
131.655131452827
131.768062510439
129.702579522429
127.021223379562
124.07204028624
120.527756626098
116.858857025578
114.592313959388
114.91796108563
117.437632517988
120.672852404544
123.677308331178
126.760058636879
130.59060807467
135.049560141769
139.358702042583
143.181610398907
147.080589905981
151.657333937078
156.540466137058
160.614480886518
163.231195767312
164.851276317419
166.341265640143
167.917389126867
169.117330389158
169.726550424225
170.286284695079
171.40841699691
172.782781521537
173.236417708423
171.855379174328
168.807774163007
164.918074191056
160.657399363683
155.885371591004
150.568261888015
145.350003652681
141.080263302715
137.866647265244
134.920865680155
131.45927742553
127.54902103447
123.883571145237
120.881570228786
118.340280475804
116.048592299203
114.422830635064
114.191500397731
115.467490410702
117.431795446621
119.105791632025
120.288347933508
121.531194790453
123.278930277897
125.344164839406
127.362065565314
129.511297863666
132.428458170237
136.353087041734
140.622348157553
144.231523798646
146.811182682358
148.840874740156
150.90806000327
153.015596185278
154.788442020176
156.181824170503
157.631150458609
159.37066290678
160.806675718587
160.812351653886
158.648377832485
154.444316402292
148.778108873651
142.02189640566
134.291620052352
125.900615364544
117.505615990366
109.611257648031
102.067647166708
94.2836331486508
85.9377204063152
77.2838775874603
68.6802268337477
60.0190523500225
50.8772646922133
41.2171562314847
31.6688797177981
22.9228830704938
14.937054147518
6.96819163040198
-1.56346823823691
-10.3979093385063
-18.707407843067
-25.8872685623761
-31.8657419759373
-36.6765495707806
-40.0490047646858
-41.6963753603143
-41.9607360216765
-41.9125465064983
-42.6733148302927
-44.7293773424772
-47.9931136336682
-52.3735735826561
-57.9913696904971
-64.7512076249658
-71.9601808907729
-78.6920729323312
-84.5928703008529
-90.1503648468488
-96.0560233671788
-102.415902338684
-108.742116342158
-114.64067127061
-120.237193066714
-125.789449358567
-131.062868874261
-135.381284903957
-138.362125921126
-140.409790704863
-142.320223405672
-144.473194554162
-146.574879492678
-148.149568589646
-149.019898870471
-149.139968348552
-148.137088618022
-145.378164552577
-140.64977284089
-134.622643425081
-128.456165313461
-122.989622609379
-118.498796810243
-115.217196448451
-113.758112482938
-114.690247893104
-117.716567583301
-121.580810292209
-124.994620479366
-127.556386393507
-129.570191018888
-131.034121357589
-131.132333450256
-128.932079335327
-124.429829766946
-118.609897869667
-112.417115612676
-105.926153894231
-98.7354719929898
-91.0424333282997
-83.9807057712129
-78.7368431707396
-75.5025124891038
-73.5055053212758
-72.0011799820146
-70.9653224471062
-70.7264284788139
-71.1828295097156
-71.7196522305671
-71.9279563364514
-72.134150774876
-73.0093973501144
-74.7440744657475
-76.8070206376422
-78.4981305005359
-79.4867233437929
-79.6635605151402
-78.6709103199847
-75.9460725643435
-71.3644975744358
-65.6473654337186
-59.9097079057286
-54.8262094566998
-50.3990554321859
-46.5165782534038
-43.4481469664049
-41.5440273618887
-40.5481423564455
-39.5410550227444
-37.74448863452
-35.2519555543182
-32.7741315984189
-30.7194346942737
-28.7678532205219
-26.4301863919821
-23.7889184649857
-21.4060221769613
-19.5330279349415
-17.7262275566605
-15.4443693042618
-12.8729837280465
-10.8654342379661
-10.0185287982779
-10.0324086689391
-10.1334079566635
-9.9463794154931
-9.64033127175738
-9.19422923372264
-7.87019298448126
-4.75372916052084
0.212375040621609
6.01130264651347
11.4822218070166
16.2756558689984
20.6971237824428
24.7603997378892
27.7940704716329
29.1787891746716
29.2437986031649
29.0777845239525
29.401915526805
29.895475257977
29.8108652937935
29.0672190564595
28.4160126934948
28.5021884683891
29.0827671104295
29.4281062117028
29.3461336961591
29.4381011913206
30.2160301794778
31.2362130892648
31.4137811787871
30.1601281598165
27.9264133570316
25.5219436901099
23.1567531090544
20.4560121413019
17.3482093736652
14.5487935442577
12.9114939292407
12.4528879848181
12.3238443742608
11.7840087179147
10.9511047191262
10.435471958565
10.4514049385236
10.6356055904581
10.7730464214457
11.35371102448
13.0991902012309
16.0149825383313
19.2158489846472
21.7813025129259
23.5457543609987
24.8394326702984
25.6308365326523
25.3370616617256
23.6386049356167
21.2019653968556
19.2441496806712
18.3904461707844
18.2652750555092
18.3419205027217
18.9193420413524
20.9011330873422
24.6311855432746
29.325081577356
33.8915688110945
38.1029813713231
42.5754755891854
47.5670700649524
52.1879555892096
55.1303203029876
56.0546513402238
55.8863080327658
55.6623118495893
55.4304588009705
54.5999473866813
53.2025487861107
52.3002255867324
52.896193831648
54.7101450902971
56.4179627868794
57.08926922616
57.0178136200328
56.9498164476558
56.812176563904
55.6701426513786
52.9820515482805
49.4677233252993
46.3877371226274
44.1172222244707
41.8388717680458
38.7305528007393
35.0887507190086
31.9489420991703
29.7598279443559
27.8939443831718
25.6282735274963
23.2569575079364
21.831894863138
21.8713153944736
22.7546766101005
23.5928799706806
24.3811409522575
25.8735291537721
28.3583481372427
31.013160102759
32.7402271967722
33.3633466018759
33.547570317287
33.5309080851891
32.4229922000916
29.1357576270926
23.8149565918145
17.8765998976161
12.5228359475952
7.62604390306156
2.42283094525479
-2.93245173460637
-7.09268950948237
-9.00635554810171
-9.2787797350972
-9.57214603058408
-10.7076970093184
-11.8394205101382
-11.7171660806839
-10.3701603323331
-9.02404967251259
-8.40619816534261
-7.72825778486571
-5.74732839190465
-2.55171636626235
0.276351001358822
1.37417174684731
1.00236445037956
0.379402513427063
-0.0868550817090696
-1.28247550880567
-3.95555553613417
-7.33261428532042
-9.71402283489127
-10.3467979245497
-10.1418531652696
-10.2999707205236
-10.6711720925351
-10.0242621837915
-7.85813409807042
-5.31985719008301
-3.97037302645655
-4.00742877821336
-4.28901373940003
-4.09786721385112
-4.2447675502768
-5.97466076378833
-9.08803792950822
-11.7811812375574
-12.4552322386396
-11.1414022765854
-8.73636913016069
-5.22267205571637
0.558904183210799
9.14218842889935
19.0389972379861
27.7264787294435
33.888502761447
38.0526436857781
40.869146785061
41.4743724547265
38.3251208963812
31.5212794955509
23.4393026002092
16.5703696552201
11.1920374284508
5.88255301888682
0.208328305446717
-4.03748370700315
-4.85256682111813
-2.74820669296598
-0.502341375307651
-0.0595510982397798
-0.521712757852812
0.120046194497837
1.76587770234962
1.83336557356228
-1.59752166000459
-7.16890146248164
-11.6921539464779
-13.9189783740579
-15.7521551673075
-19.2864474143439
-23.5997662941021
-25.6534128109924
-24.2423147096786
-21.7570762452371
-21.2699509170963
-22.6822771590758
-23.0754512344729
-20.8919004675878
-18.3514923035323
-18.7153773911647
-21.9614276926243
-24.8075346298918
-25.2766023058653
-25.6083865580201
-29.1621277607936
-35.11186027836
-38.3343813779877
-35.4369580124622
-29.3697081841158
-26.1667537104178
-27.5635457658088
-29.3617132854609
-28.4875435592588
-29.7860740845611
-42.5843278634841
-69.7085345437051
-102.340917183763
-128.064412385356
-142.890897471125
-152.160434325419
-159.05924574905
-156.458110795936
-134.869841969827
-97.7566391338457
-62.2554856422997
-38.6541272516746
-10.4240858230972
57.5768787793134
184.52099466078
348.11254617882
499.96634592494
610.974499114288
699.710361039404
810.62850942998
961.422740723514
1113.83758984755
1199.63556271399
1176.29106884711
1056.92178837977
887.837595189736
702.029203112388
498.174883298948
262.227665481064
1.6691127712126
-247.272257544282
-445.235152886764
-578.015891586044
-658.551657362365
-705.692992925543
-726.467292498577
-719.112008654646
-687.51759976872
-646.631255863033
-612.820992250476
-592.193812639191
-580.367221950311
-571.568168461729
-564.515513565539
-559.239490599703
-551.911836372234
-536.543073565859
-511.864759021111
-483.854287719149
-459.713835217061
-440.307345484002
-420.247681097683
-395.247030628925
-367.450396107312
-342.453377168817
-322.319883063179
-303.53242632928
-282.029625425286
-258.490966017598
-237.216166477836
-220.474847341318
-205.788485282045
-189.390717645246
-171.056896319733
-154.060974625831
-140.625826720833
-128.983324264545
-115.760741949471
-100.382898711571
-85.7652047085193
-74.6073980403868
-66.2325012369284
-57.9080341583464
-48.6040669715315
-40.1459256113555
-34.3967915143559
-30.3479830855465
-24.9383954735728
-16.4108200076688
-5.79493801538443
5.21764190011941
16.9382872509236
31.2668192498015
48.8268937819899
67.5544197273538
84.6466045613812
99.2991758702973
112.684070247255
125.362843196953
135.741529213295
141.73375020592
143.48018397134
143.524475615106
144.160778477279
145.340804910486
145.732477926288
145.356062647889
146.19045202987
149.879262971207
155.529588080926
160.512115105179
163.286742363648
164.695143999004
166.214465119491
167.608388788749
167.095427466068
163.766602027874
159.020320400159
155.09482958037
152.5812362724
150.099086217126
146.467265563465
142.482265136438
140.006262271206
139.61744353695
139.912043951555
139.32858049921
138.06686507756
137.608959605302
138.530203664192
139.509106353073
138.837546231689
136.464956515798
133.95684225393
132.493359020522
131.537361281285
129.831279336825
127.298199012971
125.290579476057
124.868367060987
125.392065235933
125.280736927978
123.946735424481
122.42570943121
121.974025911575
122.53704749972
123.06030185599
123.119298972554
123.623534610926
125.635022277535
128.865186323409
131.831878252098
133.46971898688
134.11964535232
134.709518757519
135.335579822477
135.173531498081
133.794039771392
132.055801259452
131.33000624077
132.055360594245
133.511485280364
135.057045574809
137.123395908827
140.603281727222
145.449721164451
150.381308657481
154.123108161021
156.556273254573
158.263985357629
159.116103988098
157.861604048789
153.397647132258
146.142404156733
137.724310289896
129.337721792095
120.823714947218
111.571032548493
101.947835073337
93.2911182093198
86.3973537951306
80.4676133323263
73.9271221680458
66.1462359827286
57.9443242570188
50.334498639265
43.2006124923231
35.6000295329339
27.2048117285348
18.9099444537702
11.7703504523825
5.65201334917413
-0.632521531589987
-7.87126371616927
-15.5488041242794
-22.6061148203296
-28.8013890090485
-34.8771256884423
-41.3783757758516
-47.7719491258002
-53.0942587061429
-57.287505641034
-61.4308186091237
-66.507239430239
-72.2727788817666
-77.6623756464788
-82.1532237632339
-86.2716993039695
-90.6040213914602
-94.6910832530418
-97.3671852991063
-98.1857464635721
-98.0907956066237
-98.4226171284022
-99.4976719414284
-100.559184807199
-101.112036233594
-101.855084080698
-103.960096555775
-107.621003995772
-111.767026969515
-115.326958381
-118.412674161678
-121.891787903441
-125.911309645681
-129.297614499388
-130.631435030518
-129.654717280646
-127.278899261333
-124.295358951944
-120.530098862139
-115.521928328038
-109.751687404278
-104.711084320895
-101.617910105538
-100.349134987568
-99.8773777011039
-99.569623404325
-99.6705360237245
-100.458889811284
-101.345597299776
-101.225065475466
-99.680441391912
-97.4712511113427
-95.6477696746192
-94.4158480286073
-93.1715915999914
-91.5717849927542
-90.1719788943555
-89.7930214364763
-90.4953347525979
-91.5521630555317
-92.4569084373901
-93.6050775041694
-95.7225426129528
-98.7869549840817
-101.869703517285
-104.10683683552
-105.519332070295
-106.630312938042
-107.456769684996
-107.294264218885
-105.626946341583
-102.932924168642
-100.231136286083
-97.8718599828067
-95.1188403298979
-91.0846117702203
-85.8264867020949
-80.2017580523904
-74.715682387632
-68.9303921380354
-62.2608885442187
-55.1201815836332
-48.8491156396925
-44.4073436214561
-41.4210733650994
-38.7592492642484
-35.8756364916411
-33.2166359875885
-31.2610927671648
-29.5585864438511
-27.1094107382498
-23.6267302811296
-20.0188457001102
-17.4131885159756
-15.9267896325783
-14.707520873864
-13.1202301993931
-11.5016514005644
-10.5405099089223
-10.1860113826189
-9.59905097430212
-8.24510490937266
-6.68166926430111
-5.9727232094088
-6.46219441670569
-7.47191011212291
-8.26069026736923
-8.93096254167942
-10.0858713870983
-11.7482362315342
-13.0551926484328
-13.1908694536101
-12.3244968264098
-11.2736582016149
-10.3081086003701
-8.69014305296977
-5.60359951868776
-1.27516408970564
3.19550611694955
7.0830526378067
10.6999858061153
14.5728288131677
18.2333951713623
20.3202872620297
20.0124414207938
18.0272165650281
15.8846729588471
14.3219747058176
12.8218340591918
10.7720887258526
8.6608223574184
7.68386613522429
8.24639590666966
9.33511387039981
9.65703058187021
9.17098903169278
9.12070251060886
10.5802907365541
13.3748913041009
16.6618860098106
20.25642630917
24.8574256757182
30.8590335705256
37.3593120797991
42.7483404647698
46.1915858300346
48.1642094745595
49.4581508224036
50.07240743882
49.4665183352874
47.7483282085864
46.066986226486
45.5520897597404
46.1436374904383
46.8756319445738
47.2680268121668
47.9858487770974
49.8793160213699
52.6939657411751
55.2218168381327
56.7530218539981
57.9014463838266
59.6455737839693
61.8037885813064
62.9972013153147
62.2533835262769
60.2104169630556
58.3164310385533
57.0017829480981
55.1754568887685
51.7130697511366
47.0073934827976
42.5452149815207
39.0467256766516
35.616277245074
31.0733138485951
25.7843503907676
21.6134133524128
20.0009233058815
20.577995568223
22.0047491152719
23.8274799437537
26.8668304395907
31.6501092384191
37.040197432096
40.998578282486
42.6166101375419
42.8497941594934
43.0522215871783
43.2595068972005
42.4509214121086
40.3582121818716
38.3057749932919
37.8433715116955
38.8999185988976
39.9008216694875
39.7541758342129
39.1406284183854
39.4208733436297
40.5909715787113
40.9790382979893
39.1043417440442
35.2874600218528
30.9430641053742
26.5600849549469
21.1145413658317
13.7519639447381
5.53390860647041
-1.09832405338708
-4.52702342327262
-5.06387233394742
-3.70058154118141
-0.384064909158468
5.74015805355114
14.4379490251869
23.5293612563307
30.4615887427814
34.4493115609849
36.4796518322093
37.2754552966409
36.0382462640303
31.7298877828872
25.1374154402197
18.741670188301
14.2696047581947
11.0213283806989
7.22987087917581
2.74780640249798
-0.508292218291032
-1.04948673448099
0.0141908686562182
0.109224971464155
-1.69678795185089
-3.68300398897912
-3.98645503668208
-3.38291556048281
-4.56778974351807
-8.70591451659944
-13.7339713541947
-16.7620881757971
-17.5528702995651
-18.5246836897292
-21.2320792378983
-23.998025950382
-23.9716195724445
-21.0145329453906
-18.2221846767619
-18.2037134154318
-19.9306206202184
-20.382381272001
-18.8874610071924
-18.3197821431888
-21.3663914597771
-26.7635146306302
-30.6829762367703
-31.5968804248228
-32.0013788140813
-34.345712921473
-36.5379710389482
-33.5905583507856
-24.0037504701554
-12.5965521093683
-5.43999295057984
-3.02296922699801
-0.921896336558901
2.20399821274418
-0.0760655102005874
-15.6678810706442
-43.1177661128723
-70.1356679846459
-85.0717946635784
-88.4208474191833
-89.9848951099093
-94.6288310378007
-94.7141641538625
-79.8840079410823
-52.2096453508286
-25.3987670487236
-5.29242423356098
25.421708978127
95.7093658075815
215.72464865573
361.203494611349
494.315719446317
601.736375621275
707.48932586244
842.575249115125
1001.40270553324
1132.65368933304
1177.25410561937
1115.71154802047
977.106035299759
803.681445162078
611.76054221102
390.173306176744
133.109195836817
-133.542077310629
-363.261232605917
-524.598439998278
-622.192025272167
-682.545532437526
-723.567605200242
-741.743018142783
-727.147146715032
-684.725085078223
-636.3990031565
-603.326496377576
-589.672509524486
-584.494506988772
-576.192779037988
-561.994320378106
-544.683423260459
-524.990565956392
-500.634790769119
-471.623410552956
-442.75332420962
-419.050064092323
-400.196356401441
-381.523446690682
-360.292358117222
-339.017121083491
-321.655518342234
-307.908135352499
-293.170720981338
-274.138410314128
-252.764391862202
-233.606562793408
-218.183095538123
-203.562105429424
-186.662740376214
-168.418009389718
-152.460039267935
-140.290759994504
-129.3259214402
-116.227596952972
-101.057974820971
-86.9433398139669
-75.9219669888691
-66.4726941355597
-55.7661471734803
-43.4575175999406
-32.0238672379561
-23.3615593934101
-16.221342114668
-7.78957983072932
2.76903084202174
13.4335851263219
22.1070130898499
29.2909989220217
37.20725650785
46.6775753681466
55.9293105942688
62.8192215866366
67.4621396494649
71.841787551044
77.0451565047577
81.8392180437456
84.4212307755675
84.9555691662215
85.5478945702607
87.7543921832721
90.9348658406856
93.5400430488931
95.5034462841572
98.5049541277366
103.765441631694
110.316843107854
116.041441056855
120.119497541273
123.717293474142
128.11638984741
132.838912379852
136.251143991354
137.79961811746
138.883727135007
141.197196274545
144.708163257857
147.891403590618
149.844363539906
151.474602066327
154.226922473335
158.077050534079
161.451836646658
163.163402546098
163.798754167392
164.757746810303
166.244486700203
166.87697176962
165.429496206754
162.423090920277
159.49833893371
157.412289256565
155.26559486658
151.911493911187
147.643157617196
143.939195480606
141.629016687688
139.899354463354
137.429302891515
134.154508447324
131.379746179026
130.151289294201
130.045627989013
129.912038993256
129.508316885821
129.833684989176
131.737249704878
134.671737788293
137.252490468931
138.890855042071
140.372503868874
142.661236314615
145.533475778015
147.830805421641
148.959482573066
149.63481005295
150.890157169797
152.661870013492
153.803094482441
153.493044964145
152.197232565649
150.954124258057
149.954005674042
148.254372317898
144.942616594854
140.179043978569
134.784753792583
129.005322898003
122.150161354437
113.600220043797
103.84460318737
94.1810815282593
85.4865194997386
77.6506038826332
70.3185361257955
63.8187998280224
58.9389513185673
55.8154789738674
53.4471262304537
50.5468568901076
46.679150682284
42.2566985720457
37.4947666464786
31.8040058449756
24.4913658716703
15.8483882581414
7.13744907516729
-0.579515601587786
-7.2865677689406
-13.4688088942314
-18.9571420756823
-22.7693433285007
-24.2408193918651
-24.0009267209436
-23.4959753031296
-23.6292094505193
-24.2344457997101
-25.0005374223339
-26.5443288816504
-30.1159735898841
-36.2185528426212
-43.89315857921
-51.623935890626
-58.7663614942792
-65.7532876306161
-72.9281934428066
-79.6194803846503
-84.7160290076004
-88.0086483553638
-90.5337281477751
-93.4314684589457
-96.7436637070608
-99.6398514106676
-101.709022870251
-103.604450995931
-106.218315476833
-109.499159158801
-112.474630699294
-114.442463766923
-115.761509133523
-117.214189300328
-118.795876927266
-119.53768900516
-118.613228083798
-116.305870264307
-113.608958272388
-111.019952839737
-108.116257648225
-104.433018506753
-100.426803263779
-97.1939928479224
-95.2628813844052
-94.0153178176473
-92.4885994953535
-90.5194056046677
-88.7657083083733
-87.6315490354213
-86.5615561240601
-84.6731255811289
-81.9141127610012
-79.2173050663326
-77.4206351769598
-76.340594567433
-75.2024715706706
-73.87129915905
-73.2776541439876
-74.4600175262662
-77.4202422491563
-81.2163070863279
-85.1157661924379
-89.2862963105757
-94.1395237248178
-99.2198900939992
-103.136208871582
-104.702505233519
-103.921684255704
-101.670915088528
-98.5949376037282
-94.6396811778199
-89.7171630626659
-84.4766989370133
-80.052475440748
-77.0494395309502
-75.0519038552658
-73.2616773697957
-71.422539242121
-69.8782064764056
-68.807493289182
-67.7603937343786
-66.1569522963904
-64.0619225063403
-62.1431640517798
-60.8102724824546
-59.6504169606438
-57.9161614410988
-55.4383283684178
-52.7713640458733
-50.3944006126314
-48.0498831587103
-45.1244997313414
-41.5803178609751
-38.1759052687282
-35.6208768652541
-33.719886724605
-31.6206393713449
-28.8758295173818
-25.9763521049026
-23.6907446255308
-22.0837161295863
-20.4887933990251
-18.4556098109991
-16.4170457196297
-15.1854349028668
-14.9122710516839
-14.8456267303072
-14.1906834733242
-12.9678839612705
-11.7961810281464
-10.9348142024364
-9.84888421468003
-7.83015851259148
-4.80857031502762
-1.27650197460179
2.53175660822382
7.05549275414415
12.8148125012188
19.5675312041932
26.3266005571593
32.2220335181136
37.0912088058059
41.0799281652032
43.8971158816734
44.8503457675691
43.7198680740913
41.3241289554316
38.9346550201897
37.1683394590588
35.6930587188502
34.0578410586348
32.512587703231
31.71793473802
31.7404939021785
31.7210761273087
30.7574112079326
28.9357012345863
27.1918879108328
26.1568900200889
25.4429375611232
24.2543275421571
22.4899128566028
20.885244455424
20.0314558305284
19.6078367744138
18.8871637172237
17.8675025199147
17.5054025349457
18.6653280568395
21.0870580560909
23.6793829589245
25.7366749688329
27.4853509609475
29.2828757497943
30.6207536746196
30.3902540136564
28.1984286454454
25.0537671316372
22.4567217492934
20.9629418900405
19.9890980323532
19.0382590586768
18.6767734734223
19.9231318620466
22.8222045809682
26.1173298197715
28.5585715347014
30.2421108449427
32.2705577723137
35.1532730843875
37.9959152893379
39.5231601413508
39.6107049999357
39.3427646826226
39.5335793682238
39.6621784595356
38.6354678936867
36.3936501832174
34.2390022570791
33.4065695518307
33.6841101944846
33.8362657866702
33.2511760907335
32.6599207616297
33.0339779792585
34.1871355823153
34.9937738668403
34.9633252907262
35.0562145448038
36.5776733466594
39.5239736615657
42.5215880109855
44.4379401655469
45.5511989919343
46.7653179745244
47.9870152881787
47.9456587212727
45.8257586671426
42.5858908452246
40.1175443869953
39.1897164702879
38.7769150843267
37.6252754306051
35.9873679024928
35.2160328409543
35.7485235913379
36.2198840350228
35.0307439730452
32.4246851690735
30.323945339407
30.01241542373
30.5939599117659
30.2160127815528
28.4607271180762
26.7552745940716
26.2507385585996
26.0096881638655
24.015490912916
19.7951639026345
15.2090079477631
12.2581371594998
10.6795372381411
8.45579428838964
4.57504157932682
0.379931920476338
-2.32297914518685
-3.8772583081181
-6.51534960075585
-11.3893023273506
-16.7758780295993
-19.9678587675839
-20.5271522441654
-20.6476163881543
-22.0861146687248
-23.7062440408659
-22.984531819479
-19.5661633024202
-16.0630265391401
-14.8156401067282
-14.8130024945823
-13.0115134760845
-8.53582314401176
-4.20879954666348
-3.17348115037275
-4.9521585840377
-6.3031922559063
-5.90144105198787
-6.41312375625727
-10.633834105588
-16.4836997133091
-17.9625146136725
-11.7978806906895
-1.6072641914237
6.19220551026956
9.90883660106024
13.5597225323639
19.277959122157
20.8195758864965
7.81926988874229
-22.6898371344584
-61.1149666333871
-93.4794078668692
-113.657847547698
-125.083458976334
-130.748447693148
-125.87287883196
-104.342992717278
-70.5114298894005
-37.6239877083818
-9.45579961876287
33.7479371639995
122.609256795327
266.049269361583
433.544626555246
577.213989446848
676.301613101777
757.637991429513
866.412256983505
1013.75444987975
1154.74534876695
1220.76439550267
1174.17283845473
1031.60325635496
837.36682289004
620.658307268406
382.364792644299
119.332552339309
-148.362519449341
-381.133253829198
-549.744781513304
-656.491584668851
-724.975904474142
-772.565830994489
-797.062933408827
-789.339178810581
-753.098118219974
-707.518740881642
-671.470243619307
-649.308816088829
-633.52179304757
-617.754461403669
-603.043253761971
-591.660745491202
-579.678463820361
-559.661539745154
-530.088305941792
-498.561183875852
-473.873726975402
-456.490552635218
-439.047000475103
-415.792399330818
-389.013943226843
-364.96033551817
-345.257342906567
-324.949927714399
-299.196251683472
-269.582285862639
-242.055800659596
-219.570175566644
-199.052737324831
-176.249227625032
-151.750238089091
-130.357039988458
-114.890987211893
-102.652958311109
-88.9953416129
-73.1759453345986
-58.968344820067
-49.5427652466512
-43.4371836663867
-36.6544245531259
-27.7940536125002
-19.4132230198739
-14.0693707615574
-10.5016605288932
-4.99664548894375
3.99655139202678
14.1340856333735
22.4982213237404
29.4693294416144
38.0727379937044
49.8107058301766
62.5742784523893
73.3440917900479
82.0088709274909
91.2186140711382
102.505287563814
113.842006509504
121.889526677565
126.013369777272
128.872605115401
132.899080951449
137.301104877823
139.41388204992
138.471822172555
136.779987956764
136.781388645099
137.921055240002
137.418087382895
133.912276979765
129.258361543055
126.253719111416
125.377148320628
124.745304141127
123.128033671237
121.865900193641
123.118708551382
126.814657385243
130.39193713541
131.722630743766
131.443392920223
131.760412705412
133.442232132282
134.995824829166
135.003010182712
134.364289820597
135.361211045325
138.723679165628
142.569232227151
144.635411169303
144.921623019239
145.370469687528
147.13599164546
149.10109069855
149.547676128625
148.653412885757
148.409878044728
150.018755663895
152.201419191641
152.67911289204
150.923244612201
148.63255294806
147.403796481531
146.723417803666
144.905163653381
141.648876943829
138.745344752197
137.925922309778
138.658242383827
138.795680081139
137.270179593809
135.372264840168
135.036552218016
136.441051400427
138.03140509448
138.813564440313
139.779765985691
142.54546514602
147.011237395552
151.163352083147
153.307554201601
153.85310402024
154.405396121497
155.476765370813
155.865787747515
154.43317295823
151.770265092617
149.428655835937
147.697733260941
144.929163316886
139.410681930277
131.424575616428
122.857520373769
114.924191535686
107.005759157033
98.0696121701137
88.6725478877949
80.7524067686835
75.3508437698492
71.208306098237
66.1249535441229
59.4346160441156
52.5204118365501
46.8441596833041
42.1262854746112
36.9919868961421
31.0866773055036
25.7426653905996
22.2381728599149
19.8999814842147
16.5362328425212
10.6776551388852
2.82531975892714
-5.70910573906286
-14.6412605061635
-24.7532495549044
-36.1996455999891
-47.5168210311644
-56.817408165891
-63.6951710305936
-69.3804844661476
-74.9784285292718
-80.119449736954
-83.7378243705121
-85.8194516781541
-87.6838389970674
-90.3806284669937
-93.3681874909634
-95.3127673013167
-96.0160159839204
-96.9222816624158
-99.4799227788962
-103.445469739725
-107.301287435625
-110.189456696615
-112.802517033459
-116.102320208914
-119.652857215222
-121.879816025284
-122.006335536729
-121.156706242485
-121.161569810387
-122.570321850839
-124.366564485646
-125.611403433072
-126.73339415584
-128.745443309929
-131.506755950065
-133.457199548872
-133.28654984043
-131.391213480213
-129.209475039164
-127.312149115449
-124.758143616785
-120.528735782111
-115.084050825136
-109.932533463723
-105.78101391199
-101.769638663165
-96.8818197750253
-91.6987190636693
-88.1260796092697
-87.3300758147991
-88.4731015602111
-89.8305860336827
-90.7989561937179
-92.195434763077
-94.5518686115822
-96.7782820221402
-97.0896138011289
-95.0827072957633
-92.280213789232
-90.3982134731987
-89.5080876258512
-88.34696632963
-86.2102284211978
-83.8566668818678
-82.2716642876989
-81.0399572387113
-78.6095305629199
-74.194580981729
-68.8470881519954
-64.2741958566264
-60.9102720939075
-57.6970934698398
-53.7517030272418
-49.6335386499747
-46.5202526353122
-44.4451297660509
-42.0410417067664
-38.2466935467471
-33.7929667371922
-30.5058554902213
-29.2721634673915
-29.2271993005357
-29.1017976079674
-28.8637734015526
-29.4900770878286
-31.2598552608764
-32.9499553471769
-33.1062993483189
-31.779692634781
-30.4576782430451
-30.2625885619815
-30.719323284666
-30.5875007513943
-29.5149002942185
-28.2547974283593
-27.2173677556415
-25.4402200647196
-21.5358149171925
-15.4929129745946
-8.97222497778203
-3.64029090039256
0.365277905019836
3.93947945334833
7.2791937720745
9.33580087731959
9.24527842490564
7.80948947890875
6.92685593835399
7.53260822967284
8.61855707433981
8.57943238809567
7.16853848988415
5.60612648137685
4.82778750766708
4.27228729843175
2.83163668536189
0.672884454113962
-0.549777805804472
0.528214590802534
3.45454204580963
6.60787202700619
9.13172309086094
11.6587842687497
15.0101185500932
18.7456943845572
21.5726201587662
23.056258577278
24.2819218521788
26.4953544784803
29.4639310555885
31.7120191144916
32.3252660055746
31.9570810750902
31.7556483700537
31.7163680750337
30.726571908953
28.2728141817594
25.4892116570138
24.0320638910287
24.1490391319541
24.4457065610184
23.6850791183739
22.3093058431799
21.7424376004068
22.4516460242775
23.3654996823431
23.4220457657269
23.1552240070094
24.1296009826366
26.8645836577602
29.9285462830284
31.4218879090196
30.997160513481
29.9017344984109
29.1307526032657
28.2143898031809
26.2397545862129
23.6732951781802
22.4344232658207
23.958054540429
27.6545102604721
31.7036641753773
35.1264533240972
38.4947750337488
42.5177737836977
46.5567445953965
49.1474328800128
49.8526418707452
49.9292850944677
50.8327999842231
52.4519441162957
53.3463083738824
52.6366401990159
51.0526111591393
49.812779455431
48.9214148501928
47.2285878311923
44.1967628433154
40.966225396636
39.1805875625693
39.0041050801411
38.8911019514723
37.4242222890555
34.8622966578538
32.4605251398751
30.5832010727521
28.2029783725999
24.4883667025728
20.3430385786824
17.758816799099
17.7012807646755
19.1885369674737
20.6808982450239
21.9121538957004
23.7998869921078
26.6877027755354
29.3922984951703
30.4066306196099
29.6744480555779
28.546679275067
27.9425878133065
27.1419372840248
24.8050279155237
20.8538828105771
16.711734547202
13.6115157212589
11.2769723409133
8.75887449842969
6.25736245424434
5.3582544570391
7.1972437467239
10.8913593645464
14.3340038031448
16.3895691867622
17.6921709692549
19.1173011318581
20.1030013868553
19.1919701251756
16.1435732780164
12.7476074159078
11.0800118192853
11.3132367096056
11.8530857760833
11.5791605532661
11.2370180678466
12.1906790153961
14.2812113908617
15.7512688905724
15.4360719529254
14.3347705305801
14.4040608399495
16.0608733365136
17.6272543182982
17.4391806703489
15.8547872056408
14.5561467095262
14.1525193281421
13.3616122486347
10.9206645048425
7.6653653979464
5.88954959048806
6.6696075329737
8.58744545863023
9.51151898762704
9.0908356182492
8.69953716325359
9.0026879171298
8.54323279441888
5.41872205129121
-0.0726982150883373
-5.38579829841059
-8.5134455248222
-10.064775947673
-11.9481196765718
-14.4267689676474
-15.5008050182041
-13.5055050860795
-9.49155872050203
-6.13883759505288
-4.52127613094899
-2.97599921048176
0.349385983272128
4.56479776670062
6.62833603356644
4.80291543535226
0.535384312911418
-3.65065307081598
-7.41070491623839
-12.6234215929433
-20.1531691615298
-27.7249246910566
-31.9543605230643
-32.0837907810445
-30.6044481011751
-29.9501023725621
-29.6164685166249
-27.5031171406443
-23.6155045545981
-20.9963104806669
-22.3532977600198
-26.6733772473989
-30.3708041527153
-31.6511428277665
-32.4371652903966
-35.264734782409
-39.17659112113
-40.1087443204336
-35.4831767074195
-27.1838612399213
-19.1351817603688
-12.7316222755946
-6.12649179765386
1.8207397087189
8.41709422778543
9.24085255579031
2.84408733423052
-8.1320731224516
-20.7870429554741
-35.3736685452356
-53.5742055472733
-74.2138764146652
-92.8393428152416
-106.270604347871
-115.835444377158
-124.261100138108
-130.259274560834
-129.072797377387
-119.246003414489
-105.367418737593
-89.2952362944052
-58.2220501267597
12.8100635249725
139.386872282012
306.773504301222
475.124998143063
611.834607080022
720.49876542014
834.223896645541
975.763741968665
1123.20014108754
1217.30719323404
1205.68109886766
1081.88839460824
884.132622392571
659.542280866788
432.120668081377
202.596790867337
-28.4220824278199
-244.582786905067
-421.837565646679
-547.618818799005
-628.009931125657
-677.008425007626
-702.978222621716
-707.521977414282
-694.349658902849
-673.881687129381
-656.849900925927
-645.414037466715
-633.383575362402
-615.149456146302
-592.103250065614
-569.235354376683
-547.431530606581
-522.071847499316
-489.890346623831
-455.207876285375
-427.300879791415
-411.570492068807
-404.542744215541
-397.89075710954
-386.235588616205
-370.149254803816
-352.55257266029
-334.31157386463
-314.283578727843
-292.40470127247
-270.806327080189
-251.429484733146
-233.678783633718
-215.430238862759
-195.951001103312
-176.730071438485
-159.20003942513
-142.59128411765
-124.917447235475
-105.801219651457
-87.3519195329811
-71.8850755629785
-59.4044358959714
-47.9868079751025
-36.3597270596158
-25.2050596972402
-15.5999224077071
-6.87438977718093
3.11904369414179
15.595107569863
29.393991455284
42.328444009111
53.5313089811346
63.8474492533322
73.9965250578479
83.1235534060333
89.6952302813618
93.5070184827807
96.1105699722309
99.0905199418273
102.423788091061
104.973652038399
106.35550137069
107.70818938968
110.452097083448
114.747669970865
119.63200259404
124.503900484821
129.893863184627
136.522173500696
143.971401492301
150.771893322603
155.79203139077
159.151846852363
161.60948575571
163.407396853307
164.15557478738
163.783107682925
163.09465927164
163.044953171926
163.644186307364
163.95192254598
163.182442098285
161.494571382337
159.51982693581
157.401596239694
154.728950984635
151.447555168378
148.419952488721
146.728752745153
146.514443439685
146.819972598352
146.641747230853
145.846297699117
144.84662155675
143.61017311244
141.441358530762
137.892263606751
133.581402069166
129.760191581537
127.093290296424
125.156915085088
123.237688011618
121.354585733736
120.202810918511
120.183521373241
120.872228134839
121.639811481891
122.56865773635
124.40766161847
127.592140998275
131.592439796758
135.416807565173
138.594366190676
141.396509074498
144.125608869261
146.531171844216
148.166754953681
149.159283986685
150.267795952636
152.061656296235
154.249730737696
156.01762352119
156.91783166646
157.168815230642
157.058840498756
156.363558143009
154.631736007524
151.959318216597
149.146283219094
146.91672623674
145.13952353098
143.025215523665
140.026770499335
136.289110458003
132.138466577683
127.400596514358
121.546068787755
114.506299949772
107.042221513008
100.083509669696
93.797682430506
87.5227347175303
80.6059637413333
73.0669527534416
65.303994627536
57.357094161683
48.8016905724423
39.4547102828499
29.944323888431
21.3359288364654
14.2208548076042
8.35012265971834
3.16602961602871
-1.55037881134071
-5.7441390799208
-9.65175511545697
-13.9719037531574
-19.3268477639983
-25.7123182094188
-32.6744273756112
-39.9690460484952
-47.8086868423456
-56.3817194338249
-65.3416093765881
-74.0078542869027
-82.0207378569444
-89.5280632384087
-96.6046639947638
-102.699737508027
-106.956769616846
-109.112113573508
-109.845122312447
-110.086026059006
-110.116280049554
-109.575965556842
-108.315982377702
-106.919227667205
-106.143591670369
-105.980556554049
-105.591649049683
-104.302918610043
-102.478877189443
-101.218817344117
-101.273045948932
-102.501005930955
-104.427365661832
-107.027728520259
-110.643936924696
-115.147923448009
-119.510363944945
-122.43102617429
-123.33099053283
-122.569417978892
-120.759736197524
-118.156424865639
-114.850680622049
-111.339938059959
-108.530673784302
-107.048501882208
-106.721436290755
-106.913440477181
-107.276991994039
-107.968422611225
-109.126729159849
-110.412768338879
-111.286237371097
-111.639534026536
-111.875370779528
-112.260188122516
-112.405362668662
-111.614196235181
-109.695522416255
-107.200825208501
-104.779462630471
-102.50381562806
-100.043479537133
-97.4121632014163
-95.2169650921187
-93.9931828308522
-93.4603877469476
-92.7075246142514
-91.1389775513511
-89.0230818623508
-86.9947095826169
-85.2139783015582
-83.2951602390316
-81.0538754155284
-79.0017355509118
-77.8462418083109
-77.6015601986288
-77.4821577832453
-76.759232301161
-75.5069111888111
-74.3128887982555
-73.3893095718944
-72.2923047776598
-70.615612149354
-68.6884837411703
-67.2717327812889
-66.5794019338543
-65.8922882373127
-64.3051800326343
-61.6880929726982
-58.660725122713
-55.6579315264034
-52.3310654651098
-48.0597736213009
-42.8701169384125
-37.5191653709001
-32.6133920227049
-27.9107295892843
-22.7240655158194
-16.9110165231425
-11.1877899337877
-6.40518144017378
-2.75861097058084
0.0819649610137994
2.21308725260063
3.23097193978604
2.86033996231179
1.61345441959372
0.526683198903239
0.243352677300297
0.592353667776324
1.15474835322663
1.99586146305722
3.54811460048196
5.8307204047031
8.15684659961147
9.86361944900303
11.1896829221243
13.123983138586
16.3284397194196
20.4465650722726
24.6350146756506
28.5809756513266
32.6540176045283
37.0100243062327
40.8894788534469
43.1425572233452
43.4149932094918
42.5265313827297
41.5631325593986
40.8125687815938
39.8205141134272
38.3636012872951
36.9772900205324
36.3352635030132
36.343231631039
36.1986128776573
35.3814079666509
34.3056016316335
33.8112418790599
34.1959253052617
35.0451994817213
36.0024975036332
37.3496007400615
39.5597017033987
42.4294087392302
45.0210357914858
46.5808795928554
47.2657220959283
47.7243289642782
48.0929549296788
47.7563892261617
46.2096798014278
43.862522827168
41.6666522874225
40.0069244202045
38.3164273902954
35.9632409286412
33.2754330162164
31.344598233246
30.8160968810324
31.2017589149855
31.5862184980522
31.7931427450536
32.49283259187
34.1378354435979
36.1639819214928
37.5499537560589
38.0382031471084
38.4357223993353
39.5968692009097
41.3890606058516
42.9361484270147
43.7538010387664
44.2572258843341
45.0070071403063
45.7606807566645
45.6533488595335
44.3161638158297
42.4795235929789
41.2687247344028
41.0947619182099
41.5270973988734
42.1953655391787
43.413271429017
45.648487259589
48.5697655531366
51.0110963301766
51.9843464022487
51.4747263017472
50.0453803885911
47.8612373698724
44.4853662421753
39.7100929661584
34.2454862221867
29.2584569502262
25.3152687927208
22.1116667795527
19.326785698005
17.4070032238085
17.1579155166788
18.637424059462
20.832329531986
22.5953912771077
23.6361499771216
24.2754560487096
24.3512536697446
22.8617164343128
18.9873568913534
13.2459797511896
7.2385205664159
2.21768648974796
-1.74871754404489
-5.01667090962621
-7.12415520008273
-6.85379747415109
-3.65554849385759
1.40044066117771
6.48331139292844
10.7110128811633
14.6185072313715
18.8637775586749
22.9181812224094
25.4914053081989
26.1488468662278
25.9767583848922
26.3547876722829
27.3590481970602
27.824260458277
26.962876953062
25.439808769635
24.5353829356008
24.5274372047966
24.4182742617147
23.3414414450536
21.778559294705
20.9893938353722
21.421792922669
22.1926727139501
22.2885274147071
21.8612949505305
21.9033733352605
22.7661095712423
23.5175979189382
22.9893762278792
21.0963478955922
18.6733586861158
16.1017913251138
12.6530590312122
7.50649308206573
1.09895216982216
-5.05111100627771
-9.89095193636155
-13.7405604900094
-17.3746528230238
-20.5498647383725
-22.034770957351
-21.1969217546767
-19.0395447052054
-17.1962265489239
-16.0639586005522
-14.4636885868173
-11.2909113417419
-7.02726026788128
-3.14964173661812
-0.23136731894254
2.72881491330205
6.81236131615286
11.4546579594134
14.7799961924944
15.6303310490919
14.7159580779411
13.4685167936276
12.1711674236477
9.83142632316857
5.88901054300331
1.383138128747
-2.06685983598126
-4.16048098595775
-6.16699013769023
-9.17113204002694
-12.6314103439942
-15.1520300489915
-16.3892762518559
-17.4673745350348
-19.2897167679569
-21.0357602886119
-20.988232251868
-18.7350601280162
-15.8552642800799
-14.1048969106537
-13.4286247655505
-12.4142967575253
-10.5889374497425
-9.450565176941
-10.7389546487231
-14.1385290245609
-17.4805697246741
-19.2994313243653
-20.4696773952949
-22.7888140466769
-26.368115466962
-29.2937540628487
-30.0427527073522
-29.4646222837319
-29.6594824015208
-31.1813862710735
-32.2607778913214
-31.1092609102468
-28.2750654639692
-25.9146642762894
-24.9377174433859
-23.8459929496738
-20.8549129817298
-16.4830363297471
-13.1254787740462
-12.1588963653858
-12.471900073572
-12.4083530553212
-12.446498461514
-14.8504434351755
-20.6210699082043
-27.8435998372108
-33.726684435479
-37.5558271419061
-40.4409970547364
-42.2385921633632
-40.2986552561816
-32.5007609107537
-20.9037037541015
-10.7416136502433
-5.376721758377
-3.6658885971958
-3.55731659799216
-7.19386000904643
-19.8155430297101
-42.5528546552973
-68.3663152305205
-87.9289705859265
-99.4566469627155
-109.581831998586
-122.340590020526
-129.647218733486
-117.766506901651
-85.3024232216061
-50.6304562675913
-34.6473923140746
-33.4310331989432
-12.1561238315454
67.168939901868
209.115224659977
378.344661718457
532.893707302891
663.530573186277
796.442312196835
954.615839566157
1118.56111990764
1229.52195863283
1234.1181623508
1126.00503948574
944.248660735915
734.062084443686
512.760896372175
273.502145387278
16.114694090203
-233.085631283523
-434.4851709562
-565.395465925303
-634.569746961736
-668.2292534053
-685.642786577338
-689.684688337937
-677.366315765212
-653.428695518053
-630.555346835705
-618.131554721114
-614.27848741808
-609.851830235603
-598.343526354879
-580.344661563334
-559.605865151482
-537.594075465183
-513.206487098065
-486.37643697672
-459.733226061991
-436.164675283083
-415.935583118904
-397.164205325185
-378.578302731564
-360.62007487581
-343.704357692719
-326.544042552325
-307.245385178657
-285.850641429909
-264.807535007453
-246.462999534543
-230.578350865771
-214.883662159394
-197.860951918158
-180.268220206897
-163.721985482902
-148.42698664234
-133.018702639763
-116.563999360708
-99.9994410738338
-85.1641679632863
-72.7423734897102
-61.7128141190116
-50.8215189254937
-40.0289091961947
-30.1154800289783
-21.1478870208664
-11.9306573282455
-1.1629308163247
11.2157575935038
24.1601432793037
36.8327860965701
49.3660495631103
62.2221004116449
75.1693900136025
87.2776265841683
97.8702533509822
107.114807120608
115.502350832466
122.987089915876
128.963785798843
133.084905212555
135.801714098245
137.924681396972
139.816661916803
141.273566943647
142.173804225531
142.944501178969
144.172851750595
145.866362041188
147.351816867336
147.977172762368
147.758499930219
147.221072462484
146.727093166727
146.178967067005
145.411795931203
144.666374367617
144.474696424008
145.105025979683
146.286213439903
147.540003255785
148.671154878582
149.825148899298
151.135737266287
152.483368863645
153.642248318384
154.520709874251
155.107788003787
155.213205323381
154.422778405253
152.409064694415
149.243805754671
145.350407585544
141.217182015071
137.282026084555
134.089578114345
132.358608629883
132.661273635105
134.961074507807
138.541683119618
142.452550848128
145.993568313185
148.748601963837
150.285200749335
150.072105371651
147.849206758169
144.024917652557
139.547684566597
135.299246273356
131.638714759057
128.55092840893
126.135910366278
124.806680468635
124.973625934885
126.641226252125
129.423583797562
132.940730162347
137.098769155974
141.935812486177
147.26298127044
152.554821105249
157.213114906667
160.897447064275
163.596544903234
165.454839284688
166.605595805217
167.149531309281
167.184361096592
166.760324836117
165.797808142036
164.088883810214
161.399358073651
157.56544418449
152.517595593761
146.285615060329
139.045627419342
131.150147847942
123.033280356818
115.010731124297
107.142150265587
99.2811100844451
91.2428992442661
82.9178747088359
74.2699090523081
65.3190136341639
56.1941109819699
47.1875276201483
38.6815927407816
30.9544451919614
24.0305618643821
17.7061256727066
11.692612630516
5.72496461876239
-0.416803080640932
-6.88456815789402
-13.6723473325735
-20.5365834731785
-27.0501360182661
-32.7867440059123
-37.4975721140175
-41.1701110077495
-43.9939792927702
-46.3094868266479
-48.5436857270263
-51.0976289774647
-54.2281914118068
-58.0369669166533
-62.5826075512175
-67.9655105108484
-74.2468927394625
-81.2916992436308
-88.7682947852838
-96.3534753281771
-103.880464656121
-111.175076854049
-117.726823871849
-122.649333729777
-125.133610780652
-125.01199593215
-122.853045600839
-119.509855278411
-115.671322050732
-111.919864049233
-109.097807872606
-108.313180907294
-110.328121794912
-114.905437579827
-120.879034447913
-126.950219015787
-132.391868268677
-136.985903851346
-140.465740865873
-142.307362589269
-142.194015329322
-140.539359366704
-138.30957161508
-136.242808425359
-134.339143634306
-132.189205480363
-129.699314451895
-127.326433860072
-125.599303039572
-124.600300797097
-124.06915170368
-123.923217536809
-124.432531548845
-125.771028162584
-127.533417023339
-128.896321193071
-129.284445143322
-128.755133790833
-127.691845675332
-126.293418143971
-124.565806309209
-122.775822492255
-121.627349875705
-121.742264948667
-122.98137202748
-124.453344164899
-125.26078018031
-125.117997977837
-124.139151265036
-122.156364265495
-118.52670413425
-112.738878945595
-105.062079340729
-96.3789787514607
-87.3647067645748
-78.014990109494
-68.1039041873972
-57.9908360486873
-48.7629760032227
-41.5263392983701
-36.6826912311004
-33.9750137097771
-33.0784639604377
-33.875233281507
-36.0661867896909
-38.7152110394213
-40.451960900819
-40.2319300148863
-37.8613741325686
-33.8072092724796
-28.6710047098328
-22.9906922065882
-17.4451453177664
-12.9335021887544
-10.1986853011191
-9.35425409771014
-9.88641003448775
-11.1409616132813
-12.7277904238512
-14.44784921769
-16.0071496295817
-17.0205708326336
-17.3240671086747
-17.1126390547983
-16.6268119248029
-15.7520816673667
-14.0732254381963
-11.3557171940626
-7.86076271052219
-4.11359722668831
-0.463911161032283
2.97144964651581
5.96077121066623
7.99234238378341
8.66783330408417
8.24089995957279
7.58893877189804
7.55512881724981
8.3824133789274
9.84416846203497
11.7891748324295
14.3216012363755
17.3892249773531
20.4160534143959
22.6149798887594
23.7173234340326
24.2432827773753
24.953991577795
26.1317662294972
27.5239428581178
28.9099728824017
30.4647663848334
32.4273177535821
34.5783475908767
36.3331084444115
37.4357386832293
38.3861998765306
40.0061594606358
42.6302055617637
45.8799570276573
49.2135262180243
52.4518205514999
55.5825479387544
58.1917736449855
59.4440936262442
58.8212644260762
56.7611502477826
54.3628157696301
52.463566904244
51.1714550177904
50.3171518165777
50.0803483678748
50.8557125582966
52.5155530371585
54.1340483347279
54.7016754995752
54.0398517359205
52.7812850617006
51.4307527879656
49.6987187308818
46.94759644886
43.1344073950942
38.9777883562202
35.1091145289179
31.3487743263599
27.1364792742475
22.6311602569179
19.0447636869885
17.6722134962827
18.718569443443
21.2974788986332
24.5137722640519
28.2201759058742
32.5488472172505
36.9761569407751
40.3093230546938
41.7610615386546
41.8041184741664
41.7046743665571
42.2639457780694
43.2465581474074
44.0427590889557
44.5495788447053
45.094569002441
45.6126091576276
45.333362172584
43.5477969843276
40.5351209505285
37.4478218310792
35.262856957707
34.0774701412216
33.5191411600957
33.5547629646342
34.5171976196242
36.3239687746412
38.0519276015424
38.6122436343371
37.7784002445086
36.2721474719061
34.7911165495536
33.2273587749187
31.0513943277422
28.2700284818959
25.6029223524018
23.6050624252316
21.9461287831425
19.9139462686298
17.566577139896
15.9992138927005
16.2631420936607
18.2280918261455
20.7959286792125
23.1447805108222
25.3587924519425
27.6490782021751
29.3037388369539
28.9459124084075
25.975275428663
21.4204552476634
17.0460083397573
13.7183745586171
10.9632856928648
8.11926783665695
5.47281405558846
3.86843199909691
3.36749910442029
2.84226896728109
1.19352377035142
-1.27202989464877
-3.04847448177253
-2.98502551299521
-1.2802707527602
1.19519966842756
4.17547454592341
8.11088858206926
13.0232231148682
17.7799170484191
20.9395992868567
22.195875761537
22.5698101313915
23.0827918956908
23.6068763695821
23.3232979708899
22.0627865705056
20.6313248121332
19.6270060956873
18.3671576484285
15.5055131760688
10.7001109631757
5.21478495237533
0.620836168970555
-2.80464646203816
-5.99668702535541
-9.54514478250513
-12.7841489177834
-14.7510973615766
-15.7019692714545
-17.0655028639278
-19.7545018500578
-22.9638828929165
-25.0259148822317
-25.2542103148419
-24.450633497091
-23.5383959210384
-22.2552981313814
-19.7077552705928
-16.0192375202789
-12.7466261256606
-11.3253381229794
-11.4736611838707
-11.6550752143702
-11.0514656118471
-10.5044300651646
-11.222967838345
-13.0171558276747
-14.4695809993659
-14.8705154272136
-15.3146967951421
-17.3679317497977
-20.9218337682022
-24.0348989718392
-25.0595904571396
-24.3853352664506
-23.6031311365886
-23.2524895789658
-22.1533724020506
-19.1986386490575
-15.1680750151659
-12.0334298969457
-10.5423878622345
-9.22804188078145
-6.20551345337009
-1.47332061236237
3.24713528931272
6.85868195347032
10.2412362766474
14.7588300857562
19.9306713746606
23.5140461899412
24.0966607418224
22.8637787868406
22.1254679059057
22.4003667390934
21.8274158102179
18.6928669109061
13.746400800872
9.20299916587884
5.71591068183162
1.39952249171672
-5.63087655036212
-14.4354014874611
-21.9245179640913
-26.3199541276766
-28.9822686244132
-32.2439325269304
-36.1343147641652
-38.3925778448792
-37.8016169933224
-36.3291641524637
-36.9726284326192
-39.9144065350583
-42.0689353038098
-40.8382223571817
-37.3105202312081
-34.6770710057787
-33.8509805543868
-32.0778203143393
-26.5496433660468
-18.4390640897339
-12.0573218737498
-10.1247176919262
-11.2061339489433
-12.4176236120452
-13.4126983831951
-16.031317006622
-20.2440550636903
-22.6483432342324
-20.6084066749151
-16.9164802095334
-18.0162788043489
-26.9814158312464
-40.248580676582
-53.1925142978428
-67.6567467677498
-90.3145778857727
-121.757620337044
-149.787082645981
-157.847839952146
-141.091536558535
-110.321120430275
-75.9759141822258
-29.2810426881857
54.6903837514364
190.227188521879
358.411807887471
517.178866060617
638.389614932205
733.934029747109
840.529005327528
975.77007935719
1110.2400339517
1185.53547328082
1160.82214201546
1041.85834055664
866.704424729373
667.996605221088
452.672809253845
216.040673073983
-31.9695348394479
-260.848247461033
-439.78054787434
-560.022785103362
-635.397439294532
-683.547826441917
-710.720979778719
-714.83366220989
-698.436102285849
-673.482089219806
-652.717738738809
-639.540732552909
-628.498487095807
-614.126797890105
-596.240951721674
-576.371659605839
-552.561238738566
-521.324380420887
-484.770038384168
-452.622806385508
-434.46783949104
-430.029853875918
-428.69264655099
-419.204282398826
-399.042561727519
-373.924625945056
-349.626069121105
-326.287199326857
-300.84679525029
-272.906827587869
-246.089984156495
-223.747032905379
-205.154496653191
-187.047059060305
-168.019717871829
-149.880834299343
-134.515327688425
-120.820407631872
-105.908603980081
-88.9019392433419
-72.2272455346764
-58.7154260677679
-48.2986484902182
-38.4665066794593
-27.626598040096
-16.8476432804841
-7.83654679708104
-0.0663679485918323
8.98772456350051
20.7568986733421
33.674814011383
44.9271709220957
53.5663946908253
61.039477339638
68.6718279288778
75.6051783520277
79.9434219068667
81.524485594093
82.5762932158647
85.3230764621657
89.6243838961541
93.6777074579061
96.812637179868
100.71108219345
107.480242214715
117.092997492538
127.471561484256
137.009885531514
146.196776683754
156.260627124638
166.692534286162
174.97482814699
178.985226529279
179.11331957156
177.527408184154
175.656472001657
173.088915022576
169.077133061586
164.414575453066
161.068268757685
159.990170082166
159.952278206851
158.930216191326
156.295461250753
153.12137364585
150.414477172211
147.710544307703
143.843538225542
138.74905987746
133.815291625117
130.261661295535
127.658786393999
124.539333049204
120.336648745358
116.186817130922
113.622660506581
112.881869419745
112.952326627813
113.144508204427
114.013885979341
116.392339841818
119.831492583483
122.563066055795
123.129418129222
121.707534983411
119.582092690052
117.581234465916
115.486940111875
112.99900419829
110.751256571849
109.889751871972
110.728178791156
112.282239114738
113.356586632398
113.840711372982
114.631569362317
116.415858499777
118.982392319517
121.915598379868
125.591147520182
130.962290508142
138.276294907688
146.383406012114
153.633203941961
159.330401312298
163.991739445489
168.180230880975
171.499775761394
173.061569207759
172.754185410059
171.564479259485
170.431940218891
169.060993152414
166.223845862519
161.20831136591
154.625625475682
147.635195380165
140.650466143077
133.17080598254
124.841008352158
116.231691604011
108.252009631686
100.958972200309
93.3606009263366
84.5361794655833
74.6946427351328
64.8791750759433
55.7636541923082
47.0980826450109
38.4292023614909
30.019059655342
22.6568180368125
16.5784444872746
10.9450036890499
4.64553724785796
-2.51627350357778
-9.68944210619042
-15.9898353172931
-21.3372153784317
-26.1276706636898
-30.3431476856503
-33.4188390662095
-35.1102287170253
-36.1934903641561
-37.9874642256978
-41.2062685770333
-45.5258864554065
-50.3209968853137
-55.5294388645217
-61.5082104032144
-68.15919700946
-74.6212429121364
-80.0720617204605
-84.6512177614424
-89.2619996016269
-94.4230089615475
-99.5892676619995
-103.790880261089
-106.75831548562
-109.095868877567
-111.325956058796
-113.112811300029
-113.736544509311
-113.22650715622
-112.648130756876
-113.085169153832
-114.533104319884
-116.056770169221
-116.982990160292
-117.629527972161
-118.727286726485
-120.390930925088
-122.027380964646
-123.281304266511
-124.71802526727
-127.268563108825
-131.074633082567
-135.167020842558
-138.366727297309
-140.285151805291
-141.262578492941
-141.51373944862
-140.741371532305
-138.758904387519
-136.234940023298
-134.450951486937
-134.240530461313
-135.358756343361
-136.992145698639
-138.684306574231
-140.505824881105
-142.388381868872
-143.681885416072
-143.655331540039
-142.321165840594
-140.44590406638
-138.642617274767
-136.662865145859
-133.77531253698
-129.713527242993
-124.948619845325
-119.964590103982
-114.56583665626
-108.216440587249
-101.011146672095
-93.9619870775613
-88.1084588993379
-83.4900644299346
-79.2533357476342
-74.7570659463234
-70.2912098345728
-66.5522099820319
-63.634702720454
-60.9028357664594
-57.9152510479223
-55.1608852320786
-53.5799400108145
-53.418665574265
-53.8455601309556
-53.7971507110728
-52.9774536428065
-51.805087132946
-50.5162165955357
-48.7072998093142
-45.938304095131
-42.5327743911263
-39.4053658824499
-37.039243244909
-34.9050873953985
-32.0868034638169
-28.3295812968231
-24.1959686253298
-20.2099027255427
-16.2054986631802
-11.794281103936
-7.31318412652224
-3.8889116143125
-2.36466631494438
-2.35992891329057
-2.65438265832204
-2.45375980111212
-2.00265950324746
-1.87533846167815
-1.97750999662716
-1.6181619608629
-0.546180089704341
0.47870647536848
0.446687882323746
-0.676161021952046
-1.76794476551507
-1.63970697045186
-0.0575602797064551
2.46851584236312
5.66627299608542
9.84778506343924
15.1617797092382
20.8287613970053
25.5083703061562
28.4635170516474
30.1158187662376
31.3476684326913
32.4905457874062
33.2653463960281
33.6120252053572
34.1579185172347
35.6085408267531
37.8625738976376
40.0913685086558
41.7652546662964
43.3247365683793
45.6190978401256
