Value(μV)
-37.8620262145996
-29.7555465698242
-30.5185089111328
-44.5379486083984
-47.6851692199707
-36.9083213806152
-25.2731399536133
-20.7907333374023
-24.9870281219482
-33.0935096740723
-32.8073959350586
-27.4666576385498
-23.6518440246582
-20.5046234130859
-26.3222141265869
-32.04443359375
-22.8888816833496
-14.3055505752563
-16.1175880432129
-15.6407356262207
-14.687032699585
-16.022216796875
-11.5398111343384
-6.29444265365601
-14.0194396972656
-22.9842510223389
-16.4036979675293
-6.48518323898315
-2.67036962509155
-4.67314672470093
-9.82314491271973
-13.256477355957
-14.5916624069214
-11.0629596710205
-9.34629344940186
-11.7305517196655
-9.34629344940186
-5.34073925018311
-5.53147983551025
-9.06018257141113
-17.4527721405029
-25.4638805389404
-22.4120292663574
-16.4990692138672
-22.0305480957031
-26.7036952972412
-20.409252166748
-12.302773475647
-11.1583299636841
-13.7333288192749
-12.4935140609741
-12.1120328903198
-13.0657367706299
-12.1120328903198
-12.6842555999756
-16.022216796875
-22.5074005126953
-28.1342506408691
-25.2731399536133
-19.9324016571045
-16.30832862854
-7.91573810577393
-7.24814605712891
-17.6435127258301
-16.6898097991943
-9.537034034729
-9.63240432739258
-16.1175880432129
-23.2703628540039
-19.7416610717773
-15.8314762115479
-14.687032699585
-9.72777462005615
-15.6407356262207
-25.3685111999512
-24.891658782959
-22.8888816833496
-17.0712909698486
-2.00277709960938
8.58333015441895
14.0194396972656
20.9814739227295
20.8861045837402
16.6898097991943
9.34629344940186
-1.9074068069458
-9.9185152053833
-12.7796258926392
-7.72499752044678
5.1499981880188
12.1120328903198
8.86944198608398
11.5398111343384
15.35462474823
7.24814605712891
-0.286111027002335
0.0953703373670578
0.47685170173645
-1.81203651428223
-2.76573991775513
1.52592539787292
7.53425693511963
11.5398111343384
9.82314491271973
3.33796191215515
3.8148136138916
7.0574049949646
3.62407302856445
1.23981440067291
11.7305517196655
25.7499923706055
24.4148063659668
19.360179901123
23.0796222686768
21.839807510376
16.30832862854
17.1666603088379
18.6925868988037
14.2101802825928
12.4935140609741
17.1666603088379
18.2157344818115
21.7444381713867
26.7036952972412
22.8888816833496
19.7416610717773
23.5564746856689
20.6953639984131
10.6814785003662
16.30832862854
25.2731399536133
22.7935104370117
25.2731399536133
32.04443359375
34.5240631103516
32.9027671813965
32.5212860107422
34.1425819396973
30.8046188354492
25.0823993682861
17.1666603088379
11.4444408416748
19.7416610717773
30.2323970794678
34.6194343566895
36.2407302856445
31.8536930084229
23.9379558563232
14.7824029922485
9.63240432739258
14.9731435775757
22.0305480957031
27.3712882995605
30.4231376647949
31.5675830841064
38.7203598022461
39.197208404541
31.2814712524414
29.7555465698242
32.4259147644043
30.8046188354492
25.4638805389404
20.5999927520752
13.256477355957
9.25092315673828
14.687032699585
14.4009208679199
14.1148099899292
25.7499923706055
35.0962867736816
42.2490615844727
48.2573928833008
45.6823921203613
40.913875579834
33.6657295227051
20.3138828277588
8.86944198608398
3.8148136138916
5.24536848068237
8.29721927642822
-1.71666610240936
-9.537034034729
-1.9074068069458
1.43055510520935
4.48240613937378
20.5046234130859
28.1342506408691
21.3629570007324
20.1231422424316
24.2240657806396
24.9870281219482
24.4148063659668
25.3685111999512
21.2675857543945
8.3925895690918
-8.48795986175537
-20.2185115814209
-16.7851791381836
-14.8777732849121
-28.7064723968506
-36.9083213806152
-44.5379486083984
-55.7916488647461
-54.6472053527832
-50.832389831543
-46.0638732910156
-37.5759124755859
-31.5675830841064
-26.0361022949219
-29.7555465698242
-35.7638778686523
-27.3712882995605
-15.35462474823
-10.8722190856934
-14.7824029922485
-18.2157344818115
-8.96481227874756
1.23981440067291
1.62129580974579
-4.67314672470093
-13.1611070632935
-10.8722190856934
-2.09814739227295
-2.8611102104187
-12.588885307312
-19.2648086547852
-11.635181427002
-3.71944332122803
-8.0111083984375
-9.25092315673828
-10.5861072540283
-14.687032699585
-9.34629344940186
-4.48240613937378
-12.588885307312
-20.9814739227295
-14.5916624069214
-6.38981294631958
-6.77129411697388
-5.7222204208374
2.95648050308228
6.58055353164673
-3.24259161949158
-12.7796258926392
-19.6462898254395
-32.1398048400879
-45.2055397033691
-64.3749771118164
-102.427742004395
-148.396255493164
-192.361968994141
-219.161041259766
-215.155487060547
-209.337890625
-214.106414794922
-199.896224975586
-141.338836669922
-48.066650390625
47.5897979736328
155.262908935547
302.705444335938
504.318359375
771.355285644531
1063.7607421875
1317.82739257813
1547.76525878906
1765.20959472656
1900.73083496094
1936.97155761719
1888.14196777344
1681.28369140625
1268.99768066406
757.431213378906
296.411010742188
-118.926811218262
-524.536865234375
-814.081237792969
-951.605224609375
-1050.21813964844
-1119.45703125
-1107.82189941406
-1052.31628417969
-962.477478027344
-843.264526367188
-755.333068847656
-725.100708007813
-736.068298339844
-765.537719726563
-797.486755371094
-809.78955078125
-774.788635253906
-701.830322265625
-622.386840820313
-548.570190429688
-502.029479980469
-492.969299316406
-498.596130371094
-515.667419433594
-533.978515625
-525.967407226563
-490.775756835938
-437.940612792969
-371.372100830078
-301.847137451172
-251.300842285156
-233.371215820313
-234.801773071289
-236.804550170898
-245.483261108398
-253.112884521484
-235.946228027344
-196.272155761719
-149.254577636719
-107.673110961914
-76.3916397094727
-61.7999801635742
-65.9009017944336
-71.1462707519531
-70.5740509033203
-70.3833084106445
-64.3749771118164
-47.3036880493164
-21.9351787567139
3.91018390655518
26.6083240509033
47.8759117126465
61.99072265625
65.805534362793
67.9990539550781
69.8110885620117
64.3749771118164
67.903678894043
83.7351608276367
96.8962631225586
116.44718170166
139.622177124023
148.873107910156
154.309204101563
167.374938964844
171.857345581055
166.802719116211
166.70735168457
165.849014282227
163.846237182617
167.947174072266
169.663833618164
164.895324707031
166.135131835938
173.669387817383
176.053649902344
175.767532348633
177.865676879883
175.481430053711
171.761978149414
170.9990234375
173.955505371094
177.770309448242
179.105499267578
186.830490112305
196.367523193359
201.612899780273
204.474014282227
201.994384765625
197.130493164063
191.503646850586
179.773086547852
173.860122680664
186.830490112305
200.468460083008
204.569381713867
203.424942016602
196.367523193359
187.116607666016
178.819381713867
172.143463134766
164.990692138672
156.407363891602
153.927734375
156.693466186523
158.982360839844
162.51106262207
160.126800537109
147.919403076172
129.989776611328
109.103668212891
100.615707397461
98.1360778808594
87.7407150268555
92.318489074707
112.537002563477
115.111999511719
107.482376098633
106.051818847656
89.7434921264648
73.1490478515625
70.3833084106445
65.6147918701172
65.2333145141602
62.4675712585449
65.805534362793
84.9749755859375
85.0703430175781
63.8027572631836
56.936092376709
55.887020111084
37.0036926269531
24.5101776123047
25.8453617095947
30.6138782501221
50.0694274902344
64.3749771118164
61.0370178222656
52.9305381774902
43.3935050964355
35.8592491149902
28.7064723968506
18.4064750671387
11.3490705490112
16.6898097991943
27.7527694702148
29.3740653991699
26.3222141265869
31.2814712524414
33.761100769043
14.4962921142578
-9.06018257141113
-15.1638841629028
-16.2129573822021
-22.0305480957031
-24.9870281219482
-17.738883972168
-4.00555419921875
-2.1935179233551
-12.588885307312
-18.8833274841309
-29.3740653991699
-43.679615020752
-46.8268356323242
-47.7805404663086
-48.3527641296387
-42.2490615844727
-33.5703582763672
-32.8073959350586
-41.1046180725098
-43.5842437744141
-46.1592445373535
-57.7944259643555
-67.2360916137695
-76.7731246948242
-83.2583084106445
-78.9666442871094
-76.3916397094727
-70.0971984863281
-57.1268348693848
-51.7860946655273
-51.8814659118652
-51.9768333435059
-61.7046089172363
-73.0536804199219
-75.3425674438477
-72.0999755859375
-61.7999801635742
-51.4999847412109
-51.1185035705566
-58.8434982299805
-70.7647933959961
-75.5333099365234
-76.1055297851563
-76.7731246948242
-74.4842376708984
-74.7703475952148
-70.0018310546875
-61.4184989929199
-57.3175735473633
-48.6388740539551
-44.0610961914063
-46.4453544616699
-47.8759117126465
-55.887020111084
-58.8434982299805
-55.6009063720703
-58.5573883056641
-57.2222023010254
-58.3666496276855
-66.0916442871094
-64.4703521728516
-59.701831817627
-57.3175735473633
-51.4999847412109
-46.9222068786621
-50.355541229248
-53.8842430114746
-52.453685760498
-52.6444282531738
-45.2055397033691
-37.3851737976074
-45.2055397033691
-49.783317565918
-43.2981338500977
-41.1999855041504
-40.2462844848633
-35.5731353759766
-37.0036926269531
-41.0092468261719
-44.3472061157227
-47.3036880493164
-46.1592445373535
-47.3990592956543
-45.7777633666992
-36.431468963623
-33.2842483520508
-32.8073959350586
-26.6083240509033
-28.8018417358398
-32.6166572570801
-23.0796222686768
-11.7305517196655
-3.24259161949158
0.9537034034729
-2.47962880134583
-12.9703664779663
-22.8888816833496
-21.7444381713867
-20.409252166748
-23.2703628540039
-19.6462898254395
-16.4990692138672
-20.1231422424316
-17.9296245574951
-10.8722190856934
-10.204626083374
-11.7305517196655
-17.738883972168
-26.0361022949219
-27.7527694702148
-31.1861019134521
-32.04443359375
-23.0796222686768
-15.6407356262207
-10.3953666687012
0.381481349468231
2.5749990940094
-11.3490705490112
-19.2648086547852
-19.360179901123
-24.3194370269775
-26.7990646362305
-22.2212886810303
-11.4444408416748
-0.667592406272888
0.762962698936462
-5.91296100616455
-10.9675893783569
-10.4907369613647
-11.8259220123291
-17.1666603088379
-24.1286964416504
-25.7499923706055
-16.7851791381836
-8.58333015441895
-6.00833129882813
-2.8611102104187
-4.7685170173645
-8.10647869110107
-7.15277528762817
-9.25092315673828
-7.53425693511963
2.76573991775513
10.9675893783569
8.10647869110107
0.9537034034729
4.29166507720947
7.72499752044678
-1.33518481254578
-9.537034034729
-10.9675893783569
-11.3490705490112
-9.44166374206543
-1.43055510520935
5.53147983551025
3.147221326828
1.62129580974579
4.00555419921875
0.572222054004669
-6.19907188415527
-11.0629596710205
-10.1092557907104
-0.9537034034729
7.24814605712891
8.67870044708252
7.82036781311035
9.15555286407471
13.5425882339478
17.4527721405029
19.1694374084473
13.256477355957
9.44166374206543
17.5481433868408
20.3138828277588
17.5481433868408
16.5944385528564
12.3981437683105
14.9731435775757
23.2703628540039
23.2703628540039
17.1666603088379
16.4036979675293
21.3629570007324
21.3629570007324
23.0796222686768
26.7036952972412
22.6027698516846
23.8425846099854
24.891658782959
18.2157344818115
17.738883972168
17.357400894165
12.3981437683105
11.8259220123291
15.35462474823
13.7333288192749
15.35462474823
26.8944358825684
28.6111011505127
23.5564746856689
26.7036952972412
28.3249912261963
27.8481388092041
35.1916542053223
43.4888763427734
43.8703575134277
40.3416519165039
38.6249885559082
37.3851737976074
32.7120246887207
33.0935096740723
36.8129501342773
34.3333206176758
26.5129547119141
17.9296245574951
23.9379558563232
40.2462844848633
47.3036880493164
51.404613494873
52.0722045898438
42.630542755127
37.0036926269531
35.0962867736816
28.4203605651855
25.7499923706055
22.4120292663574
15.7361059188843
18.9786968231201
18.5972156524658
6.1037015914917
8.10647869110107
18.787956237793
13.4472179412842
16.022216796875
29.0879535675049
29.3740653991699
29.1833248138428
21.6490669250488
9.25092315673828
12.302773475647
18.5018463134766
20.8861045837402
22.125919342041
19.074068069458
20.1231422424316
20.8861045837402
6.86666440963745
-5.34073925018311
-6.38981294631958
-8.86944198608398
-10.0138854980469
-12.4935140609741
-15.4499950408936
-16.5944385528564
-22.6981410980225
-34.2379531860352
-39.5786895751953
-29.6601753234863
-23.1749935150146
-23.8425846099854
-21.3629570007324
-22.125919342041
-24.5101776123047
-27.657398223877
-31.7583236694336
-27.943510055542
-24.3194370269775
-24.7962875366211
-19.360179901123
-19.1694374084473
-24.3194370269775
-25.0823993682861
-31.7583236694336
-35.8592491149902
-30.4231376647949
-23.6518440246582
-15.35462474823
-15.6407356262207
-13.8286991119385
-0.9537034034729
-5.43610954284668
-8.29721927642822
6.29444265365601
8.29721927642822
7.43888664245605
10.9675893783569
5.81759071350098
2.38425850868225
3.147221326828
-1.33518481254578
0.190740674734116
9.63240432739258
9.82314491271973
5.24536848068237
0.762962698936462
-6.00833129882813
-13.9240694046021
-31.3768424987793
-54.2657241821289
-90.220344543457
-152.306427001953
-189.310119628906
-180.059204101563
-171.857345581055
-171.094390869141
-147.633285522461
-94.416633605957
-31.0907306671143
43.8703575134277
132.278656005859
222.022155761719
361.644317626953
589.293334960938
856.330261230469
1106.00988769531
1326.60144042969
1519.72631835938
1658.2041015625
1728.68273925781
1735.16796875
1598.69299316406
1242.48474121094
779.461791992188
356.303588867188
-40.8185043334961
-390.732269287109
-633.640563964844
-811.983093261719
-941.877502441406
-1005.96636962891
-1004.4404296875
-949.316345214844
-873.306213378906
-796.819213867188
-743.125671386719
-729.487731933594
-741.027526855469
-772.499755859375
-802.159912109375
-795.007141113281
-757.145141601563
-692.007202148438
-599.974792480469
-510.803527832031
-446.810028076172
-416.005432128906
-422.109130859375
-452.246154785156
-488.963745117188
-507.084106445313
-480.094299316406
-425.25634765625
-364.028594970703
-295.266571044922
-233.657333374023
-200.84992980957
-199.991607666016
-213.534194946289
-230.510116577148
-253.208251953125
-258.358245849609
-225.264739990234
-170.712905883789
-117.49626159668
-76.1055297851563
-54.2657241821289
-49.8786888122559
-57.3175735473633
-71.2416458129883
-71.6231231689453
-61.4184989929199
-50.7370223999023
-23.9379558563232
10.6814785003662
38.8157272338867
63.8981285095215
74.9610900878906
73.8166427612305
71.1462707519531
63.6120147705078
59.8925743103027
60.4647941589355
63.4212760925293
81.5416412353516
108.531448364258
128.845321655273
139.336059570313
147.824020385742
151.448104858398
140.957366943359
131.897186279297
138.477737426758
145.630508422852
147.44255065918
155.549026489258
163.560134887695
165.944396972656
176.530502319336
193.124938964844
202.280487060547
200.468460083008
191.122161865234
188.261047363281
187.307342529297
173.09716796875
164.51383972168
170.331420898438
176.911987304688
186.353637695313
196.844375610352
200.75456237793
198.75178527832
191.885116577148
186.925872802734
182.538833618164
178.724014282227
181.299011230469
182.252716064453
180.822158813477
188.0703125
194.174011230469
192.171234130859
189.500869750977
175.958282470703
161.938842773438
161.080505371094
155.167541503906
149.826797485352
159.077728271484
173.669387817383
182.729568481445
180.631423950195
170.712905883789
155.83512878418
136.570327758789
118.259223937988
107.005523681641
104.430519104004
111.392555236816
123.790702819824
132.278656005859
136.188842773438
139.145324707031
131.706436157227
107.100891113281
86.9777526855469
76.8684921264648
62.3722038269043
52.9305381774902
56.7453536987305
66.5684967041016
76.2009048461914
76.4870147705078
61.7046089172363
35.2870254516602
13.0657367706299
5.34073925018311
4.95925760269165
11.0629596710205
18.5018463134766
25.9407329559326
39.1018409729004
50.4509086608887
53.6935005187988
46.4453544616699
28.0388793945313
8.3925895690918
-5.62685012817383
-10.2999963760376
-4.00555419921875
1.62129580974579
8.3925895690918
19.074068069458
16.022216796875
1.71666610240936
-10.6814785003662
-22.7935104370117
-37.2898025512695
-46.0638732910156
-45.6823921203613
-33.1888771057129
-11.635181427002
-4.67314672470093
-16.022216796875
-28.1342506408691
-36.7175827026367
-46.3499870300293
-51.0231323242188
-44.251838684082
-38.4342460632324
-42.4398002624512
-47.4944305419922
-44.7286911010742
-35.9546165466309
-35.6685066223145
-50.7370223999023
-66.9499816894531
-73.8166427612305
-77.1546020507813
-78.012939453125
-72.6721954345703
-67.3314590454102
-62.7536849975586
-57.3175735473633
-59.2249794006348
-66.854606628418
-70.2879409790039
-76.3916397094727
-90.6971969604492
-97.3731155395508
-89.6481170654297
-78.2990493774414
-67.1407165527344
-61.5138702392578
-67.6175689697266
-73.3397903442383
-75.5333099365234
-78.012939453125
-80.778678894043
-86.2147903442383
-82.5907135009766
-65.3286819458008
-55.6962776184082
-54.170352935791
-49.9740562438965
-52.3583183288574
-56.8407211303711
-58.8434982299805
-61.1323890686035
-58.7481307983398
-55.6962776184082
-62.0860900878906
-66.6638641357422
-60.8462753295898
-52.453685760498
-47.1129493713379
-51.6907234191895
-54.0749816894531
-47.9712791442871
-47.7805404663086
-42.0583190917969
-30.4231376647949
-32.5212860107422
-34.4286918640137
-29.6601753234863
-27.4666576385498
-27.1805477142334
-29.6601753234863
-24.4148063659668
-17.357400894165
-25.3685111999512
-29.5648059844971
-28.9925842285156
-34.5240631103516
-32.9981384277344
-28.7064723968506
-32.9027671813965
-32.8073959350586
-26.9898052215576
-31.6629524230957
-36.7175827026367
-34.6194343566895
-37.9573936462402
-41.0092468261719
-45.0148010253906
-50.9277610778809
-44.1564674377441
-33.761100769043
-28.0388793945313
-22.125919342041
-24.4148063659668
-30.70924949646
-28.9925842285156
-35.8592491149902
-53.121280670166
-54.8379440307617
-44.7286911010742
-40.4370231628418
-36.8129501342773
-30.0416564941406
-27.3712882995605
-27.7527694702148
-25.3685111999512
-25.9407329559326
-35.4777679443359
-46.1592445373535
-45.0148010253906
-35.2870254516602
-25.3685111999512
-17.8342533111572
-13.5425882339478
-13.5425882339478
-18.787956237793
-25.6546211242676
-33.0935096740723
-37.9573936462402
-34.3333206176758
-28.9925842285156
-24.4148063659668
-17.357400894165
-9.34629344940186
-5.62685012817383
-10.5861072540283
-18.5018463134766
-20.5999927520752
-16.4990692138672
-8.29721927642822
0.190740674734116
5.1499981880188
12.6842555999756
21.5536975860596
17.8342533111572
5.43610954284668
-0.381481349468231
0.667592406272888
0
5.24536848068237
19.7416610717773
26.0361022949219
27.0851764678955
32.1398048400879
34.7148017883301
30.6138782501221
23.4611034393311
20.5999927520752
20.3138828277588
17.9296245574951
17.9296245574951
12.7796258926392
9.25092315673828
26.6083240509033
37.7666549682617
28.4203605651855
23.1749935150146
16.2129573822021
6.00833129882813
6.86666440963745
6.48518323898315
6.86666440963745
24.2240657806396
37.7666549682617
34.9055442810059
32.5212860107422
28.8972129821777
19.074068069458
15.2592544555664
18.9786968231201
20.1231422424316
15.6407356262207
17.1666603088379
25.3685111999512
22.6027698516846
15.8314762115479
18.3111057281494
19.8370304107666
16.4990692138672
21.839807510376
37.7666549682617
43.1073951721191
38.0527648925781
43.679615020752
49.3064651489258
43.3935050964355
34.810173034668
34.2379531860352
36.6222114562988
26.7036952972412
22.125919342041
30.0416564941406
26.5129547119141
20.8861045837402
26.0361022949219
33.0935096740723
38.3388748168945
36.2407302856445
30.2323970794678
29.9462871551514
27.5620288848877
22.9842510223389
24.2240657806396
25.3685111999512
26.0361022949219
29.8509159088135
30.70924949646
29.7555465698242
31.5675830841064
35.0009155273438
35.2870254516602
25.2731399536133
15.1638841629028
17.4527721405029
16.022216796875
12.302773475647
24.4148063659668
32.9027671813965
28.9925842285156
33.9518394470215
44.4425773620605
49.3064651489258
50.7370223999023
48.734245300293
42.7259140014648
34.2379531860352
25.177770614624
24.0333251953125
25.177770614624
13.9240694046021
12.1120328903198
24.7009181976318
23.9379558563232
15.4499950408936
10.8722190856934
17.9296245574951
29.3740653991699
22.6981410980225
13.4472179412842
19.2648086547852
21.7444381713867
17.5481433868408
19.360179901123
19.6462898254395
12.6842555999756
5.34073925018311
1.33518481254578
-3.43333220481873
-11.4444408416748
-18.8833274841309
-24.2240657806396
-30.5185089111328
-38.148136138916
-39.5786895751953
-40.4370231628418
-41.5814666748047
-35.0962867736816
-34.3333206176758
-40.7231369018555
-41.5814666748047
-41.7722091674805
-39.4833221435547
-34.4286918640137
-38.4342460632324
-45.1101722717285
-46.9222068786621
-47.017578125
-42.8212814331055
-36.9083213806152
-30.8046188354492
-20.5999927520752
-10.0138854980469
-9.06018257141113
-15.2592544555664
-16.8805503845215
-16.7851791381836
-19.1694374084473
-17.2620315551758
-9.82314491271973
-7.43888664245605
-15.9268465042114
-20.5046234130859
-20.3138828277588
-26.0361022949219
-26.3222141265869
-22.5074005126953
-22.6027698516846
-23.1749935150146
-25.6546211242676
-23.8425846099854
-16.4990692138672
-12.0166625976563
-11.635181427002
-13.8286991119385
-17.8342533111572
-19.7416610717773
-23.4611034393311
-41.5814666748047
-67.3314590454102
-95.3703384399414
-147.44255065918
-204.569381713867
-222.594375610352
-216.776779174805
-212.199005126953
-206.095306396484
-171.285125732422
-96.3240432739258
-10.1092557907104
73.2444229125977
179.010131835938
341.330444335938
562.589660644531
835.82568359375
1124.98852539063
1365.03564453125
1572.75231933594
1758.53369140625
1862.39196777344
1882.32434082031
1802.30871582031
1535.27172851563
1083.12097167969
597.018310546875
164.132354736328
-257.309173583984
-622.196105957031
-849.463623046875
-976.496887207031
-1064.3330078125
-1098.28479003906
-1063.95153808594
-996.715393066406
-912.694152832031
-820.8525390625
-760.3876953125
-757.145141601563
-783.276611328125
-806.165466308594
-824.858093261719
-820.184936523438
-770.783081054688
-693.151611328125
-606.841491699219
-531.785034179688
-492.683166503906
-485.721130371094
-492.873901367188
-503.746124267578
-508.419281005859
-499.454467773438
-467.410034179688
-410.950805664063
-346.766540527344
-292.88232421875
-259.788818359375
-243.098999023438
-238.425842285156
-245.197143554688
-254.829544067383
-255.497146606445
-232.89436340332
-183.111053466797
-126.556442260742
-81.3508987426758
-48.6388740539551
-31.8536930084229
-30.70924949646
-41.2953567504883
-56.0777587890625
-57.5083160400391
-43.7749862670898
-22.3166599273682
3.91018390655518
28.2296199798584
57.7944259643555
84.9749755859375
89.1712646484375
75.7240524291992
67.0453491210938
73.0536804199219
77.6314544677734
85.4518280029297
106.814781188965
115.970336914063
119.212921142578
137.428665161133
150.589767456055
153.450881958008
150.399032592773
139.526809692383
141.624954223633
147.919403076172
144.390701293945
149.54069519043
165.849014282227
184.636978149414
199.896224975586
201.994384765625
203.04345703125
214.487899780273
218.588821411133
210.005493164063
197.988830566406
188.642532348633
193.124938964844
206.095306396484
214.774002075195
212.485122680664
208.861038208008
213.152709960938
208.288818359375
193.220306396484
187.116607666016
183.77864074707
173.955505371094
171.952728271484
176.721237182617
175.672164916992
174.813827514648
179.677719116211
185.399948120117
187.593460083008
184.732345581055
179.48698425293
172.238830566406
164.60920715332
162.987915039063
166.039764404297
169.568466186523
174.909210205078
178.437911987305
174.813827514648
165.276794433594
147.251800537109
127.986999511719
116.733299255371
105.574966430664
101.283302307129
116.161071777344
127.700881958008
129.894409179688
133.327728271484
120.262001037598
97.3731155395508
82.4953460693359
70.6694183349609
67.5222015380859
69.7157211303711
65.7101669311523
70.0971984863281
86.5962677001953
98.7083053588867
90.9833068847656
72.0046081542969
61.5138702392578
48.6388740539551
34.810173034668
36.6222114562988
42.7259140014648
48.9249839782715
62.8490524291992
74.198127746582
70.6694183349609
48.4481315612793
23.3657341003418
5.53147983551025
-6.19907188415527
-11.2537002563477
-11.9212923049927
-0.381481349468231
20.409252166748
31.9490642547607
37.1944313049316
33.5703582763672
15.1638841629028
2.67036962509155
-2.67036962509155
-15.5453653335571
-21.9351787567139
-14.0194396972656
-7.15277528762817
-6.58055353164673
-12.0166625976563
-19.1694374084473
-27.1805477142334
-41.0092468261719
-45.6823921203613
-44.4425773620605
-50.4509086608887
-48.2573928833008
-40.6277656555176
-41.5814666748047
-44.1564674377441
-49.2110939025879
-58.5573883056641
-67.0453491210938
-77.1546020507813
-78.9666442871094
-75.4379425048828
-74.198127746582
-66.7592391967773
-65.7101669311523
-70.7647933959961
-72.0046081542969
-76.3916397094727
-87.9314498901367
-98.7083053588867
-102.046264648438
-107.86385345459
-109.580520629883
-96.0379333496094
-81.3508987426758
-74.6749725341797
-76.5823822021484
-78.9666442871094
-85.4518280029297
-95.5610809326172
-87.7407150268555
-75.9147872924805
-82.3046035766602
-86.8823776245117
-79.1573791503906
-68.2851638793945
-54.8379440307617
-48.5435028076172
-58.0805358886719
-68.4759063720703
-68.1897964477539
-56.8407211303711
-44.1564674377441
-50.4509086608887
-61.7999801635742
-54.9333152770996
-50.832389831543
-55.7916488647461
-54.8379440307617
-53.5981292724609
-50.2601699829102
-49.0203552246094
-57.6036834716797
-54.9333152770996
-46.3499870300293
-48.066650390625
-50.355541229248
-50.2601699829102
-43.8703575134277
-36.7175827026367
-34.6194343566895
-31.5675830841064
-40.0555419921875
-53.121280670166
-52.1675758361816
-55.6962776184082
-61.8953514099121
-56.8407211303711
-50.1647987365723
-42.3444290161133
-32.04443359375
-26.3222141265869
-30.0416564941406
-40.6277656555176
-52.8351669311523
-57.2222023010254
-50.0694274902344
-41.1999855041504
-37.0036926269531
-38.8157272338867
-37.8620262145996
-28.3249912261963
-24.6055469512939
-32.9027671813965
-39.5786895751953
-40.7231369018555
-48.2573928833008
-50.9277610778809
-42.9166526794434
-38.7203598022461
-33.5703582763672
-24.9870281219482
-15.5453653335571
-10.1092557907104
-15.1638841629028
-23.4611034393311
-27.3712882995605
-28.4203605651855
-24.1286964416504
-16.1175880432129
-16.5944385528564
-19.074068069458
-10.7768487930298
-4.57777643203735
-14.4962921142578
-20.1231422424316
-18.1203651428223
-26.8944358825684
-28.8972129821777
-16.9759197235107
-0.667592406272888
14.1148099899292
18.2157344818115
17.2620315551758
16.6898097991943
8.96481227874756
-4.10092449188232
-3.62407302856445
8.96481227874756
9.63240432739258
5.7222204208374
9.537034034729
7.72499752044678
0.381481349468231
-5.7222204208374
-12.1120328903198
-16.5944385528564
-18.0249938964844
-19.9324016571045
-24.4148063659668
-22.125919342041
-16.6898097991943
-15.2592544555664
-10.5861072540283
-7.34351634979248
-9.9185152053833
-4.48240613937378
4.48240613937378
4.48240613937378
3.33796191215515
6.00833129882813
13.256477355957
18.3111057281494
12.588885307312
6.19907188415527
8.10647869110107
14.0194396972656
18.5018463134766
17.357400894165
16.30832862854
20.9814739227295
21.0768451690674
22.8888816833496
31.3768424987793
31.4722118377686
26.8944358825684
28.1342506408691
25.9407329559326
18.787956237793
15.8314762115479
16.8805503845215
19.360179901123
22.5074005126953
29.9462871551514
36.431468963623
34.3333206176758
32.7120246887207
34.810173034668
30.2323970794678
25.177770614624
28.0388793945313
31.0907306671143
31.8536930084229
34.7148017883301
37.7666549682617
34.1425819396973
27.2759170532227
27.1805477142334
32.9981384277344
28.6111011505127
20.409252166748
24.891658782959
29.1833248138428
26.8944358825684
30.0416564941406
39.197208404541
45.9685020446777
48.3527641296387
51.5953521728516
51.9768333435059
41.5814666748047
31.0907306671143
29.1833248138428
34.2379531860352
45.0148010253906
50.5462799072266
46.5407257080078
44.251838684082
42.3444290161133
33.3796195983887
25.3685111999512
26.7036952972412
27.657398223877
24.7009181976318
35.7638778686523
38.2435073852539
17.1666603088379
4.67314672470093
3.147221326828
8.77407169342041
24.0333251953125
24.6055469512939
16.4036979675293
22.0305480957031
25.7499923706055
19.5509204864502
15.35462474823
11.9212923049927
16.30832862854
25.2731399536133
18.9786968231201
13.4472179412842
22.6027698516846
29.6601753234863
36.1453590393066
42.5351715087891
39.1018409729004
41.3907279968262
47.9712791442871
41.8675804138184
28.5157318115234
14.9731435775757
5.81759071350098
3.5287024974823
3.71944332122803
0.667592406272888
-1.62129580974579
5.34073925018311
20.5999927520752
32.3305435180664
30.6138782501221
21.7444381713867
19.360179901123
22.125919342041
22.6981410980225
18.3111057281494
12.3981437683105
15.5453653335571
19.9324016571045
7.43888664245605
-11.9212923049927
-20.7907333374023
-26.4175834655762
-30.0416564941406
-27.8481388092041
-29.1833248138428
-39.5786895751953
-51.6907234191895
-54.0749816894531
-47.6851692199707
-37.2898025512695
-29.0879535675049
-28.9925842285156
-30.8999900817871
-30.4231376647949
-29.6601753234863
-28.8018417358398
-21.9351787567139
-15.6407356262207
-17.0712909698486
-13.0657367706299
-6.58055353164673
-7.15277528762817
-11.3490705490112
-17.357400894165
-21.3629570007324
-26.226842880249
-30.70924949646
-30.3277683258057
-30.995361328125
-29.8509159088135
-25.0823993682861
-23.8425846099854
-24.5101776123047
-23.9379558563232
-24.1286964416504
-20.9814739227295
-15.0685138702393
-19.8370304107666
-28.0388793945313
-20.1231422424316
-7.82036781311035
-9.25092315673828
-12.6842555999756
-8.48795986175537
-6.6759238243103
-7.53425693511963
-9.34629344940186
-22.0305480957031
-41.8675804138184
-58.5573883056641
-79.5388641357422
-106.719413757324
-151.63883972168
-206.953643798828
-234.134185791016
-234.134185791016
-229.937896728516
-225.455490112305
-202.089752197266
-138.573104858398
-52.453685760498
31.8536930084229
138.76383972168
300.988800048828
512.424865722656
775.837707519531
1068.43395996094
1324.5986328125
1551.0078125
1750.80871582031
1869.44934082031
1910.6494140625
1853.99938964844
1618.81616210938
1195.27648925781
698.68310546875
250.442504882813
-172.715682983398
-571.172973632813
-833.632141113281
-964.194152832031
-1056.41723632813
-1114.02099609375
-1102.9580078125
-1037.15246582031
-943.403381347656
-845.076599121094
-776.219177246094
-761.722900390625
-774.502502441406
-789.094177246094
-808.072875976563
-810.934020996094
-776.982177734375
-709.650695800781
-626.678527832031
-554.483154296875
-511.471130371094
-496.784088134766
-499.359100341797
-517.384094238281
-533.406311035156
-520.817443847656
-491.347991943359
-449.289672851563
-383.960998535156
-315.866577148438
-267.036956787109
-247.962890625
-255.783248901367
-268.658233642578
-270.661010742188
-261.505462646484
-244.052703857422
-213.343444824219
-165.753646850586
-111.1064453125
-68.3805313110352
-49.9740562438965
-47.017578125
-39.1018409729004
-27.1805477142334
-27.0851764678955
-32.04443359375
-25.5592517852783
-6.29444265365601
25.8453617095947
55.887020111084
64.6610870361328
66.6638641357422
78.1083068847656
84.5934906005859
78.7759017944336
72.8629379272461
72.7675704956055
83.0675659179688
101.855522155762
115.874961853027
125.411994934082
143.532363891602
161.461990356445
164.704574584961
170.426803588867
177.579574584961
175.481430053711
173.287902832031
174.813827514648
185.113830566406
195.318450927734
196.081420898438
200.659194946289
212.199005126953
218.684188842773
216.872146606445
211.245300292969
203.901779174805
201.803634643555
203.424942016602
202.948089599609
205.427719116211
207.621231079102
208.574935913086
216.013824462891
221.736038208008
217.253631591797
209.814743041992
197.607345581055
182.824935913086
180.154571533203
184.827713012695
180.822158813477
179.200866699219
184.636978149414
184.732345581055
187.784194946289
188.261047363281
176.149017333984
164.60920715332
159.173095703125
166.421249389648
173.764755249023
171.285125732422
177.102722167969
183.587905883789
176.721237182617
169.186981201172
165.944396972656
156.598098754883
146.298095703125
140.861999511719
135.998107910156
133.899963378906
135.044403076172
137.047180175781
137.905517578125
137.333282470703
124.649032592773
102.52311706543
97.3731155395508
102.046264648438
99.4712677001953
102.904594421387
115.684219360352
123.9814453125
121.501815795898
112.346260070801
100.711082458496
85.3564529418945
68.1897964477539
49.3064651489258
34.6194343566895
42.3444290161133
60.5601654052734
67.3314590454102
65.7101669311523
56.0777587890625
42.2490615844727
35.5731353759766
21.7444381713867
0
-5.91296100616455
-0.572222054004669
4.38703584671021
7.82036781311035
7.24814605712891
7.0574049949646
3.33796191215515
-14.3055505752563
-39.1018409729004
-57.4129447937012
-66.0916442871094
-65.3286819458008
-58.1759071350098
-52.5490570068359
-40.0555419921875
-24.2240657806396
-21.9351787567139
-25.5592517852783
-31.6629524230957
-39.7694320678711
-43.5842437744141
-50.832389831543
-60.8462753295898
-59.3203506469727
-54.5518341064453
-60.8462753295898
-69.8110885620117
-72.9583129882813
-74.4842376708984
-82.876823425293
-89.0758972167969
-89.1712646484375
-92.4138565063477
-87.9314498901367
-77.7268295288086
-81.3508987426758
-86.1194152832031
-78.1083068847656
-76.8684921264648
-86.7870101928711
-88.1221923828125
-84.2120132446289
-86.5962677001953
-91.269416809082
-91.3647842407227
-87.1684875488281
-82.3999710083008
-81.3508987426758
-87.4546051025391
-95.4657135009766
-98.899040222168
-98.0407104492188
-91.0786743164063
-80.778678894043
-79.1573791503906
-77.5360870361328
-64.1842422485352
-57.6036834716797
-61.6092376708984
-56.936092376709
-51.1185035705566
-52.6444282531738
-54.3610954284668
-57.3175735473633
-61.2277565002441
-62.6583137512207
-62.1814613342285
-56.4592399597168
-49.8786888122559
-51.2138710021973
-51.2138710021973
-49.0203552246094
-52.453685760498
-54.4564628601074
-52.7397994995117
-48.2573928833008
-42.8212814331055
-45.5870208740234
-50.0694274902344
-44.7286911010742
-37.099063873291
-35.1916542053223
-37.1944313049316
-36.6222114562988
-28.8972129821777
-14.7824029922485
-13.5425882339478
-31.4722118377686
-37.0036926269531
-26.4175834655762
-24.0333251953125
-25.4638805389404
-29.278694152832
-44.7286911010742
-56.8407211303711
-53.2166481018066
-51.8814659118652
-58.2712783813477
-52.2629470825195
-35.5731353759766
-26.6083240509033
-15.7361059188843
0.190740674734116
-2.09814739227295
-17.2620315551758
-19.360179901123
-17.1666603088379
-23.7472152709961
-24.5101776123047
-20.1231422424316
-17.357400894165
-16.1175880432129
-15.7361059188843
-10.9675893783569
-9.25092315673828
-11.8259220123291
-13.0657367706299
-15.1638841629028
-19.360179901123
-27.7527694702148
-33.1888771057129
-23.1749935150146
-16.022216796875
-26.4175834655762
-23.3657341003418
-10.2999963760376
-19.1694374084473
-26.7990646362305
-23.6518440246582
-26.9898052215576
-21.3629570007324
-3.5287024974823
8.77407169342041
10.6814785003662
4.67314672470093
-4.29166507720947
-13.256477355957
-16.9759197235107
-16.30832862854
-16.2129573822021
-16.6898097991943
-13.9240694046021
-10.3953666687012
-7.6296272277832
-3.91018390655518
-5.62685012817383
-12.4935140609741
-15.2592544555664
-15.5453653335571
-11.0629596710205
3.62407302856445
12.3981437683105
9.9185152053833
4.48240613937378
-2.09814739227295
-5.81759071350098
-8.77407169342041
-5.34073925018311
3.62407302856445
1.23981440067291
3.147221326828
16.4990692138672
19.5509204864502
18.4064750671387
20.3138828277588
17.6435127258301
14.4962921142578
16.9759197235107
22.7935104370117
24.7009181976318
22.4120292663574
24.1286964416504
28.1342506408691
31.4722118377686
36.0499877929688
35.4777679443359
32.04443359375
35.4777679443359
33.9518394470215
26.5129547119141
25.9407329559326
27.3712882995605
30.6138782501221
39.6740608215332
44.251838684082
38.0527648925781
32.4259147644043
31.3768424987793
27.3712882995605
17.1666603088379
2.76573991775513
-0.572222054004669
2.5749990940094
4.29166507720947
12.4935140609741
15.35462474823
9.537034034729
9.44166374206543
6.58055353164673
-3.24259161949158
-3.24259161949158
6.77129411697388
13.7333288192749
19.6462898254395
23.5564746856689
21.4583263397217
9.9185152053833
-1.52592539787292
5.53147983551025
15.9268465042114
10.7768487930298
9.34629344940186
18.1203651428223
23.9379558563232
28.1342506408691
28.3249912261963
24.7962875366211
28.0388793945313
29.9462871551514
21.6490669250488
16.4990692138672
20.8861045837402
19.2648086547852
6.96203470230103
6.19907188415527
17.6435127258301
17.9296245574951
15.35462474823
18.9786968231201
23.7472152709961
29.3740653991699
28.3249912261963
22.3166599273682
16.30832862854
5.91296100616455
6.00833129882813
27.1805477142334
40.4370231628418
41.1046180725098
53.5027618408203
62.6583137512207
55.3147964477539
47.7805404663086
40.2462844848633
28.9925842285156
24.5101776123047
19.360179901123
8.29721927642822
6.86666440963745
7.15277528762817
6.29444265365601
21.4583263397217
32.3305435180664
26.8944358825684
26.5129547119141
31.7583236694336
31.5675830841064
29.3740653991699
26.3222141265869
26.7990646362305
22.3166599273682
11.5398111343384
11.635181427002
11.8259220123291
6.29444265365601
3.33796191215515
-3.71944332122803
-9.82314491271973
-13.256477355957
-19.8370304107666
-24.6055469512939
-33.3796195983887
-38.9110984802246
-33.5703582763672
-36.3360977172852
-44.6333198547363
-45.3962821960449
-42.5351715087891
-39.7694320678711
-36.6222114562988
-36.5268402099609
-36.2407302856445
-27.943510055542
-27.2759170532227
-31.5675830841064
-24.891658782959
-21.839807510376
-23.4611034393311
-21.6490669250488
-15.8314762115479
-3.8148136138916
1.62129580974579
-2.47962880134583
-4.95925760269165
-6.00833129882813
-10.4907369613647
-16.1175880432129
-16.4990692138672
-9.06018257141113
0
4.38703584671021
2.8611102104187
2.00277709960938
8.58333015441895
14.4009208679199
7.53425693511963
-2.76573991775513
-1.71666610240936
2.95648050308228
-0.381481349468231
-4.86388731002808
-5.62685012817383
-6.77129411697388
-5.05462789535522
-3.71944332122803
-12.7796258926392
-27.4666576385498
-42.9166526794434
-67.7129440307617
-96.3240432739258
-133.995330810547
-188.642532348633
-218.111968994141
-207.525863647461
-202.566604614258
-201.422164916992
-167.184204101563
-98.8036727905273
-18.9786968231201
65.6147918701172
166.325866699219
306.329528808594
505.748901367188
759.720153808594
1032.09777832031
1276.72277832031
1503.03649902344
1706.07995605469
1823.09936523438
1863.25036621094
1816.0419921875
1584.8642578125
1154.07653808594
658.436828613281
223.548080444336
-172.620315551758
-534.073913574219
-788.045104980469
-929.57470703125
-1010.92559814453
-1057.08483886719
-1045.64038085938
-984.603393554688
-908.593200683594
-818.658996582031
-745.891418457031
-728.438659667969
-743.888671875
-771.546020507813
-801.873840332031
-802.636779785156
-765.442321777344
-701.830322265625
-615.901672363281
-531.975769042969
-482.001708984375
-474.944305419922
-496.593353271484
-522.438720703125
-536.07666015625
-527.874816894531
-488.868347167969
-422.490600585938
-341.139709472656
-269.898071289063
-236.518447875977
-226.50456237793
-225.074005126953
-239.856399536133
-255.497146606445
-259.311950683594
-242.908248901367
-199.896224975586
-150.875885009766
-102.332374572754
-60.5601654052734
-38.0527648925781
-32.9027671813965
-41.962947845459
-52.9305381774902
-64.3749771118164
-72.8629379272461
-55.5055389404297
-23.3657341003418
3.71944332122803
25.6546211242676
47.3036880493164
65.9962768554688
67.1407165527344
61.1323890686035
62.4675712585449
69.7157211303711
82.3999710083008
95.3703384399414
109.485153198242
128.273101806641
149.445327758789
163.846237182617
158.1240234375
151.63883972168
159.936065673828
160.699020385742
157.551803588867
155.167541503906
153.927734375
163.369384765625
171.475875854492
173.001800537109
173.478652954102
178.914764404297
184.350860595703
175.958282470703
170.9990234375
169.377716064453
161.557357788086
162.606430053711
175.576797485352
190.740676879883
197.416610717773
195.127716064453
198.465682983398
208.765670776367
208.193450927734
195.604568481445
188.165679931641
179.48698425293
174.241607666016
182.348083496094
187.307342529297
191.503646850586
202.471237182617
205.618453979492
201.040679931641
194.078643798828
175.099945068359
152.974029541016
141.052734375
131.992553710938
130.561996459961
140.957366943359
148.491622924805
146.298095703125
140.480514526367
141.148101806641
140.575881958008
124.649032592773
108.245338439941
108.340705871582
118.354591369629
124.172180175781
129.131439208984
145.153656005859
151.829574584961
141.434219360352
127.128662109375
104.716636657715
81.2555313110352
70.8601608276367
74.5796051025391
80.4925689697266
84.3073806762695
95.9425582885742
101.37866973877
93.8444137573242
86.5962677001953
70.9555358886719
44.7286911010742
29.278694152832
24.5101776123047
29.5648059844971
50.832389831543
68.1897964477539
72.3860855102539
66.1870193481445
55.3147964477539
48.9249839782715
34.2379531860352
8.67870044708252
-3.5287024974823
-0.190740674734116
-3.43333220481873
-11.635181427002
-9.63240432739258
-9.537034034729
-13.1611070632935
-8.58333015441895
-10.7768487930298
-27.3712882995605
-40.1509132385254
-40.7231369018555
-36.3360977172852
-29.1833248138428
-23.7472152709961
-22.125919342041
-21.6490669250488
-27.5620288848877
-41.8675804138184
-54.8379440307617
-56.2685012817383
-50.1647987365723
-45.7777633666992
-46.1592445373535
-46.9222068786621
-48.9249839782715
-52.7397994995117
-50.0694274902344
-53.2166481018066
-65.805534362793
-73.3397903442383
-78.2036819458008
-82.0184936523438
-75.7240524291992
-67.2360916137695
-71.7184982299805
-75.8194198608398
-70.8601608276367
-71.8138656616211
-82.876823425293
-93.2721939086914
-91.1740417480469
-84.5934906005859
-84.1166381835938
-76.5823822021484
-67.0453491210938
-75.0564575195313
-82.3046035766602
-82.7814559936523
-93.6536712646484
-93.4629364013672
-79.3481216430664
-79.729606628418
-87.1684875488281
-80.9694213867188
-69.2388687133789
-67.2360916137695
-63.4212760925293
-52.7397994995117
-54.0749816894531
-63.7073860168457
-61.99072265625
-61.323127746582
-62.9444236755371
-51.3092422485352
-42.630542755127
-46.7314682006836
-52.8351669311523
-51.8814659118652
-47.7805404663086
-50.5462799072266
-51.4999847412109
-44.1564674377441
-40.6277656555176
-38.6249885559082
-37.2898025512695
-36.6222114562988
-31.5675830841064
-32.9027671813965
-36.9083213806152
-34.4286918640137
-32.1398048400879
-28.6111011505127
-23.5564746856689
-22.125919342041
-20.2185115814209
-11.2537002563477
-4.10092449188232
-7.53425693511963
-9.06018257141113
-7.53425693511963
-14.5916624069214
-21.839807510376
-25.7499923706055
-33.8564720153809
-34.810173034668
-32.3305435180664
-36.431468963623
-31.8536930084229
-20.7907333374023
-14.4962921142578
-9.34629344940186
-10.1092557907104
-16.6898097991943
-17.357400894165
-15.2592544555664
-15.35462474823
-13.4472179412842
-9.72777462005615
-1.9074068069458
0.572222054004669
-6.96203470230103
-12.588885307312
-15.7361059188843
-19.2648086547852
-20.0277709960938
-23.4611034393311
-28.8018417358398
-28.5157318115234
-23.3657341003418
-15.0685138702393
-15.4499950408936
-25.0823993682861
-24.3194370269775
-23.0796222686768
-29.8509159088135
-33.5703582763672
-39.7694320678711
-46.3499870300293
-43.679615020752
-37.7666549682617
-30.3277683258057
-22.8888816833496
-20.9814739227295
-21.0768451690674
-19.7416610717773
-17.357400894165
-14.8777732849121
-20.7907333374023
-27.7527694702148
-20.0277709960938
-2.5749990940094
9.72777462005615
8.58333015441895
6.00833129882813
3.91018390655518
-2.5749990940094
-8.0111083984375
-16.2129573822021
-21.7444381713867
-23.7472152709961
-24.7962875366211
-14.2101802825928
2.00277709960938
10.3953666687012
7.24814605712891
-1.04907369613647
-2.76573991775513
0.190740674734116
2.28888821601868
3.147221326828
0
1.23981440067291
9.15555286407471
8.77407169342041
5.1499981880188
5.91296100616455
4.95925760269165
0.762962698936462
-0.381481349468231
10.0138854980469
16.2129573822021
14.7824029922485
27.3712882995605
38.4342460632324
33.4749908447266
26.226842880249
20.0277709960938
18.5018463134766
25.4638805389404
32.4259147644043
38.0527648925781
37.099063873291
32.04443359375
31.5675830841064
28.9925842285156
23.2703628540039
26.5129547119141
32.6166572570801
31.0907306671143
25.9407329559326
28.0388793945313
39.9601707458496
49.4018363952637
50.0694274902344
49.4972076416016
49.1157264709473
45.0148010253906
37.1944313049316
31.2814712524414
33.3796195983887
45.8731346130371
54.7425765991211
50.7370223999023
48.1620216369629
52.7397994995117
53.121280670166
46.3499870300293
42.0583190917969
39.0064697265625
30.995361328125
25.4638805389404
28.3249912261963
30.8046188354492
31.1861019134521
39.197208404541
42.7259140014648
35.6685066223145
39.197208404541
40.7231369018555
35.0962867736816
43.679615020752
45.9685020446777
31.7583236694336
27.0851764678955
32.5212860107422
31.5675830841064
23.5564746856689
14.5916624069214
10.9675893783569
17.4527721405029
22.6981410980225
18.3111057281494
22.0305480957031
31.2814712524414
35.6685066223145
39.0064697265625
31.0907306671143
20.0277709960938
20.409252166748
23.1749935150146
19.7416610717773
9.63240432739258
-2.76573991775513
-8.77407169342041
-10.3953666687012
-13.4472179412842
-10.4907369613647
-10.8722190856934
-23.9379558563232
-32.9027671813965
-39.9601707458496
-51.6907234191895
-53.6935005187988
-45.3962821960449
-37.3851737976074
-32.4259147644043
-33.8564720153809
-44.6333198547363
-50.2601699829102
-41.3907279968262
-33.9518394470215
-30.8046188354492
-26.7990646362305
-27.7527694702148
-33.0935096740723
-35.0009155273438
-31.5675830841064
-28.1342506408691
-23.3657341003418
-17.6435127258301
-15.0685138702393
-11.3490705490112
-10.5861072540283
-18.787956237793
-24.7009181976318
-22.6027698516846
-21.5536975860596
-20.2185115814209
-10.7768487930298
-5.1499981880188
-11.3490705490112
-24.1286964416504
-28.3249912261963
-18.9786968231201
-16.6898097991943
-21.1722145080566
-18.5972156524658
-14.7824029922485
-11.5398111343384
-6.86666440963745
-5.81759071350098
-5.24536848068237
-0.9537034034729
0.572222054004669
-3.147221326828
-17.357400894165
-43.5842437744141
-67.0453491210938
-91.1740417480469
-135.235137939453
-183.587905883789
-199.133270263672
-185.495315551758
-175.099945068359
-177.102722167969
-156.02587890625
-86.6916351318359
2.28888821601868
80.2064590454102
160.317535400391
287.636932373047
489.34521484375
747.226623535156
1016.17095947266
1257.74401855469
1467.65417480469
1630.06982421875
1725.9169921875
1764.63745117188
1691.67907714844
1413.19775390625
964.098754882813
506.702606201172
99.948112487793
-288.781402587891
-587.958129882813
-774.693298339844
-905.9228515625
-984.317260742188
-1004.72650146484
-963.145080566406
-879.791381835938
-803.685852050781
-744.079406738281
-704.882202148438
-704.882202148438
-738.929382324219
-780.320129394531
-793.00439453125
-764.488647460938
-702.307189941406
-609.511840820313
-519.863708496094
-457.777618408203
-417.435974121094
-414.956359863281
-445.188751220703
-474.085968017578
-485.435028076172
-474.181335449219
-432.409118652344
-363.456359863281
-291.451751708984
-232.322143554688
-194.36474609375
-183.874008178711
-192.552719116211
-210.196228027344
-230.510116577148
-237.472152709961
-218.398071289063
-183.206420898438
-135.425888061523
-79.6342315673828
-41.0092468261719
-31.6629524230957
-39.9601707458496
-44.9194297790527
-45.0148010253906
-50.2601699829102
-46.5407257080078
-22.4120292663574
10.6814785003662
42.1536903381348
71.6231231689453
90.4110794067383
92.318489074707
90.9833068847656
88.5990447998047
81.3508987426758
84.7842330932617
95.6564483642578
102.427742004395
112.441627502441
128.177734375
147.728652954102
161.557357788086
159.268463134766
153.069396972656
151.448104858398
148.777725219727
148.873107910156
156.407363891602
157.551803588867
152.401809692383
159.840682983398
166.325866699219
161.843460083008
170.522171020508
181.68049621582
178.342529296875
170.712905883789
161.557357788086
155.167541503906
158.410140991211
165.467544555664
170.617538452148
179.58235168457
183.206420898438
181.775863647461
189.500869750977
192.648086547852
180.536056518555
165.276794433594
156.884216308594
156.788833618164
162.129577636719
170.331420898438
175.004577636719
173.955505371094
177.29345703125
179.3916015625
172.620315551758
160.41291809082
141.148101806641
128.177734375
130.37126159668
135.616622924805
139.526809692383
142.864776611328
147.44255065918
150.780502319336
142.769393920898
124.744407653809
107.100891113281
94.2258987426758
92.318489074707
99.8527450561523
104.907371520996
111.774040222168
125.888847351074
135.139770507813
131.229583740234
115.302742004395
90.6018218994141
66.5684967041016
55.4101676940918
53.5981292724609
57.6990547180176
74.6749725341797
89.2666397094727
88.2175674438477
83.7351608276367
76.6777496337891
59.9879455566406
37.0036926269531
22.8888816833496
26.226842880249
33.8564720153809
34.810173034668
40.3416519165039
47.8759117126465
37.3851737976074
19.2648086547852
4.10092449188232
-14.5916624069214
-18.787956237793
-11.2537002563477
-14.2101802825928
-10.7768487930298
6.48518323898315
12.588885307312
7.53425693511963
2.5749990940094
-10.8722190856934
-25.7499923706055
-30.5185089111328
-32.3305435180664
-27.657398223877
-17.4527721405029
-8.3925895690918
-5.1499981880188
-14.3055505752563
-29.7555465698242
-44.8240585327148
-56.2685012817383
-62.4675712585449
-69.2388687133789
-72.3860855102539
-66.3777542114258
-56.2685012817383
-48.1620216369629
-49.5925750732422
-54.6472053527832
-56.6499824523926
-61.99072265625
-69.6203460693359
-70.9555358886719
-63.4212760925293
-56.8407211303711
-61.0370178222656
-70.8601608276367
-72.3860855102539
-71.3370132446289
-80.2064590454102
-96.800895690918
-107.86385345459
-101.569412231445
-93.1768188476563
-95.4657135009766
-92.986083984375
-83.0675659179688
-72.6721954345703
-65.5194244384766
-64.5657196044922
-63.4212760925293
-64.0888671875
-71.1462707519531
-69.7157211303711
-65.6147918701172
-67.2360916137695
-60.0833129882813
-54.7425765991211
-52.5490570068359
-44.1564674377441
-46.1592445373535
-53.121280670166
-55.7916488647461
-52.6444282531738
-45.300910949707
-51.1185035705566
-56.5546112060547
-46.8268356323242
-37.4805450439453
-38.7203598022461
-39.3879508972168
-32.3305435180664
-32.6166572570801
-36.7175827026367
-40.0555419921875
-42.9166526794434
-40.2462844848633
-43.2027626037598
-42.5351715087891
-32.4259147644043
-24.6055469512939
-14.687032699585
-10.3953666687012
-12.2074031829834
-14.5916624069214
-21.839807510376
-25.4638805389404
-23.2703628540039
-24.4148063659668
-29.7555465698242
-28.3249912261963
-19.074068069458
-11.3490705490112
-6.77129411697388
-12.9703664779663
-26.0361022949219
-24.4148063659668
-15.4499950408936
-16.4036979675293
-25.5592517852783
-32.7120246887207
-25.0823993682861
-13.6379585266113
-17.6435127258301
-23.1749935150146
-22.8888816833496
-25.4638805389404
-30.8999900817871
-34.9055442810059
-33.6657295227051
-34.1425819396973
-29.3740653991699
-14.3055505752563
-7.15277528762817
-5.62685012817383
-4.1962947845459
-13.4472179412842
-23.8425846099854
-23.3657341003418
-22.9842510223389
-31.5675830841064
-35.0009155273438
-20.5999927520752
-6.77129411697388
-6.38981294631958
-1.33518481254578
4.57777643203735
-1.14444410800934
-10.5861072540283
-14.4962921142578
-12.1120328903198
-8.58333015441895
-8.29721927642822
-10.2999963760376
-14.687032699585
-19.6462898254395
-19.2648086547852
-14.4009208679199
-17.8342533111572
-21.7444381713867
-13.3518476486206
-3.62407302856445
6.1037015914917
16.2129573822021
16.30832862854
11.0629596710205
5.24536848068237
-0.667592406272888
-7.15277528762817
-9.34629344940186
-7.24814605712891
-9.63240432739258
-8.86944198608398
-3.71944332122803
3.33796191215515
11.7305517196655
10.5861072540283
6.58055353164673
9.44166374206543
8.67870044708252
7.53425693511963
11.0629596710205
11.8259220123291
13.6379585266113
19.8370304107666
30.3277683258057
36.1453590393066
29.9462871551514
26.7036952972412
25.5592517852783
19.8370304107666
19.7416610717773
24.0333251953125
25.6546211242676
31.4722118377686
37.0036926269531
30.1370277404785
21.1722145080566
17.738883972168
10.0138854980469
3.147221326828
3.33796191215515
3.5287024974823
8.67870044708252
12.7796258926392
9.82314491271973
11.0629596710205
10.204626083374
7.34351634979248
11.2537002563477
13.4472179412842
14.8777732849121
13.7333288192749
15.2592544555664
30.70924949646
41.3907279968262
43.1073951721191
45.7777633666992
36.431468963623
34.0472106933594
50.6416511535645
53.9796104431152
44.0610961914063
37.7666549682617
32.6166572570801
30.5185089111328
30.8999900817871
35.7638778686523
42.4398002624512
41.8675804138184
33.6657295227051
29.3740653991699
30.70924949646
29.1833248138428
28.4203605651855
24.5101776123047
17.0712909698486
16.7851791381836
16.1175880432129
7.53425693511963
0.0953703373670578
-1.33518481254578
-2.47962880134583
-3.71944332122803
-5.24536848068237
-4.67314672470093
1.14444410800934
3.62407302856445
5.34073925018311
7.72499752044678
6.48518323898315
16.4990692138672
30.5185089111328
36.431468963623
44.6333198547363
45.6823921203613
37.7666549682617
39.864803314209
40.6277656555176
30.1370277404785
23.8425846099854
20.9814739227295
15.4499950408936
4.7685170173645
-11.2537002563477
-10.8722190856934
-2.00277709960938
-5.1499981880188
-3.62407302856445
8.77407169342041
20.2185115814209
21.6490669250488
16.6898097991943
9.72777462005615
4.7685170173645
7.15277528762817
6.48518323898315
2.00277709960938
3.05185079574585
2.28888821601868
-6.00833129882813
-18.0249938964844
-23.9379558563232
-24.6055469512939
-29.0879535675049
-33.3796195983887
-39.6740608215332
-56.6499824523926
-67.3314590454102
-56.8407211303711
-45.6823921203613
-40.3416519165039
-27.7527694702148
-20.3138828277588
-22.3166599273682
-25.8453617095947
-29.0879535675049
-33.6657295227051
-34.6194343566895
-25.0823993682861
-22.5074005126953
-28.2296199798584
-27.1805477142334
-24.9870281219482
-22.8888816833496
-20.9814739227295
-21.6490669250488
-25.3685111999512
-30.2323970794678
-28.0388793945313
-19.4555492401123
-22.6027698516846
-34.3333206176758
-34.7148017883301
-27.8481388092041
-23.7472152709961
-24.3194370269775
-29.9462871551514
-26.9898052215576
-13.6379585266113
-9.44166374206543
-12.1120328903198
-11.1583299636841
-10.9675893783569
-6.86666440963745
-1.43055510520935
-0.47685170173645
0
-6.48518323898315
-16.022216796875
-28.4203605651855
-44.9194297790527
-62.1814613342285
-94.416633605957
-140.099029541016
-186.449020385742
-212.199005126953
-209.624008178711
-204.664749145508
-201.994384765625
-178.056427001953
-116.828666687012
-37.0036926269531
45.6823921203613
153.450881958008
310.144348144531
524.346130371094
799.584899902344
1096.66357421875
1353.87731933594
1577.71154785156
1781.42260742188
1908.55126953125
1936.87622070313
1878.03271484375
1660.39758300781
1233.90148925781
723.193298339844
266.083251953125
-160.699020385742
-563.734069824219
-838.019165039063
-972.014526367188
-1060.80432128906
-1122.41357421875
-1119.55236816406
-1056.41723632813
-955.706176757813
-846.984008789063
-772.595092773438
-754.283996582031
-767.635864257813
-794.053466796875
-828.386779785156
-829.721984863281
-785.184020996094
-722.3349609375
-647.373840332031
-564.783142089844
-507.751678466797
-489.822052001953
-493.636871337891
-505.176696777344
-505.367431640625
-491.252624511719
-466.265594482422
-418.008209228516
-357.448028564453
-304.231384277344
-262.840667724609
-234.992523193359
-225.264739990234
-232.512893676758
-242.336029052734
-243.385101318359
-234.229553222656
-212.771224975586
-172.906433105469
-120.166625976563
-70.4786834716797
-40.913875579834
-42.0583190917969
-55.1240577697754
-56.2685012817383
-53.3120193481445
-43.679615020752
-16.5944385528564
13.5425882339478
37.3851737976074
57.4129447937012
71.7184982299805
85.5471954345703
96.4194107055664
99.6620025634766
99.6620025634766
100.043487548828
102.999969482422
108.722190856934
120.73885345459
131.038848876953
136.474960327148
153.260131835938
158.696243286133
150.112915039063
152.592544555664
157.837905883789
164.704574584961
168.233276367188
162.797164916992
168.424026489258
185.209197998047
193.220306396484
191.503646850586
193.506423950195
202.089752197266
205.427719116211
198.847152709961
192.552719116211
191.408279418945
189.882339477539
188.261047363281
193.124938964844
199.228637695313
200.182342529297
200.277709960938
197.225860595703
191.694381713867
187.307342529297
182.157348632813
178.533279418945
175.004577636719
175.862899780273
186.544387817383
194.46012878418
198.561050415039
204.664749145508
205.618453979492
200.182342529297
187.87956237793
164.036987304688
143.818466186523
140.766616821289
142.769393920898
147.44255065918
160.031433105469
168.328643798828
171.761978149414
175.386047363281
168.90087890625
147.824020385742
125.507369995117
119.880516052246
130.46662902832
139.526809692383
135.044403076172
126.747184753418
126.07958984375
114.25366973877
93.6536712646484
86.9777526855469
82.4953460693359
74.1027526855469
67.5222015380859
61.99072265625
69.0481262207031
86.0240478515625
91.9370040893555
85.3564529418945
73.5305328369141
63.6120147705078
49.3064651489258
29.5648059844971
26.8944358825684
31.6629524230957
31.6629524230957
44.9194297790527
57.2222023010254
52.1675758361816
36.6222114562988
20.7907333374023
16.30832862854
16.022216796875
10.3953666687012
4.38703584671021
2.00277709960938
4.48240613937378
14.0194396972656
23.2703628540039
22.5074005126953
17.4527721405029
10.3953666687012
-1.43055510520935
-10.6814785003662
-8.0111083984375
-1.23981440067291
-7.0574049949646
-16.4036979675293
-19.7416610717773
-24.1286964416504
-29.8509159088135
-38.7203598022461
-52.5490570068359
-60.9416465759277
-66.4731292724609
-71.9092330932617
-63.5166473388672
-46.6360969543457
-38.9110984802246
-44.1564674377441
-53.5981292724609
-59.6064605712891
-63.9934997558594
-67.8083114624023
-69.8110885620117
-74.7703475952148
-73.7212753295898
-60.1786842346191
-53.9796104431152
-66.0916442871094
-81.2555313110352
-85.4518280029297
-80.6833038330078
-82.3999710083008
-87.3592300415039
-82.2092361450195
-74.7703475952148
-68.2851638793945
-64.6610870361328
-66.2823867797852
-69.1434936523438
-79.9203414916992
-94.8934860229492
-99.6620025634766
-96.2286758422852
-93.5583038330078
-86.6916351318359
-71.3370132446289
-68.9527587890625
-77.2499771118164
-74.3888626098633
-74.1027526855469
-83.5444183349609
-87.6453399658203
-89.0758972167969
-89.2666397094727
-81.827751159668
-78.012939453125
-84.4027481079102
-83.5444183349609
-69.5249786376953
-60.5601654052734
-57.3175735473633
-51.0231323242188
-51.404613494873
-55.7916488647461
-59.6064605712891
-65.9009017944336
-65.6147918701172
-62.8490524291992
-61.99072265625
-54.7425765991211
-47.1129493713379
-39.197208404541
-29.4694347381592
-36.0499877929688
-46.3499870300293
-38.148136138916
-34.7148017883301
-46.7314682006836
-48.734245300293
-40.0555419921875
-39.9601707458496
-41.962947845459
-38.8157272338867
-40.913875579834
-44.7286911010742
-46.0638732910156
-47.017578125
-43.7749862670898
-43.1073951721191
-43.0120239257813
-38.6249885559082
-36.7175827026367
-34.3333206176758
-31.0907306671143
-33.8564720153809
-35.0962867736816
-32.1398048400879
-30.70924949646
-22.5074005126953
-10.8722190856934
-1.71666610240936
8.3925895690918
9.34629344940186
-0.286111027002335
-5.1499981880188
-3.5287024974823
-5.24536848068237
-13.0657367706299
-18.5018463134766
-16.1175880432129
-7.34351634979248
8.0111083984375
20.8861045837402
19.9324016571045
17.357400894165
14.2101802825928
0.0953703373670578
-10.6814785003662
-19.074068069458
-24.1286964416504
-12.7796258926392
-2.28888821601868
3.8148136138916
5.05462789535522
-8.86944198608398
-10.5861072540283
2.47962880134583
5.1499981880188
2.38425850868225
1.14444410800934
-5.81759071350098
-13.5425882339478
-9.9185152053833
-2.8611102104187
1.14444410800934
6.48518323898315
7.0574049949646
2.1935179233551
0.381481349468231
-5.53147983551025
-14.2101802825928
-10.6814785003662
-0.190740674734116
4.57777643203735
9.34629344940186
19.8370304107666
24.9870281219482
25.7499923706055
17.5481433868408
7.6296272277832
13.6379585266113
14.5916624069214
13.3518476486206
22.4120292663574
27.1805477142334
32.7120246887207
36.2407302856445
35.5731353759766
29.8509159088135
17.2620315551758
17.8342533111572
25.9407329559326
25.6546211242676
24.9870281219482
22.9842510223389
17.2620315551758
17.2620315551758
18.787956237793
14.1148099899292
4.1962947845459
-1.23981440067291
0.190740674734116
4.29166507720947
11.2537002563477
14.5916624069214
13.9240694046021
20.2185115814209
24.2240657806396
20.5046234130859
20.409252166748
18.0249938964844
11.1583299636841
9.82314491271973
9.15555286407471
11.8259220123291
19.4555492401123
18.0249938964844
10.3953666687012
9.44166374206543
9.15555286407471
8.58333015441895
9.82314491271973
3.05185079574585
-3.147221326828
2.00277709960938
3.5287024974823
-0.190740674734116
4.95925760269165
10.7768487930298
12.302773475647
16.4036979675293
20.5999927520752
22.4120292663574
21.6490669250488
24.5101776123047
26.3222141265869
15.5453653335571
9.44166374206543
16.4990692138672
19.360179901123
17.4527721405029
20.7907333374023
23.2703628540039
29.6601753234863
40.913875579834
41.5814666748047
32.4259147644043
22.3166599273682
21.839807510376
22.9842510223389
21.6490669250488
32.7120246887207
42.2490615844727
51.9768333435059
67.1407165527344
70.9555358886719
66.6638641357422
62.9444236755371
59.9879455566406
49.6879463195801
35.0962867736816
27.3712882995605
19.8370304107666
15.8314762115479
22.0305480957031
17.5481433868408
7.82036781311035
10.204626083374
17.2620315551758
26.4175834655762
30.0416564941406
26.7990646362305
21.1722145080566
13.5425882339478
12.2074031829834
13.8286991119385
11.7305517196655
6.48518323898315
5.81759071350098
12.8749961853027
16.4036979675293
8.58333015441895
-4.00555419921875
-11.7305517196655
-17.4527721405029
-18.5018463134766
-18.787956237793
-32.9027671813965
-41.6768379211426
-42.1536903381348
-50.5462799072266
-45.5870208740234
-31.4722118377686
-32.8073959350586
-41.2953567504883
-39.2925796508789
-31.2814712524414
-33.8564720153809
-36.9083213806152
-33.0935096740723
-34.4286918640137
-32.2351760864258
-26.0361022949219
-27.3712882995605
-28.5157318115234
-20.1231422424316
-12.4935140609741
-16.1175880432129
-20.5046234130859
-15.35462474823
-6.58055353164673
3.43333220481873
1.81203651428223
-15.35462474823
-19.074068069458
-12.6842555999756
-14.3055505752563
-13.4472179412842
-11.7305517196655
-8.96481227874756
-5.7222204208374
-9.537034034729
-11.3490705490112
-8.96481227874756
-8.10647869110107
-6.19907188415527
-7.34351634979248
-17.2620315551758
-25.8453617095947
-27.2759170532227
-30.8999900817871
-46.8268356323242
-73.6259002685547
-100.615707397461
-139.240692138672
-192.171234130859
-227.649002075195
-236.899917602539
-229.556411743164
-213.438827514648
-188.0703125
-133.899963378906
-56.0777587890625
27.943510055542
129.512924194336
270.279541015625
466.074859619141
726.721984863281
1017.79223632813
1268.52087402344
1485.86987304688
1698.92724609375
1841.12438964844
1892.7197265625
1864.49011230469
1665.64294433594
1255.93200683594
756.4775390625
302.991577148438
-111.678665161133
-498.405395507813
-769.06640625
-916.98583984375
-1017.41076660156
-1080.92749023438
-1074.25146484375
-1010.54412841797
-929.097839355469
-843.359924316406
-774.311767578125
-739.883117675781
-739.883117675781
-771.546020507813
-803.876586914063
-802.732177734375
-763.725708007813
-698.39697265625
-617.141479492188
-537.125732421875
-480.761871337891
-453.962829589844
-460.447998046875
-491.252624511719
-509.468353271484
-501.838714599609
-479.045227050781
-437.559112548828
-373.947113037109
-301.084167480469
-246.627700805664
-221.259185791016
-213.820297241211
-222.022155761719
-233.466598510742
-236.136962890625
-230.414733886719
-205.236968994141
-162.987915039063
-112.346260070801
-63.9934997558594
-40.3416519165039
-43.3935050964355
-54.9333152770996
-64.5657196044922
-63.039794921875
-50.7370223999023
-40.2462844848633
-22.6981410980225
12.9703664779663
48.8296127319336
67.3314590454102
75.5333099365234
81.4462738037109
80.4925689697266
75.4379425048828
73.6259002685547
80.8740463256836
93.4629364013672
103.381446838379
110.438850402832
120.643478393555
135.235137939453
142.197174072266
140.861999511719
140.766616821289
142.197174072266
145.2490234375
144.390701293945
144.104583740234
149.254577636719
157.170318603516
172.048095703125
184.064758300781
187.402725219727
186.830490112305
184.255493164063
185.78141784668
182.061981201172
168.519393920898
162.987915039063
172.906433105469
184.350860595703
190.740676879883
201.040679931641
209.719375610352
212.389739990234
216.776779174805
216.013824462891
198.65641784668
179.010131835938
172.524948120117
173.383270263672
177.579574584961
188.642532348633
200.468460083008
207.335113525391
210.768447875977
204.092529296875
185.97216796875
170.140686035156
161.938842773438
159.459213256836
156.407363891602
152.401809692383
154.213836669922
153.73698425293
151.066619873047
151.066619873047
142.769393920898
124.93514251709
110.534225463867
101.37866973877
95.9425582885742
104.525894165039
113.776817321777
113.20458984375
115.49348449707
117.114776611328
110.629592895508
98.1360778808594
84.8796005249023
70.0018310546875
60.5601654052734
70.3833084106445
82.0184936523438
84.4981231689453
91.3647842407227
91.3647842407227
83.7351608276367
75.4379425048828
60.3694267272949
49.0203552246094
48.066650390625
49.5925750732422
55.887020111084
69.3342361450195
77.6314544677734
76.6777496337891
69.0481262207031
56.7453536987305
40.8185043334961
19.4555492401123
6.58055353164673
4.86388731002808
7.72499752044678
14.9731435775757
19.2648086547852
22.0305480957031
24.2240657806396
15.4499950408936
-3.05185079574585
-16.4990692138672
-22.7935104370117
-30.3277683258057
-31.8536930084229
-24.1286964416504
-20.409252166748
-25.0823993682861
-29.4694347381592
-29.5648059844971
-31.7583236694336
-42.7259140014648
-55.0286865234375
-60.1786842346191
-59.1296119689941
-49.4972076416016
-43.3935050964355
-48.3527641296387
-48.2573928833008
-46.8268356323242
-52.7397994995117
-62.8490524291992
-77.6314544677734
-85.2610855102539
-84.8796005249023
-84.0212707519531
-80.8740463256836
-81.6370086669922
-78.7759017944336
-66.9499816894531
-65.0425720214844
-71.2416458129883
-70.0018310546875
-60.7509078979492
-58.1759071350098
-71.1462707519531
-76.3916397094727
-65.137939453125
-61.99072265625
-71.1462707519531
-74.9610900878906
-76.9638671875
-83.7351608276367
-84.8796005249023
-84.3073806762695
-77.5360870361328
-64.6610870361328
-70.1925735473633
-77.5360870361328
-72.9583129882813
-78.5851593017578
-87.5499725341797
-83.0675659179688
-75.4379425048828
-71.8138656616211
-69.6203460693359
-64.5657196044922
-54.0749816894531
-53.5027618408203
-62.4675712585449
-61.99072265625
-49.4018363952637
-37.2898025512695
-37.4805450439453
-41.0092468261719
-39.9601707458496
-39.7694320678711
-38.2435073852539
-42.1536903381348
-52.7397994995117
-55.7916488647461
-54.3610954284668
-57.0314636230469
-61.4184989929199
-62.1814613342285
-57.7944259643555
-60.1786842346191
-61.2277565002441
-54.6472053527832
-53.5981292724609
-42.7259140014648
-22.6027698516846
-20.5046234130859
-33.2842483520508
-42.7259140014648
-44.4425773620605
-42.9166526794434
-44.7286911010742
-46.2546157836914
-37.7666549682617
-26.4175834655762
-22.125919342041
-21.6490669250488
-22.8888816833496
-18.4064750671387
-10.5861072540283
-14.9731435775757
-23.6518440246582
-27.0851764678955
-29.0879535675049
-29.1833248138428
-25.5592517852783
-15.35462474823
-9.9185152053833
-19.1694374084473
-21.2675857543945
-18.4064750671387
-26.9898052215576
-30.8046188354492
-24.6055469512939
-26.8944358825684
-36.2407302856445
-33.761100769043
-24.6055469512939
-13.3518476486206
-1.33518481254578
-6.00833129882813
-15.6407356262207
-11.4444408416748
-4.38703584671021
-8.96481227874756
-9.537034034729
6.1037015914917
11.5398111343384
7.91573810577393
11.1583299636841
8.10647869110107
8.48795986175537
6.48518323898315
-9.15555286407471
-12.1120328903198
-9.537034034729
-10.2999963760376
4.95925760269165
21.3629570007324
22.6981410980225
28.4203605651855
29.1833248138428
9.63240432739258
-3.5287024974823
-1.62129580974579
-1.14444410800934
-1.81203651428223
-2.76573991775513
-5.43610954284668
-2.28888821601868
0.190740674734116
-4.57777643203735
-12.9703664779663
-21.1722145080566
-23.3657341003418
-15.8314762115479
-7.34351634979248
-5.05462789535522
-4.29166507720947
-0.667592406272888
6.1037015914917
10.7768487930298
7.15277528762817
1.04907369613647
-1.33518481254578
-2.8611102104187
-3.8148136138916
-0.47685170173645
8.20184898376465
16.4990692138672
17.357400894165
17.6435127258301
21.6490669250488
20.1231422424316
16.7851791381836
21.1722145080566
21.0768451690674
16.7851791381836
20.6953639984131
22.8888816833496
22.8888816833496
31.0907306671143
30.70924949646
23.2703628540039
28.3249912261963
30.4231376647949
26.7990646362305
36.1453590393066
44.7286911010742
42.8212814331055
40.1509132385254
32.9981384277344
23.7472152709961
24.2240657806396
28.6111011505127
25.8453617095947
27.5620288848877
30.995361328125
28.4203605651855
37.3851737976074
48.066650390625
50.5462799072266
63.8981285095215
72.4814605712891
68.8573837280273
72.9583129882813
77.6314544677734
65.4240493774414
45.8731346130371
35.7638778686523
28.1342506408691
19.1694374084473
15.2592544555664
21.4583263397217
35.2870254516602
38.3388748168945
28.9925842285156
30.8046188354492
38.8157272338867
33.1888771057129
26.4175834655762
25.3685111999512
23.3657341003418
20.8861045837402
13.8286991119385
6.6759238243103
8.58333015441895
14.0194396972656
13.8286991119385
4.10092449188232
-0.381481349468231
8.77407169342041
9.82314491271973
4.10092449188232
-0.667592406272888
-20.409252166748
-33.9518394470215
-29.4694347381592
-31.8536930084229
-32.9027671813965
-19.8370304107666
-18.9786968231201
-30.3277683258057
-24.1286964416504
-13.1611070632935
-17.5481433868408
-21.1722145080566
-17.1666603088379
-26.3222141265869
-37.0036926269531
-21.3629570007324
-7.6296272277832
-14.2101802825928
-18.6925868988037
-23.5564746856689
-29.6601753234863
-21.839807510376
-12.0166625976563
-11.8259220123291
-10.5861072540283
-8.3925895690918
-7.34351634979248
-5.43610954284668
-11.9212923049927
-16.9759197235107
-0.762962698936462
10.9675893783569
2.95648050308228
-0.667592406272888
-1.33518481254578
0.9537034034729
6.77129411697388
1.04907369613647
-0.858333051204681
2.47962880134583
0
-2.00277709960938
-12.302773475647
-28.7064723968506
-44.8240585327148
-68.6666412353516
-92.1277465820313
-117.114776611328
-154.023101806641
-187.87956237793
-198.847152709961
-190.16845703125
-179.677719116211
-174.527725219727
-144.009216308594
-76.0101623535156
-1.81203651428223
81.827751159668
181.203643798828
312.814727783203
522.343322753906
793.290466308594
1060.80432128906
1302.47277832031
1518.67724609375
1682.04663085938
1776.74938964844
1797.73095703125
1687.38745117188
1383.34680175781
930.337646484375
474.658172607422
71.3370132446289
-302.228607177734
-592.05908203125
-789.094177246094
-932.149719238281
-1005.10803222656
-1011.68853759766
-971.442260742188
-894.955261230469
-814.176574707031
-747.894226074219
-705.263671875
-704.500671386719
-743.411804199219
-782.609008789063
-791.001586914063
-775.93310546875
-723.288635253906
-627.155334472656
-527.779479980469
-456.633178710938
-429.643371582031
-433.744293212891
-448.812805175781
-480.761871337891
-500.789642333984
-478.854461669922
-433.076721191406
-367.843414306641
-288.39990234375
-223.357330322266
-188.547164916992
-181.108276367188
-189.405502319336
-209.52864074707
-229.461044311523
-228.411956787109
-204.378631591797
-167.565689086914
-124.553665161133
-80.778678894043
-47.4944305419922
-30.995361328125
-35.4777679443359
-52.453685760498
-59.701831817627
-60.7509078979492
-55.219425201416
-29.8509159088135
4.67314672470093
41.6768379211426
72.9583129882813
86.7870101928711
84.4027481079102
75.5333099365234
74.9610900878906
78.7759017944336
82.1138610839844
91.6508941650391
102.904594421387
118.259223937988
135.425888061523
149.922180175781
162.987915039063
159.459213256836
146.393478393555
146.679580688477
147.156433105469
140.194396972656
146.488845825195
158.314758300781
159.077728271484
168.614761352539
187.211975097656
191.408279418945
190.645309448242
197.607345581055
201.040679931641
195.699935913086
185.018463134766
168.137908935547
157.074951171875
160.126800537109
168.519393920898
180.059204101563
189.500869750977
201.326782226563
207.811965942383
191.122161865234
174.623092651367
166.230499267578
151.352722167969
142.769393920898
141.911071777344
144.390701293945
151.73420715332
164.418472290039
175.576797485352
169.759201049805
152.020324707031
133.423110961914
123.790702819824
122.550888061523
120.929588317871
128.654586791992
147.061065673828
157.170318603516
157.361053466797
156.502731323242
145.535140991211
125.316627502441
106.051818847656
87.2638626098633
85.7379379272461
98.5175628662109
101.37866973877
107.482376098633
120.929588317871
122.550888061523
112.155517578125
89.6481170654297
63.6120147705078
46.9222068786621
32.5212860107422
32.2351760864258
53.121280670166
76.5823822021484
90.5064544677734
87.7407150268555
73.6259002685547
57.0314636230469
37.099063873291
20.5046234130859
16.8805503845215
16.30832862854
19.2648086547852
41.6768379211426
64.0888671875
61.6092376708984
51.0231323242188
43.4888763427734
30.4231376647949
13.8286991119385
-3.24259161949158
-18.1203651428223
-21.5536975860596
-12.2074031829834
0.9537034034729
11.8259220123291
13.6379585266113
-1.23981440067291
-16.022216796875
-25.4638805389404
-38.5296173095703
-36.8129501342773
-29.1833248138428
-29.1833248138428
-22.4120292663574
-21.9351787567139
-28.0388793945313
-23.1749935150146
-29.8509159088135
-45.8731346130371
-52.9305381774902
-59.9879455566406
-58.7481307983398
-52.2629470825195
-49.4972076416016
-41.5814666748047
-36.8129501342773
-44.8240585327148
-52.1675758361816
-51.9768333435059
-53.8842430114746
-60.7509078979492
-68.7620162963867
-71.5277557373047
-63.7073860168457
-60.3694267272949
-59.701831817627
-45.2055397033691
-45.5870208740234
-62.9444236755371
-62.3722038269043
-59.701831817627
-68.1897964477539
-66.3777542114258
-60.4647941589355
-66.4731292724609
-66.4731292724609
-62.6583137512207
-72.1953506469727
-75.8194198608398
-73.3397903442383
-73.5305328369141
-67.7129440307617
-66.1870193481445
-70.2879409790039
-70.1925735473633
-67.1407165527344
-59.7972030639648
-54.8379440307617
-55.6962776184082
-50.832389831543
-49.6879463195801
-59.7972030639648
-59.8925743103027
-49.5925750732422
-51.8814659118652
-53.3120193481445
-44.5379486083984
-42.5351715087891
-38.148136138916
-28.4203605651855
-29.3740653991699
-33.5703582763672
-29.6601753234863
-26.5129547119141
-27.5620288848877
-33.3796195983887
-39.6740608215332
-41.4860992431641
-44.1564674377441
-48.2573928833008
-47.017578125
-39.864803314209
-31.3768424987793
-25.177770614624
-29.6601753234863
-35.9546165466309
-37.7666549682617
-46.7314682006836
-50.1647987365723
-46.1592445373535
-41.4860992431641
-30.1370277404785
-27.0851764678955
-36.8129501342773
-47.4944305419922
-57.0314636230469
-61.8953514099121
-59.701831817627
-50.355541229248
-37.8620262145996
-25.9407329559326
-23.4611034393311
-31.1861019134521
-36.3360977172852
-40.6277656555176
-41.5814666748047
-38.3388748168945
-40.2462844848633
-38.9110984802246
-23.2703628540039
-4.86388731002808
-3.62407302856445
-16.1175880432129
-22.3166599273682
-15.2592544555664
-10.5861072540283
-20.0277709960938
-28.9925842285156
-26.7036952972412
-24.0333251953125
-24.5101776123047
-23.1749935150146
-27.4666576385498
-32.4259147644043
-26.9898052215576
-31.3768424987793
-44.1564674377441
-44.9194297790527
-39.2925796508789
-31.1861019134521
-24.891658782959
-20.8861045837402
-8.77407169342041
-2.09814739227295
-6.38981294631958
-9.15555286407471
-12.3981437683105
-16.6898097991943
-16.7851791381836
-11.8259220123291
-12.0166625976563
-13.6379585266113
-8.10647869110107
0.572222054004669
6.96203470230103
3.05185079574585
-1.04907369613647
6.19907188415527
15.7361059188843
14.2101802825928
11.1583299636841
22.3166599273682
33.4749908447266
33.4749908447266
26.7036952972412
15.2592544555664
7.43888664245605
4.00555419921875
2.8611102104187
12.4935140609741
25.6546211242676
27.2759170532227
27.943510055542
30.3277683258057
23.3657341003418
18.3111057281494
19.8370304107666
13.1611070632935
5.81759071350098
11.7305517196655
15.7361059188843
19.7416610717773
31.3768424987793
35.382396697998
37.3851737976074
39.7694320678711
29.8509159088135
25.6546211242676
36.1453590393066
39.0064697265625
29.9462871551514
26.0361022949219
31.7583236694336
37.4805450439453
37.1944313049316
30.5185089111328
22.0305480957031
12.4935140609741
0.572222054004669
-4.29166507720947
2.00277709960938
11.635181427002
20.7907333374023
26.226842880249
25.3685111999512
30.0416564941406
39.2925796508789
32.04443359375
22.125919342041
26.4175834655762
25.6546211242676
28.6111011505127
43.679615020752
46.9222068786621
43.679615020752
48.2573928833008
49.3064651489258
42.1536903381348
38.9110984802246
38.7203598022461
40.3416519165039
52.7397994995117
58.3666496276855
54.0749816894531
55.3147964477539
60.274055480957
67.9990539550781
69.9064559936523
70.8601608276367
74.1027526855469
65.2333145141602
60.1786842346191
55.1240577697754
32.4259147644043
31.3768424987793
52.453685760498
50.9277610778809
39.1018409729004
41.962947845459
46.8268356323242
43.5842437744141
42.8212814331055
47.1129493713379
44.6333198547363
32.5212860107422
22.6981410980225
18.9786968231201
14.0194396972656
12.7796258926392
17.1666603088379
15.1638841629028
2.67036962509155
-12.302773475647
-17.738883972168
-17.9296245574951
-21.6490669250488
-19.9324016571045
-17.357400894165
-24.1286964416504
-26.4175834655762
-25.5592517852783
-30.0416564941406
-35.6685066223145
-45.2055397033691
-50.2601699829102
-49.2110939025879
-57.2222023010254
-59.6064605712891
-46.1592445373535
-36.1453590393066
-32.1398048400879
-25.3685111999512
-22.5074005126953
-23.1749935150146
-18.0249938964844
-20.5046234130859
-27.943510055542
-26.5129547119141
-31.7583236694336
-35.1916542053223
-21.9351787567139
-16.4990692138672
-21.6490669250488
-14.1148099899292
-8.3925895690918
-17.0712909698486
-17.8342533111572
-11.4444408416748
-11.0629596710205
-7.72499752044678
2.00277709960938
7.72499752044678
4.48240613937378
-7.53425693511963
-18.6925868988037
-18.2157344818115
-14.9731435775757
-14.7824029922485
-13.256477355957
-28.3249912261963
-64.8518295288086
-89.9342269897461
-106.147186279297
-140.671249389648
-188.451797485352
-231.082336425781
-239.47492980957
-223.643447875977
-220.210113525391
-205.904556274414
-154.786056518555
-72.7675704956055
16.4036979675293
93.5583038330078
200.086975097656
390.827667236328
642.033142089844
923.471008300781
1206.72094726563
1448.96154785156
1671.26977539063
1847.22814941406
1921.71240234375
1912.27062988281
1776.84484863281
1439.04309082031
943.498779296875
457.777618408203
46.6360969543457
-361.739685058594
-706.884948730469
-891.617309570313
-1001.29321289063
-1096.28210449219
-1118.50329589844
-1078.35241699219
-1005.87097167969
-898.102478027344
-802.159912109375
-762.199768066406
-764.774780273438
-784.03955078125
-808.835876464844
-823.809020996094
-808.072875976563
-748.657165527344
-664.82666015625
-588.816467285156
-532.45263671875
-504.318359375
-500.503540039063
-506.225769042969
-516.811889648438
-524.155395507813
-516.239624023438
-481.810943603516
-420.106353759766
-342.474884033203
-279.911956787109
-257.976776123047
-252.540664672852
-247.86750793457
-254.161956787109
-261.314727783203
-253.303619384766
-230.79621887207
-192.743453979492
-138.286987304688
-89.9342269897461
-58.652759552002
-46.2546157836914
-52.2629470825195
-52.9305381774902
-45.4916534423828
-43.7749862670898
-32.9981384277344
-7.72499752044678
15.2592544555664
37.9573936462402
60.274055480957
71.8138656616211
72.2907180786133
68.9527587890625
69.9064559936523
73.8166427612305
79.5388641357422
91.0786743164063
109.580520629883
128.749954223633
142.578659057617
150.017547607422
152.401809692383
148.491622924805
146.488845825195
152.592544555664
148.110137939453
136.856430053711
139.812911987305
151.73420715332
162.701797485352
170.522171020508
178.724014282227
184.923095703125
183.969390869141
186.162902832031
187.593460083008
178.247161865234
172.811050415039
176.244384765625
180.917541503906
181.489761352539
175.004577636719
175.672164916992
195.986053466797
218.874923706055
220.11474609375
213.820297241211
215.441604614258
205.999938964844
191.789749145508
189.882339477539
187.974945068359
182.634201049805
188.0703125
199.037902832031
201.136047363281
200.563827514648
196.367523193359
183.587905883789
167.279571533203
154.404586791992
151.73420715332
155.453659057617
164.323089599609
167.279571533203
159.077728271484
157.933288574219
151.829574584961
138.85920715332
134.376815795898
126.651809692383
117.59162902832
115.302742004395
114.444404602051
124.362922668457
134.376815795898
123.027740478516
102.141632080078
84.7842330932617
72.0046081542969
64.4703521728516
64.756462097168
71.0509033203125
82.6860809326172
100.234230041504
107.577743530273
98.3268203735352
83.5444183349609
71.3370132446289
61.323127746582
44.251838684082
23.0796222686768
18.4064750671387
30.5185089111328
42.0583190917969
48.734245300293
55.1240577697754
60.5601654052734
53.2166481018066
35.9546165466309
25.177770614624
15.1638841629028
7.91573810577393
12.0166625976563
17.738883972168
21.839807510376
27.1805477142334
29.4694347381592
20.0277709960938
6.00833129882813
-7.0574049949646
-20.1231422424316
-18.4064750671387
-6.96203470230103
-1.23981440067291
0.190740674734116
3.71944332122803
1.9074068069458
-8.96481227874756
-18.787956237793
-30.1370277404785
-41.3907279968262
-43.9657249450684
-42.7259140014648
-40.3416519165039
-39.0064697265625
-42.5351715087891
-40.5323944091797
-32.8073959350586
-35.7638778686523
-45.2055397033691
-52.8351669311523
-60.6555366516113
-63.4212760925293
-63.6120147705078
-60.8462753295898
-49.5925750732422
-49.8786888122559
-58.9388694763184
-59.3203506469727
-68.2851638793945
-84.5934906005859
-88.1221923828125
-88.2175674438477
-81.6370086669922
-66.2823867797852
-65.805534362793
-74.8657150268555
-72.6721954345703
-65.6147918701172
-68.4759063720703
-76.6777496337891
-72.7675704956055
-64.2796096801758
-63.6120147705078
-63.1351661682129
-62.0860900878906
-66.854606628418
-74.9610900878906
-74.5796051025391
-65.7101669311523
-62.4675712585449
-57.7944259643555
-49.5925750732422
-52.1675758361816
-54.7425765991211
-48.734245300293
-42.4398002624512
-40.7231369018555
-43.2981338500977
-39.1018409729004
-30.8046188354492
-35.6685066223145
-41.962947845459
-36.5268402099609
-34.2379531860352
-29.5648059844971
-20.6953639984131
-29.5648059844971
-42.0583190917969
-35.5731353759766
-31.9490642547607
-42.4398002624512
-44.5379486083984
-40.6277656555176
-49.1157264709473
-57.6990547180176
-55.9823913574219
-51.9768333435059
-49.783317565918
-51.2138710021973
-49.6879463195801
-45.7777633666992
-48.066650390625
-47.4944305419922
-48.4481315612793
-57.2222023010254
-59.3203506469727
-54.5518341064453
-49.8786888122559
-45.4916534423828
-43.0120239257813
-41.0092468261719
-37.2898025512695
-29.7555465698242
-27.657398223877
-37.9573936462402
-49.1157264709473
-51.0231323242188
-44.1564674377441
-35.382396697998
-28.5157318115234
-24.5101776123047
-24.5101776123047
-25.0823993682861
-20.5046234130859
-24.891658782959
-42.4398002624512
-49.0203552246094
-40.913875579834
-32.3305435180664
-26.8944358825684
-25.3685111999512
-26.0361022949219
-28.9925842285156
-23.8425846099854
-16.022216796875
-19.4555492401123
-22.125919342041
-19.6462898254395
-20.8861045837402
-20.7907333374023
-11.635181427002
-4.00555419921875
-0.47685170173645
0.47685170173645
-10.7768487930298
-24.2240657806396
-32.8073959350586
-43.2027626037598
-50.0694274902344
-48.5435028076172
-39.7694320678711
-35.382396697998
-30.2323970794678
-18.4064750671387
-13.8286991119385
-13.9240694046021
-17.0712909698486
-20.8861045837402
-21.7444381713867
-22.6027698516846
-9.06018257141113
10.3953666687012
13.8286991119385
12.7796258926392
14.4009208679199
10.204626083374
7.82036781311035
10.8722190856934
12.1120328903198
14.0194396972656
17.6435127258301
18.9786968231201
15.1638841629028
8.10647869110107
8.10647869110107
14.687032699585
17.357400894165
14.687032699585
13.3518476486206
13.7333288192749
14.1148099899292
22.0305480957031
32.2351760864258
33.761100769043
28.0388793945313
18.787956237793
23.3657341003418
31.2814712524414
17.5481433868408
4.48240613937378
6.48518323898315
7.82036781311035
7.6296272277832
11.8259220123291
13.9240694046021
10.4907369613647
14.2101802825928
25.6546211242676
22.7935104370117
11.635181427002
19.5509204864502
32.1398048400879
26.0361022949219
18.8833274841309
21.6490669250488
21.5536975860596
20.5046234130859
20.5046234130859
22.6981410980225
35.5731353759766
45.6823921203613
42.7259140014648
47.4944305419922
53.6935005187988
54.170352935791
61.4184989929199
52.5490570068359
35.5731353759766
35.0009155273438
33.761100769043
28.7064723968506
26.9898052215576
20.2185115814209
15.9268465042114
26.0361022949219
33.9518394470215
29.0879535675049
34.3333206176758
44.1564674377441
47.7805404663086
56.5546112060547
61.7046089172363
61.2277565002441
55.1240577697754
56.8407211303711
70.0971984863281
65.805534362793
54.9333152770996
52.0722045898438
39.3879508972168
25.0823993682861
18.5018463134766
10.204626083374
1.52592539787292
-3.43333220481873
-9.9185152053833
-19.7416610717773
-22.2212886810303
-13.256477355957
-7.82036781311035
-5.62685012817383
-1.62129580974579
-7.34351634979248
-18.787956237793
-18.9786968231201
-3.5287024974823
1.23981440067291
-14.9731435775757
-22.6027698516846
-21.9351787567139
-24.5101776123047
-22.0305480957031
-18.787956237793
-16.4990692138672
-9.9185152053833
-5.34073925018311
-8.58333015441895
-13.5425882339478
-11.0629596710205
-10.9675893783569
-14.9731435775757
-14.8777732849121
-9.82314491271973
-0.667592406272888
-0.762962698936462
-12.2074031829834
-11.1583299636841
-1.81203651428223
0
8.20184898376465
15.9268465042114
4.86388731002808
-0.9537034034729
5.34073925018311
5.1499981880188
3.147221326828
0.0953703373670578
-9.82314491271973
-22.6027698516846
-36.3360977172852
-58.7481307983398
-86.0240478515625
-119.880516052246
-174.336975097656
-216.586044311523
-222.117523193359
-208.384185791016
-189.024017333984
-174.241607666016
-138.85920715332
-64.4703521728516
22.8888816833496
119.308296203613
233.085113525391
385.963775634766
609.607238769531
879.505249023438
1137.95886230469
1366.84765625
1577.42541503906
1736.40783691406
1814.70678710938
1818.99853515625
1675.18005371094
1307.90881347656
827.14697265625
386.63134765625
-11.7305517196655
-379.287841796875
-658.436828613281
-839.73583984375
-953.989501953125
-1016.7431640625
-1017.41076660156
-958.948791503906
-882.84326171875
-817.133056640625
-753.521057128906
-712.034973144531
-727.866455078125
-767.445129394531
-790.90625
-798.059020996094
-769.447875976563
-702.87939453125
-624.771118164063
-540.463745117188
-468.363739013672
-435.7470703125
-444.044311523438
-474.944305419922
-508.705383300781
-517.4794921875
-483.146148681641
-427.640594482422
-363.360992431641
-293.073059082031
-240.619369506836
-205.809188842773
-186.162902832031
-195.509201049805
-219.256408691406
-231.749923706055
-228.125854492188
-201.517532348633
-152.687911987305
-104.430519104004
-63.7073860168457
-30.2323970794678
-18.5972156524658
-25.177770614624
-35.9546165466309
-47.3036880493164
-49.4018363952637
-33.9518394470215
-8.48795986175537
15.0685138702393
37.7666549682617
61.6092376708984
72.0046081542969
69.5249786376953
71.1462707519531
71.6231231689453
70.0018310546875
77.5360870361328
87.6453399658203
98.899040222168
113.013854980469
115.970336914063
119.59440612793
137.524032592773
140.766616821289
129.799026489258
128.654586791992
128.940704345703
125.030517578125
128.273101806641
138.286987304688
148.300872802734
159.173095703125
171.285125732422
178.342529296875
177.102722167969
173.287902832031
168.042541503906
163.178649902344
162.51106262207
162.701797485352
162.606430053711
164.990692138672
169.663833618164
175.290679931641
184.923095703125
194.36474609375
195.604568481445
188.833267211914
175.862899780273
160.889770507813
149.445327758789
141.624954223633
136.951812744141
141.243469238281
157.456436157227
175.004577636719
179.296234130859
163.369384765625
141.720321655273
130.657363891602
122.550888061523
118.640701293945
127.414772033691
133.041625976563
140.289764404297
156.598098754883
156.884216308594
147.061065673828
143.818466186523
133.518478393555
108.626815795898
84.6888580322266
76.5823822021484
83.5444183349609
99.7573776245117
109.96199798584
114.34903717041
122.83699798584
119.59440612793
106.433296203613
92.986083984375
73.1490478515625
64.0888671875
72.7675704956055
81.9231185913086
90.3157119750977
98.8036727905273
95.3703384399414
80.2064590454102
67.7129440307617
55.9823913574219
40.1509132385254
31.7583236694336
35.8592491149902
49.783317565918
67.5222015380859
71.6231231689453
60.7509078979492
49.3064651489258
41.2953567504883
41.0092468261719
41.3907279968262
33.4749908447266
28.0388793945313
24.0333251953125
23.4611034393311
39.5786895751953
50.7370223999023
42.4398002624512
32.04443359375
17.5481433868408
-3.5287024974823
-14.9731435775757
-18.6925868988037
-26.4175834655762
-27.0851764678955
-15.5453653335571
-11.8259220123291
-22.0305480957031
-41.8675804138184
-65.9009017944336
-79.2527542114258
-85.7379379272461
-94.6073760986328
-92.986083984375
-79.5388641357422
-71.0509033203125
-68.6666412353516
-75.6286773681641
-88.3129348754883
-91.0786743164063
-88.5990447998047
-92.318489074707
-100.138854980469
-99.5666351318359
-90.6018218994141
-77.345344543457
-67.5222015380859
-69.9064559936523
-74.5796051025391
-77.0592346191406
-76.8684921264648
-79.5388641357422
-85.7379379272461
-81.5416412353516
-72.5768280029297
-68.2851638793945
-66.6638641357422
-60.274055480957
-55.4101676940918
-65.137939453125
-76.5823822021484
-82.9721984863281
-83.6397857666016
-76.7731246948242
-74.6749725341797
-75.9147872924805
-71.8138656616211
-64.756462097168
-58.9388694763184
-55.5055389404297
-53.2166481018066
-51.4999847412109
-46.2546157836914
-44.251838684082
-49.783317565918
-45.9685020446777
-36.6222114562988
-42.7259140014648
-56.2685012817383
-53.2166481018066
-38.148136138916
-33.5703582763672
-41.962947845459
-48.1620216369629
-51.404613494873
-57.3175735473633
-58.2712783813477
-57.1268348693848
-57.2222023010254
-50.0694274902344
-46.7314682006836
-48.4481315612793
-41.1999855041504
-39.1018409729004
-45.300910949707
-41.7722091674805
-36.2407302856445
-33.6657295227051
-28.1342506408691
-17.6435127258301
-5.05462789535522
-3.43333220481873
-8.67870044708252
-9.15555286407471
-11.3490705490112
-16.6898097991943
-23.2703628540039
-31.4722118377686
-40.1509132385254
-40.2462844848633
-26.8944358825684
-12.3981437683105
-5.62685012817383
-6.86666440963745
-7.72499752044678
-6.86666440963745
-15.9268465042114
-23.6518440246582
-21.0768451690674
-23.3657341003418
-24.6055469512939
-15.5453653335571
-8.10647869110107
-3.5287024974823
0
-0.190740674734116
-1.81203651428223
-8.58333015441895
-14.3055505752563
-19.9324016571045
-30.4231376647949
-22.3166599273682
-0.667592406272888
7.0574049949646
3.62407302856445
5.24536848068237
12.8749961853027
8.96481227874756
-0.47685170173645
0
0.190740674734116
-1.52592539787292
-2.76573991775513
-5.81759071350098
-8.0111083984375
-7.34351634979248
-12.302773475647
-21.2675857543945
-18.4064750671387
-13.256477355957
-12.9703664779663
-5.81759071350098
4.57777643203735
11.1583299636841
23.0796222686768
34.9055442810059
33.2842483520508
22.3166599273682
11.4444408416748
8.67870044708252
10.3953666687012
16.6898097991943
25.6546211242676
22.6027698516846
12.8749961853027
11.635181427002
15.4499950408936
16.30832862854
13.3518476486206
8.10647869110107
10.204626083374
22.6981410980225
32.3305435180664
30.5185089111328
18.5018463134766
10.1092557907104
11.3490705490112
12.4935140609741
6.29444265365601
-0.762962698936462
0.572222054004669
8.10647869110107
14.4009208679199
24.891658782959
34.4286918640137
28.9925842285156
21.3629570007324
19.2648086547852
12.0166625976563
5.05462789535522
5.05462789535522
10.7768487930298
19.9324016571045
21.1722145080566
17.0712909698486
19.074068069458
23.2703628540039
24.6055469512939
24.0333251953125
29.0879535675049
35.0962867736816
27.1805477142334
22.0305480957031
22.0305480957031
21.1722145080566
33.8564720153809
43.1073951721191
39.7694320678711
32.1398048400879
22.8888816833496
19.6462898254395
15.1638841629028
2.47962880134583
-4.00555419921875
0.0953703373670578
4.86388731002808
3.5287024974823
0.381481349468231
5.62685012817383
12.8749961853027
8.0111083984375
-4.10092449188232
-7.0574049949646
3.71944332122803
16.4036979675293
12.588885307312
2.09814739227295
13.4472179412842
28.7064723968506
23.5564746856689
12.302773475647
1.14444410800934
-14.9731435775757
-28.9925842285156
-32.9027671813965
-35.0009155273438
-35.5731353759766
-29.7555465698242
-30.70924949646
-38.8157272338867
-38.9110984802246
-33.3796195983887
-31.3768424987793
-30.5185089111328
-18.3111057281494
-8.67870044708252
-14.1148099899292
-12.302773475647
-1.14444410800934
4.00555419921875
2.67036962509155
4.86388731002808
11.1583299636841
19.4555492401123
28.4203605651855
22.0305480957031
8.10647869110107
8.48795986175537
12.7796258926392
8.29721927642822
3.5287024974823
1.52592539787292
-3.05185079574585
-8.77407169342041
-8.29721927642822
-3.8148136138916
-8.77407169342041
-11.7305517196655
-1.14444410800934
7.24814605712891
9.82314491271973
7.6296272277832
9.63240432739258
16.8805503845215
16.5944385528564
17.738883972168
13.4472179412842
4.1962947845459
1.43055510520935
-16.5944385528564
-49.1157264709473
-79.3481216430664
-108.817558288574
-148.300872802734
-198.179565429688
-224.024932861328
-215.441604614258
-205.427719116211
-196.939758300781
-163.846237182617
-101.187927246094
-21.4583263397217
63.8981285095215
154.595321655273
274.857330322266
458.731323242188
712.702575683594
993.568176269531
1244.58288574219
1473.09020996094
1677.46887207031
1802.11791992188
1848.94482421875
1798.49389648438
1556.82543945313
1122.60424804688
646.229431152344
224.883255004883
-176.244384765625
-525.109069824219
-760.006225585938
-907.734924316406
-997.287658691406
-1029.14135742188
-1005.39410400391
-939.874694824219
-859.000671386719
-786.042358398438
-727.866455078125
-699.064575195313
-724.051635742188
-772.022888183594
-789.761779785156
-776.028442382813
-736.640502929688
-668.259948730469
-582.331298828125
-504.890563964844
-466.170227050781
-463.785949707031
-476.184112548828
-498.882232666016
-521.67578125
-518.719299316406
-479.712799072266
-410.569305419922
-328.073974609375
-260.265655517578
-223.929565429688
-213.62956237793
-222.975860595703
-243.57585144043
-251.682327270508
-242.431396484375
-225.074005126953
-189.405502319336
-134.376815795898
-74.8657150268555
-31.3768424987793
-16.9759197235107
-18.8833274841309
-22.2212886810303
-23.6518440246582
-21.5536975860596
-14.9731435775757
4.10092449188232
31.6629524230957
48.1620216369629
63.6120147705078
79.2527542114258
76.4870147705078
72.9583129882813
72.6721954345703
68.5712738037109
72.0046081542969
80.111083984375
94.3212661743164
115.684219360352
133.041625976563
142.769393920898
150.303649902344
155.262908935547
157.074951171875
156.02587890625
144.486068725586
134.56755065918
139.145324707031
151.066619873047
162.987915039063
168.042541503906
167.661056518555
171.475875854492
183.77864074707
197.035125732422
200.84992980957
199.037902832031
199.228637695313
192.934204101563
180.726791381836
177.865676879883
185.113830566406
197.798080444336
206.762893676758
214.964752197266
218.970306396484
206.095306396484
196.749008178711
193.983276367188
181.775863647461
174.146240234375
176.339752197266
178.056427001953
185.209197998047
189.310119628906
183.206420898438
180.440689086914
171.380493164063
147.728652954102
126.556442260742
119.308296203613
120.548110961914
122.83699798584
128.654586791992
139.049957275391
147.728652954102
144.581436157227
138.096252441406
134.186065673828
118.068481445313
95.4657135009766
86.0240478515625
90.3157119750977
99.7573776245117
110.057373046875
121.597183227539
124.553665161133
116.637924194336
107.291633605957
90.3157119750977
69.1434936523438
53.3120193481445
45.0148010253906
54.0749816894531
73.6259002685547
85.9286727905273
87.6453399658203
72.0046081542969
48.734245300293
34.5240631103516
23.5564746856689
11.2537002563477
4.86388731002808
9.82314491271973
25.4638805389404
39.7694320678711
42.8212814331055
34.9055442810059
24.9870281219482
20.0277709960938
9.15555286407471
-9.34629344940186
-18.0249938964844
-19.7416610717773
-17.738883972168
-8.67870044708252
0
10.8722190856934
15.35462474823
-2.38425850868225
-21.7444381713867
-28.2296199798584
-33.4749908447266
-36.1453590393066
-33.0935096740723
-32.3305435180664
-27.2759170532227
-18.5018463134766
-31.2814712524414
-54.7425765991211
-63.4212760925293
-68.4759063720703
-72.3860855102539
-70.2879409790039
-69.5249786376953
-66.9499816894531
-57.6036834716797
-50.0694274902344
-54.4564628601074
-62.9444236755371
-66.4731292724609
-65.5194244384766
-67.7129440307617
-75.3425674438477
-78.012939453125
-78.8712692260742
-71.8138656616211
-59.701831817627
-60.3694267272949
-61.6092376708984
-66.0916442871094
-79.3481216430664
-85.9286727905273
-85.9286727905273
-78.4897918701172
-71.8138656616211
-63.8027572631836
-50.7370223999023
-50.9277610778809
-61.4184989929199
-70.9555358886719
-72.0999755859375
-68.2851638793945
-70.4786834716797
-69.2388687133789
-60.9416465759277
-54.8379440307617
-50.5462799072266
-45.5870208740234
-44.6333198547363
-51.0231323242188
-55.4101676940918
-54.5518341064453
-53.5981292724609
-53.8842430114746
-55.3147964477539
-53.121280670166
-47.9712791442871
-44.9194297790527
-43.2027626037598
-41.8675804138184
-39.4833221435547
-37.2898025512695
-32.7120246887207
-27.0851764678955
-26.8944358825684
-29.4694347381592
-34.0472106933594
-33.6657295227051
-22.9842510223389
-20.5046234130859
-24.6055469512939
-18.8833274841309
-19.5509204864502
-27.8481388092041
-22.6027698516846
-17.4527721405029
-30.5185089111328
-45.2055397033691
-51.1185035705566
-47.7805404663086
-37.0036926269531
-22.3166599273682
-9.72777462005615
-6.1037015914917
-7.82036781311035
-14.4009208679199
-28.3249912261963
-41.4860992431641
-40.7231369018555
-29.4694347381592
-22.7935104370117
-18.0249938964844
-13.5425882339478
-9.72777462005615
-9.25092315673828
-22.3166599273682
-36.9083213806152
-34.4286918640137
-28.6111011505127
-31.9490642547607
-35.5731353759766
-36.6222114562988
-29.7555465698242
-21.2675857543945
-20.409252166748
-23.2703628540039
-33.0935096740723
-38.9110984802246
-34.2379531860352
-32.04443359375
-29.0879535675049
-28.4203605651855
-29.3740653991699
-26.4175834655762
-32.5212860107422
-45.6823921203613
-48.5435028076172
-38.9110984802246
-30.8999900817871
-28.9925842285156
-26.6083240509033
-21.6490669250488
-13.3518476486206
-8.0111083984375
-7.6296272277832
-2.28888821601868
-2.09814739227295
-13.0657367706299
-16.4036979675293
-12.4935140609741
-12.1120328903198
-10.1092557907104
-2.95648050308228
-2.5749990940094
-5.43610954284668
2.47962880134583
1.23981440067291
-9.63240432739258
-6.1037015914917
-8.20184898376465
-21.839807510376
-23.8425846099854
-22.5074005126953
-22.6027698516846
-11.9212923049927
-4.38703584671021
-5.1499981880188
0.381481349468231
1.71666610240936
-6.77129411697388
-10.9675893783569
-0.381481349468231
23.3657341003418
37.5759124755859
29.7555465698242
20.2185115814209
20.0277709960938
15.4499950408936
11.7305517196655
16.8805503845215
17.738883972168
8.86944198608398
2.38425850868225
9.34629344940186
19.9324016571045
22.2212886810303
20.0277709960938
19.2648086547852
23.3657341003418
23.8425846099854
21.3629570007324
28.7064723968506
37.8620262145996
45.2055397033691
51.2138710021973
45.4916534423828
38.9110984802246
35.8592491149902
31.6629524230957
32.5212860107422
30.8999900817871
29.4694347381592
32.6166572570801
33.4749908447266
40.1509132385254
45.1101722717285
42.2490615844727
37.9573936462402
26.5129547119141
18.9786968231201
19.074068069458
18.2157344818115
23.2703628540039
35.1916542053223
43.2981338500977
42.1536903381348
42.7259140014648
47.1129493713379
42.1536903381348
32.4259147644043
27.943510055542
34.3333206176758
43.2981338500977
42.3444290161133
40.3416519165039
44.1564674377441
43.5842437744141
37.5759124755859
33.4749908447266
25.2731399536133
12.3981437683105
6.1037015914917
6.96203470230103
6.86666440963745
4.48240613937378
10.2999963760376
24.891658782959
31.5675830841064
25.9407329559326
20.7907333374023
21.3629570007324
22.125919342041
19.9324016571045
17.4527721405029
16.5944385528564
16.9759197235107
18.5018463134766
15.9268465042114
9.06018257141113
5.91296100616455
4.00555419921875
-5.81759071350098
-19.2648086547852
-31.7583236694336
-42.2490615844727
-47.017578125
-47.5897979736328
-40.7231369018555
-31.7583236694336
-26.8944358825684
-17.738883972168
-9.15555286407471
-11.8259220123291
-17.0712909698486
-18.9786968231201
-23.1749935150146
-29.278694152832
-33.2842483520508
-31.8536930084229
-23.7472152709961
-17.1666603088379
-7.82036781311035
2.00277709960938
3.33796191215515
9.34629344940186
13.0657367706299
4.86388731002808
1.43055510520935
-2.8611102104187
-9.15555286407471
-0.572222054004669
15.7361059188843
20.5999927520752
16.2129573822021
13.9240694046021
14.3055505752563
17.1666603088379
17.8342533111572
16.6898097991943
22.6981410980225
20.1231422424316
12.8749961853027
27.4666576385498
40.6277656555176
30.6138782501221
16.5944385528564
7.0574049949646
-0.381481349468231
-8.20184898376465
-24.1286964416504
-56.936092376709
-98.5175628662109
-151.73420715332
-202.089752197266
-215.155487060547
-209.147155761719
-208.956420898438
-204.378631591797
-165.276794433594
-83.4490509033203
0.47685170173645
82.7814559936523
216.204559326172
401.890625
631.733154296875
918.702453613281
1197.56530761719
1434.46533203125
1666.11987304688
1842.55493164063
1920.85400390625
1931.44006347656
1828.05871582031
1517.53283691406
1029.80895996094
520.435974121094
78.9666442871094
-334.368408203125
-682.756286621094
-885.132141113281
-1005.68023681641
-1104.29321289063
-1140.05700683594
-1111.73205566406
-1039.44128417969
-925.283020019531
-816.65625
-768.208068847656
-777.649780273438
-804.925659179688
-826.002502441406
-837.733093261719
-820.2802734375
-762.009033203125
-677.320129394531
-590.151672363281
-532.643371582031
-505.272064208984
-487.628540039063
-489.822052001953
-505.939666748047
-511.661865234375
-508.419281005859
-482.097076416016
-417.340606689453
-344.668395996094
-294.122131347656
-265.224914550781
-249.965667724609
-253.398986816406
-269.611938476563
-267.418426513672
-249.584182739258
-229.556411743164
-191.122161865234
-139.622177124023
-96.6101531982422
-69.1434936523438
-55.1240577697754
-55.1240577697754
-61.7046089172363
-66.9499816894531
-72.1953506469727
-68.7620162963867
-50.2601699829102
-18.2157344818115
10.3953666687012
28.7064723968506
53.0259094238281
62.9444236755371
58.3666496276855
64.3749771118164
60.8462753295898
54.8379440307617
69.3342361450195
88.3129348754883
103.286079406738
118.831443786621
131.134216308594
137.714767456055
142.483291625977
145.630508422852
146.965698242188
149.731430053711
151.161987304688
151.352722167969
152.401809692383
154.690689086914
159.936065673828
161.366607666016
161.843460083008
169.473098754883
179.3916015625
182.348083496094
179.3916015625
182.824935913086
185.399948120117
182.348083496094
190.645309448242
197.607345581055
191.408279418945
190.549942016602
194.841598510742
198.75178527832
202.280487060547
195.032348632813
181.775863647461
172.334197998047
169.186981201172
178.628646850586
188.356414794922
192.934204101563
202.661972045898
202.471237182617
188.833267211914
175.958282470703
164.895324707031
152.401809692383
143.15087890625
148.873107910156
156.121246337891
155.358276367188
162.3203125
172.238830566406
168.328643798828
154.213836669922
143.436996459961
128.845321655273
119.212921142578
124.458290100098
123.123107910156
121.406440734863
128.273101806641
132.946258544922
135.807357788086
133.518478393555
129.226806640625
124.362922668457
108.531448364258
94.416633605957
95.084228515625
96.13330078125
95.8471908569336
102.999969482422
105.670333862305
99.0897827148438
94.702751159668
84.1166381835938
60.1786842346191
39.5786895751953
30.70924949646
35.1916542053223
46.3499870300293
53.5981292724609
64.8518295288086
66.3777542114258
43.3935050964355
23.4611034393311
11.7305517196655
1.9074068069458
2.1935179233551
7.72499752044678
20.2185115814209
29.3740653991699
26.7036952972412
24.5101776123047
14.3055505752563
-5.43610954284668
-14.7824029922485
-19.2648086547852
-26.4175834655762
-20.0277709960938
-10.2999963760376
-6.19907188415527
6.38981294631958
11.635181427002
-2.8611102104187
-17.2620315551758
-30.70924949646
-44.3472061157227
-47.5897979736328
-51.6907234191895
-53.5981292724609
-40.8185043334961
-33.9518394470215
-41.8675804138184
-53.6935005187988
-60.9416465759277
-66.7592391967773
-75.3425674438477
-82.5907135009766
-80.0157165527344
-67.4268264770508
-69.0481262207031
-79.4434967041016
-78.394416809082
-79.4434967041016
-81.9231185913086
-86.3101577758789
-92.4138565063477
-91.0786743164063
-87.5499725341797
-82.7814559936523
-84.7842330932617
-94.1305236816406
-96.4194107055664
-91.5555267333984
-88.5036773681641
-91.0786743164063
-94.702751159668
-97.4684906005859
-92.8907089233398
-82.1138610839844
-80.778678894043
-83.4490509033203
-79.6342315673828
-77.4407196044922
-77.6314544677734
-68.6666412353516
-59.7972030639648
-63.1351661682129
-67.7129440307617
-67.903678894043
-62.5629425048828
-57.6990547180176
-63.4212760925293
-62.4675712585449
-54.8379440307617
-53.3120193481445
-47.8759117126465
-44.6333198547363
-46.6360969543457
-43.1073951721191
-40.5323944091797
-42.8212814331055
-44.1564674377441
-36.9083213806152
-25.177770614624
-23.1749935150146
-27.943510055542
-27.1805477142334
-24.7009181976318
-28.4203605651855
-31.4722118377686
-32.2351760864258
-34.2379531860352
-33.1888771057129
-31.5675830841064
-28.5157318115234
-27.5620288848877
-35.6685066223145
-39.197208404541
-30.8999900817871
-21.9351787567139
-21.6490669250488
-28.4203605651855
-24.1286964416504
-19.5509204864502
-32.7120246887207
-38.8157272338867
-31.5675830841064
-24.891658782959
-23.9379558563232
-28.3249912261963
-29.3740653991699
-23.5564746856689
-19.9324016571045
-29.278694152832
-38.5296173095703
-33.4749908447266
-28.7064723968506
-26.226842880249
-26.0361022949219
-33.6657295227051
-33.9518394470215
-27.1805477142334
-31.8536930084229
-41.1999855041504
-37.8620262145996
-27.4666576385498
-22.0305480957031
-18.4064750671387
-16.2129573822021
-18.4064750671387
-18.8833274841309
-25.0823993682861
-33.2842483520508
-31.8536930084229
-32.8073959350586
-32.8073959350586
-18.9786968231201
-9.44166374206543
-10.204626083374
-8.3925895690918
-7.15277528762817
-8.58333015441895
-18.3111057281494
-30.1370277404785
-25.177770614624
-13.1611070632935
-4.67314672470093
3.8148136138916
4.48240613937378
-2.09814739227295
-5.05462789535522
-9.9185152053833
-16.1175880432129
-14.9731435775757
-14.9731435775757
-12.588885307312
-5.34073925018311
-2.1935179233551
7.43888664245605
15.1638841629028
6.58055353164673
4.38703584671021
15.9268465042114
14.3055505752563
6.6759238243103
13.3518476486206
15.2592544555664
7.24814605712891
8.3925895690918
11.9212923049927
10.5861072540283
7.34351634979248
3.05185079574585
8.20184898376465
18.9786968231201
22.0305480957031
21.839807510376
22.3166599273682
25.6546211242676
32.3305435180664
35.0962867736816
33.761100769043
30.2323970794678
28.7064723968506
31.4722118377686
28.3249912261963
26.3222141265869
36.5268402099609
40.6277656555176
32.9981384277344
34.5240631103516
47.8759117126465
55.0286865234375
45.4916534423828
30.1370277404785
25.8453617095947
39.5786895751953
54.2657241821289
54.2657241821289
54.5518341064453
57.2222023010254
55.5055389404297
63.039794921875
72.3860855102539
63.6120147705078
49.783317565918
46.8268356323242
44.8240585327148
39.197208404541
35.2870254516602
30.8999900817871
27.1805477142334
23.4611034393311
17.2620315551758
16.6898097991943
19.4555492401123
18.1203651428223
23.8425846099854
34.9055442810059
37.5759124755859
39.5786895751953
41.1046180725098
30.2323970794678
19.1694374084473
15.35462474823
13.8286991119385
12.2074031829834
6.38981294631958
0.0953703373670578
-7.6296272277832
-15.7361059188843
-13.3518476486206
-9.63240432739258
-17.6435127258301
-29.278694152832
-36.1453590393066
-37.0036926269531
-32.6166572570801
-24.7962875366211
-18.2157344818115
-13.256477355957
-10.0138854980469
-17.357400894165
-27.657398223877
-26.9898052215576
-19.8370304107666
-10.0138854980469
-4.00555419921875
-5.81759071350098
-11.0629596710205
-15.35462474823
-15.0685138702393
-12.9703664779663
-13.256477355957
-10.1092557907104
-4.29166507720947
-0.667592406272888
1.23981440067291
3.05185079574585
9.15555286407471
11.7305517196655
17.5481433868408
30.2323970794678
25.2731399536133
17.1666603088379
20.0277709960938
18.4064750671387
13.7333288192749
9.72777462005615
5.81759071350098
3.5287024974823
3.5287024974823
1.9074068069458
-3.147221326828
-6.38981294631958
-4.95925760269165
0.0953703373670578
-1.81203651428223
-15.4499950408936
-33.6657295227051
-55.3147964477539
-76.8684921264648
-103.76293182373
-148.110137939453
-190.836044311523
-200.563827514648
-189.214752197266
-181.966613769531
-172.334197998047
-137.142547607422
-70.2879409790039
10.6814785003662
99.1851501464844
191.885116577148
319.109161376953
531.117431640625
804.258056640625
1073.2978515625
1307.62268066406
1507.13745117188
1662.59118652344
1758.24755859375
1786.85864257813
1691.01147460938
1375.5263671875
899.62841796875
447.859130859375
45.5870208740234
-321.874908447266
-588.053527832031
-773.644226074219
-911.263610839844
-995.284851074219
-1017.79223632813
-964.480224609375
-871.303405761719
-786.7099609375
-733.874755859375
-713.465515136719
-716.517333984375
-755.237731933594
-798.535827636719
-797.677551269531
-761.627563476563
-699.732177734375
-610.179443359375
-513.473937988281
-434.125793457031
-393.402648925781
-400.173950195313
-431.836883544922
-464.835021972656
-489.726684570313
-483.241516113281
-442.041534423828
-377.857299804688
-296.029541015625
-226.790664672852
-191.312896728516
-188.356414794922
-209.719375610352
-236.232330322266
-254.352691650391
-251.682327270508
-222.594375610352
-181.966613769531
-133.995330810547
-78.1083068847656
-40.2462844848633
-30.70924949646
-32.3305435180664
-43.2981338500977
-55.6009063720703
-55.4101676940918
-48.6388740539551
-29.8509159088135
9.72777462005615
48.066650390625
64.4703521728516
73.2444229125977
79.4434967041016
79.4434967041016
76.4870147705078
72.2907180786133
75.9147872924805
88.8851547241211
104.335151672363
113.967559814453
116.733299255371
122.455513000488
125.411994934082
123.027740478516
120.166625976563
117.782371520996
129.608291625977
143.341613769531
144.199951171875
148.873107910156
154.786056518555
153.164764404297
156.121246337891
169.759201049805
181.966613769531
179.3916015625
172.524948120117
170.045318603516
165.562911987305
161.461990356445
161.557357788086
161.271240234375
168.233276367188
182.348083496094
185.97216796875
181.775863647461
171.761978149414
157.074951171875
148.014770507813
141.720321655273
139.240692138672
133.613845825195
125.030517578125
135.616622924805
158.219390869141
170.617538452148
179.200866699219
176.911987304688
158.314758300781
141.148101806641
122.074035644531
101.950889587402
97.6592254638672
107.577743530273
120.929588317871
126.937919616699
131.706436157227
136.474960327148
127.796257019043
115.111999511719
102.61848449707
85.3564529418945
83.6397857666016
101.283302307129
115.49348449707
128.082366943359
137.524032592773
130.561996459961
115.49348449707
96.9916381835938
74.5796051025391
60.5601654052734
56.4592399597168
56.7453536987305
65.137939453125
82.3046035766602
94.7981185913086
92.5092315673828
83.7351608276367
71.3370132446289
49.2110939025879
28.2296199798584
21.2675857543945
22.6981410980225
27.7527694702148
30.1370277404785
28.5157318115234
29.5648059844971
22.7935104370117
8.77407169342041
-0.381481349468231
-9.537034034729
-15.2592544555664
-13.7333288192749
-9.25092315673828
-1.14444410800934
6.00833129882813
10.1092557907104
12.9703664779663
7.24814605712891
-11.0629596710205
-32.04443359375
-42.0583190917969
-40.913875579834
-32.7120246887207
-19.2648086547852
-11.4444408416748
-15.0685138702393
-18.5018463134766
-21.7444381713867
-32.2351760864258
-41.962947845459
-46.2546157836914
-53.8842430114746
-60.4647941589355
-50.9277610778809
-32.8073959350586
-16.8805503845215
-8.77407169342041
-16.4036979675293
-28.0388793945313
-36.9083213806152
-48.1620216369629
-53.3120193481445
-49.6879463195801
-47.9712791442871
-43.2981338500977
-36.431468963623
-36.8129501342773
-36.8129501342773
-37.6712837219238
-47.3990592956543
-59.7972030639648
-67.1407165527344
-64.6610870361328
-58.2712783813477
-58.7481307983398
