Value(bpm)
64.6736842105263
64.6732194521069
64.6727598823724
64.6723106830347
64.6718770355257
64.6714641210171
64.6710771204505
64.6707212145739
64.670401583988
64.6701234091997
64.6698918706847
64.669712148958
64.6695894246527
64.6695288786073
64.6695356919609
64.6696150462573
64.6697721235571
64.6700121065576
64.6703401787223
64.6707615244174
64.6712813290573
64.6719047792582
64.6726370630006
64.6734833697992
64.6743861295096
64.6747949322636
64.6739266009185
64.6709967732742
64.6652216846486
64.6558187625286
64.6420074100465
64.623009976638
64.5980529133491
64.5663681091911
64.5271944036989
64.4797792694434
64.4233806566953
64.3572689907517
64.2807293106475
64.1932877612627
64.0959253194404
63.9901893649012
63.8776165495025
63.7597278423794
63.6380257571977
63.5139923170049
63.3890877353828
63.2647497894712
63.1423938587175
63.0234136028437
62.9091822533885
62.8010544952109
62.700368917425
62.6084510173206
62.5266020870057
62.4557816942346
62.3966153907258
62.3497215271297
62.3157283988469
62.2952768481022
62.2890230339942
62.2976413875426
62.3218277715884
62.3623028685537
62.4198158226192
62.4951481668894
62.5891180706725
62.7025849472082
62.8364544681521
62.9916719819886
63.1677733137418
63.3614545993322
63.5690269293782
63.7867208306305
64.010670959398
64.2369051525113
64.4613381394611
64.6797702682182
64.8878916220151
65.0812919014223
65.255476411575
65.4058884247709
65.5279380810046
65.6170378417275
65.6689546738234
65.6837628451157
65.6646991669602
65.6151715755449
65.5386590067367
65.4386813033415
65.3187725866682
65.1824583310535
65.0332362702895
64.874561170923
64.7098334307506
64.5423914020532
64.3755072979842
64.2123865162159
64.056170205278
63.9098766515306
63.7756065170512
63.6548118222755
63.5489229489708
63.4593692488215
63.3875863459794
63.335024107618
63.3031553291812
63.2934851976394
63.3075616147457
63.3469864834661
63.4134280850192
63.5086347020197
63.6344496759777
63.7928281260058
63.9856008540078
64.2108071518248
64.4634181217101
64.7382280545779
65.0298925452606
65.3328934040325
65.6415120003664
65.9498117981584
66.2516310172412
66.5405864664374
66.8100896249785
67.0533759863778
67.2635485063638
67.4336357010716
67.5567698027901
67.6309488237067
67.6610022977895
67.6524532559892
67.6109648386765
67.5422805782528
67.4521736717834
67.3464058480611
67.2306961096255
67.1106993725278
66.9919948396755
66.8800838279073
66.7803967221975
66.6983087487616
66.6391643382698
66.6072412500229
66.6021657115747
66.6223399369214
66.6662222118251
66.7323155019286
66.8191569582536
66.9253082509724
67.049346647046
67.1898567655402
67.3454229607025
67.5146222975582
67.696018098138
67.8881540486828
68.0895488694255
68.2984179738435
68.5113283468381
68.7241761685155
68.9327542028354
69.1327544815821
69.3197755622644
69.4893354542949
69.6368904644003
69.7578601287917
69.8476582817973
69.9017301582425
69.9155952415914
69.8848953558971
69.8054512838332
69.6762183967542
69.5043619052829
69.2984465244723
69.0669626964262
68.8182561276678
68.5604784859317
68.3015584701528
68.0491920872115
67.8108507947845
67.593806179337
67.4051700080158
67.2519488016799
67.1411125082729
67.0796774047974
67.0734391827136
67.1187369440437
67.207928677181
67.3334672737606
67.4878258017055
67.6634231337895
67.8525662232904
68.0474091711724
68.2399297039771
68.4219240002127
68.5850209535341
68.7207169253004
68.8204317974046
68.8755866723155
68.8791265741881
68.8325081916146
68.7404005565111
68.6076210604793
68.4390722957569
68.2396891083611
68.014392390734
67.7680500036976
67.5054449656791
67.2312508376901
66.9500140681925
66.666142942598
66.3839027053659
66.107416384668
65.8406627809107
65.5869347063947
65.3485185849093
65.1275631922586
64.9261780855202
64.7464466746062
64.5904405083188
64.4602348131419
64.3579253643301
64.2856468141958
64.2455926529385
64.2400370343452
64.271358764116
64.3420678248773
64.4548349022951
64.6123719720409
64.81278819521
65.0485834147331
65.3118267417444
65.5943985456954
65.8879285050758
66.18375339148
66.4728962680805
66.7460691574159
66.9937013683927
67.2059955240395
67.3730128547633
67.4847884805851
67.5314761846453
67.5035518842972
67.39724628435
67.22046234074
66.9828252595167
66.6940748698901
66.3639103747906
66.0018633890904
65.6171999295874
65.2188506918894
64.8153679830822
64.4149070646581
64.0252293626522
63.6537249733875
63.3074520822155
62.9931912712869
62.7175131813448
62.4856739447845
62.2966703994247
62.1476280717231
62.0358749787537
61.9589111866099
61.9143807267767
61.900046619138
61.9137685350497
61.9534827213542
62.0171838791193
62.1029087523409
62.2087212342735
62.332698844284
62.4729204676257
62.6274552853735
62.7943426512921
62.9714359034322
63.1564244765935
63.3469446474505
63.5405772765176
63.7348440384991
63.927205503049
64.1150611882973
64.2957517140292
64.4665631790695
64.624733877423
64.7674634493002
64.8919245356809
64.9952769681119
65.0746844788777
65.1276895746292
65.1541709059186
65.154978940652
65.1310286103691
65.0832899776407
65.0127811167549
64.9205610333454
64.8077226976657
64.6753862590873
64.5246925016788
64.356796592638
64.172862167117
63.9740557847944
63.7615417855779
63.5364775642122
63.3002847863239
63.057006275093
62.812044888452
62.570657211134
62.3379400086503
62.1188417154234
61.9181816852188
61.7406766752023
61.5909741923641
61.4736925291479
61.3934675524312
61.3550065886833
61.3631500746615
61.4229420290315
61.5397108639017
61.7191530561725
61.9635817967315
62.2658971764625
62.6174857343152
63.0095579542712
63.4330101220487
63.8783085599677
64.3353981528846
64.7936384492377
65.2417717384595
65.6679282866648
66.0596742378401
66.404107414491
66.6880052314465
66.8980270437811
67.022812336119
67.064544083875
67.0317124682276
66.9333337694295
66.7787410767099
66.5774178119841
66.3388555742902
66.0724386234002
65.7873558212792
65.4925396580387
65.1966311303135
64.9079687085683
64.6345993986121
64.3843099335252
64.1646763850088
63.9822409346644
63.8377992893297
63.7300065223672
63.657653497935
63.6196598516591
63.6150627624286
63.6430070021742
63.7027360948131
63.7935844393462
63.9149702719955
64.0663893589495
64.2474093252829
64.4576645373713
64.6968514660025
64.9647242801492
65.2601720984106
65.5790179944614
65.9163139007241
66.2669264385859
66.6255086930879
66.9864796705216
67.3440123533892
67.6920314003723
68.0242216120723
68.3340482817038
68.6147904579216
68.8595879494337
69.0615025856308
69.2136059025622
69.3120894036315
69.3603643945714
69.3630810021186
69.3250835732
69.2513505029537
69.146939805518
69.0169413000561
68.8664359858085
68.7004629138941
68.5239936387156
68.3419141529837
68.1590140791187
67.9799828052206
67.8094122001863
67.6513366786386
67.5080240229891
67.3813330504266
67.2731152128749
67.1852246349288
67.1195291788265
67.0779225995487
67.0623378811133
67.0747618767051
67.1172514112677
67.1919510466415
67.3011127576229
67.4471178241775
67.6325013126789
67.8588787334277
68.1209040228773
68.4103225980375
68.7186545876473
69.0371401962745
69.3566987150867
69.667910012616
69.9610207532597
70.2259776973696
70.4524902416822
70.6301238145909
70.7484248102602
70.797076414823
70.7661571985682
70.6529731633718
70.4673082376178
70.220457778903
69.9237814345536
69.5885311061021
69.2257160722385
68.8460052463182
68.4596650236772
68.0765301673781
67.7060046517557
67.3570892691092
67.0384330346912
66.7584059308616
66.5251912576541
66.3457912950742
66.2201918040078
66.1458284971153
66.1203935619978
66.1418089401276
66.2081965595868
66.3178518900403
66.4692202438054
66.6608753387874
66.8914997137001
67.1598666469762
67.4648232809766
67.8052746947881
68.1801687039004
68.5879154675614
69.022410795459
69.4751212131669
69.9370573147378
70.3987422310487
70.8501914419635
71.2809197233786
71.6799789107929
72.0360299664821
72.3374522053856
72.5724913966113
72.7294467734516
72.7968947643576
72.7647842175186
72.6366956377831
72.4269219755761
72.150323192787
71.8217621863897
71.4558701510185
71.0668741499341
70.6684854204607
70.273844603311
69.8955187962111
69.5455449699119
69.2355146953713
68.9766961652089
68.7801910325004
68.6562784592333
68.6040088890097
68.6146062533879
68.6794802960942
68.7902629299892
68.93868469873
69.1164724821482
69.3152671328732
69.5265606786783
69.7416534684731
69.9516321899709
70.1473700366451
70.3195504312221
70.4587155963303
70.557135473053
70.614312521508
70.6316901629566
70.6108531603564
70.5535099849611
70.4614749453434
70.3366503702988
70.1810091120412
69.996577606777
69.7854196975095
69.5496213901123
69.2912766795289
69.0124745494738
68.715287244271
68.4027264434435
68.0812184766277
67.757757662698
67.4390822573783
67.1316801573998
66.8418072618734
66.5755173046835
66.3387021826369
66.1371420902452
65.9765651235523
65.8627164289633
65.8014374526052
65.7987564040008
65.8609917076706
65.9945585300378
66.1979958690651
66.4610420298487
66.7729803191249
67.1229076939624
67.499583484416
67.8913119768085
68.2858615278365
68.6704243805396
69.0316223525145
69.3555639406424
69.6279579804511
69.834287654691
69.9600462426401
69.9928004240574
69.9361152532689
69.8021145038116
69.6033735859079
69.3526040269918
69.0624468233242
68.7453123341456
68.4132670606546
68.0779656142083
67.7506248684474
67.4420366608303
67.1626153759987
66.9224772112882
66.7315488079495
66.5995817148269
66.529630114191
66.5147872715154
66.5476049005238
66.6208334968768
66.7273257314847
66.8599564260363
67.0115580391677
67.1748712520976
67.3425107595854
67.5069467549005
67.6605028446145
67.7953712313775
67.9036459470298
67.9773940376804
68.0119786118639
68.0097968420778
67.9742512549197
67.9088352932021
67.8171011155488
67.7026306451442
67.5690101762081
67.4198087302453
67.2585602514915
67.088749644462
66.9138025872159
66.7370790021244
66.5618700310903
66.3913983433632
66.2287704175122
66.0765916797214
65.9371990881115
65.8128995548878
65.7059819993561
65.6187290343245
65.5534302140562
65.5123969039015
65.4979788737666
65.5125827655263
65.5586926395957
65.6388928698019
65.7558937306469
65.9125601099386
66.111924258244
66.3539010526698
66.6314205026199
66.9363695031029
67.260398930441
67.5948608613055
67.9307661208595
68.2587641952347
68.5691479283979
68.8518855543957
69.0966824400476
69.2930743770549
69.4305533232806
69.498725131186
69.487739039848
69.397300674491
69.2391664784858
69.0260754848548
68.7707734284824
68.4858390363255
68.1835579714771
67.8758433998689
67.5742006201305
67.2897323867609
67.0331813901616
66.8150067424979
66.6454921696282
66.5348848638646
66.4935655849862
66.5288907166303
66.6339272512365
66.7980349756043
67.0107123918375
67.2614226307089
67.5394521163506
67.8338015070576
68.1331100189414
68.4256155238712
68.6991536598948
68.941199534294
69.1389553465299
69.279486317356
69.3499123668739
69.3425304862093
69.2636324110143
69.122223734257
68.9275399432937
68.6888958175724
68.4155585635954
68.1166462259943
67.8010516479565
67.4773912738984
67.1539774030477
66.8388121010755
66.5396008293684
66.2637839220355
66.0185842930691
65.8107687116568
65.6418035659653
65.5088238627471
65.4089875461332
65.3395891197069
65.2980339166513
65.2818152920661
65.2884943742738
65.3156820894306
65.3610232390789
65.4221824657466
65.4968319890706
65.5826410354929
65.6772669192468
65.778347761736
65.8834288220808
65.9897258179453
66.0943361859511
66.1943207000342
66.2867061402386
66.3684906377018
66.4366517625498
66.4881573939832
66.5199793758985
66.529109914707
66.5125806190221
66.4674840145485
66.3909972933642
66.2804079770547
66.133283699062
65.9511499244417
65.7397112979091
65.5048289759264
65.2522672487757
64.9876594163427
64.7164840655675
64.444051212759
64.1754976479221
63.9157907636391
63.6697401590325
63.4420163708224
63.2371761901615
63.0596941690386
62.9140000990206
62.8045120462588
62.7330994811739
62.6957509352383
62.6877489838794
62.7044727331887
62.7413579529253
62.7938642970215
62.8574492670623
62.9275487555726
62.9995641449631
63.0688560368783
63.1307447457479
63.1805177086173
63.2134439392293
63.224795586302
63.2098765432099
63.165242442937
63.0922730531827
62.9935928851186
62.8718624346215
62.7297581812386
62.5699547444475
62.3951093097988
62.2078483791876
62.0107568489883
61.80636937771
61.5971639713845
61.3855576899129
61.1739043606548
60.9644941760252
60.7595550490494
60.5612554468115
60.3716464025706
60.1925742947037
60.0258242933958
59.8731525757651
59.7362945801282
59.6169741969708
59.5169139074569
59.4378459042744
59.3815242560657
59.349738206106
59.344326728924
59.367194506099
59.4203295256584
59.5058225598223
59.6258888351906
59.7828911805271
59.9776150526603
60.2056506237909
60.4615444868934
60.7397288108771
61.0344715801668
61.3398364709118
61.6496530998889
61.9574986821146
62.2566923556993
62.5403035606738
62.8011758711772
63.0319675541776
63.2252098403469
63.3733834261347
63.469013072186
63.5067069383784
63.4898123419728
63.4242817700568
63.3162614910069
63.1720045243747
62.9977946400944
62.7998824190359
62.5844339049169
62.3574919049829
62.1249496296876
61.8925361021969
61.6658126125118
61.4501794296231
61.2508920074935
61.0730860157289
60.921798393846
60.7999531414933
60.7061366348024
60.6384744405041
60.5951776987712
60.5745285186887
60.57486681656
60.5945784224311
60.632084313008
60.68583085729
60.7542809855946
60.8359062138942
60.9291794740395
61.0325687169002
61.1445312700229
61.2635089442639
61.3879088151014
61.515850686394
61.6451988514805
61.7737745412422
61.8993625824252
62.019712562209
62.1325416316867
62.2355390088235
62.3263722306249
62.4026951878373
62.462157953342
62.5024183874673
62.5211554699067
62.5160842692424
62.4849724179494
62.4256670358343
62.3383786846099
62.2286291329301
62.1026564958288
61.9666335340247
61.8266421826095
61.6886603733272
61.5585606867175
61.4421203145389
61.3450418512199
61.2729845582054
61.231605951294
61.2266138461787
61.2638293642096
61.3492618584069
61.4891972871585
61.6897703713537
61.9493717891442
62.2601541377625
62.6140222766923
63.0026696405683
63.4174645556917
63.8493566658843
64.2888055415712
64.7257345935657
65.149514230763
65.5489787132634
65.9124812591043
66.2279915495321
66.4832387329766
66.6659204926312
66.7687414979642
66.7960240006518
66.7542098920492
66.6501648133182
66.4910447648832
66.2841732595256
66.0369319663097
65.7566668054555
65.4506105491344
65.1258222048566
64.7891428322471
64.4471669794161
64.1062286175787
63.7724002887537
63.4515039435251
63.1481640345538
62.8636555590579
62.5985718538313
62.3535087053207
62.1290692652639
61.9258690807575
61.7445412722066
61.5857418976363
61.4501555473701
61.3385012192474
61.2515385315334
61.1900743386524
61.1549698240954
61.1471481555675
61.167602799994
61.217355508262
61.2951961398347
61.3967501699502
61.5174068839338
61.6525227605181
61.7973954867553
61.9472448747514
62.0972008939281
62.2422991351433
62.3774840800149
62.4976205561265
62.597513711744
62.6719377378837
62.7156733979838
62.7235541954991
62.6905212100663
62.6140816928942
62.4998673399931
62.3552161722003
62.1874400513662
62.0037634727324
61.811279717001
61.6169239434224
61.4274624696179
61.249497313514
61.0894850537496
60.9537691810691
60.8486253497631
60.7803192846941
60.7551775521821
60.7796719675211
60.8604631273909
60.9994803128147
61.18987337548
61.4239419276468
61.6939421079601
61.9919805648341
62.3099270206401
62.6393460317623
62.9714494368442
63.2970716734261
63.6066706095734
63.8903567318834
64.1379533927431
64.3390902839855
64.4833313173954
64.5605315109483
64.5681406084658
64.5133647964448
64.4043572638556
64.2494657245061
64.0571053925916
63.8356528790214
63.593362208505
63.3383031325958
63.0783211316399
62.8210179656555
62.5737513387747
62.3436521608378
62.1376579951048
61.9625615456731
61.8250734400971
61.7307176196265
61.6782226094026
61.6640046391618
61.6846342985168
61.7367994004537
61.8172690887674
61.9228620540242
62.050418428895
62.1967750703482
62.3587440532363
62.5330943007159
62.7165363638557
62.905710436806
63.0971777552109
63.2874155735327
63.4729572089528
63.6516310327709
63.8219965696363
63.98259899552
64.1319645618711
64.268605144862
64.3910235128438
64.4977193100738
64.5871957440033
64.6579669513089
64.708566004554
64.7375535070877
64.7435267088026
64.7251290600174
64.6810601054269
64.6108306485472
64.5183570086952
64.4091286264203
64.2885971680512
64.162151056921
64.0351014547434
63.9126772464074
63.8000286937109
63.7022394210071
63.6243464509891
63.5713681181051
63.5483398480605
63.5603580046
63.6126322725867
63.7105473769063
63.8585304835507
64.0527007704159
64.2855326114605
64.5494104737424
64.8365567157159
65.1389619095219
65.4483332332544
65.7560623865379
66.0532149545361
66.3305434132529
66.5785259914185
66.7874333350186
66.9474243161666
67.048671358077
67.0818364034553
67.0453262638161
66.9453589567272
66.7887832283715
66.5826369968198
66.3340394245363
66.0500969082137
65.7378241980852
65.4040811074939
65.0555246530995
64.6985759890411
64.3394011643731
63.9839045326055
63.6377335598656
63.3062937959411
62.9947540924062
62.7064132709626
62.4415004642556
62.1999673589916
61.9818056719771
61.7870482630158
61.6157704384267
61.4680914619822
61.3441762923046
61.2442375683324
61.1685378674144
61.1173922639839
61.0911712206722
61.0903038482266
61.1152815758158
61.1666622793465
61.2449331707725
61.3484739440379
61.4739915841071
61.6181428149072
61.7775565658605
61.9488146910631
62.1284362543821
62.3128654877714
62.4984635969563
62.6815046391659
62.8581757302171
63.0245818508334
63.1767555121711
63.3106715056109
63.422266899723
63.507551549986
63.5648381009953
63.5949800903181
63.5990303290323
63.5781082610188
63.533390966019
63.4661042369608
63.3775138360392
63.2689170230296
63.1416344374859
62.9970024041955
62.8363657188954
62.6610709590932
62.4724603531606
62.2718662298916
62.0606060606061
61.8403667353815
61.6143438860693
61.3860315858366
61.1588246001333
60.9360186247246
60.7208141448351
60.5163236437728
60.3255819177679
60.1515592951428
59.9971776106369
59.8653288486281
59.7588964416285
59.6807792930489
59.6339186868805
59.6213283536799
59.6461280851774
59.710665575407
59.8125843747205
59.9480217254244
60.1131615326671
60.3041934859038
60.5172760524148
60.7485041244829
60.9938812795109
61.2492967780972
61.5105075686891
61.7731256882094
62.0326115433824
62.284273623096
62.5232752224227
62.7446487474024
62.9435300836145
63.1178757177273
63.2677545068403
63.3933465803911
63.4948958464874
63.5727076272605
63.6271459584537
63.6586305890045
63.6676337186128
63.6546765128438
63.620325436182
63.5651884436659
63.4899110713192
63.3951724646049
63.2816813826204
63.1502399352035
63.0037920540848
62.847739548512
62.6875348987324
62.5285254616073
62.3759515875977
62.2349536512132
62.1105875515291
62.0078483215001
61.9317016218383
61.8871230842314
61.8791457095928
61.9129158236417
61.9937584530081
62.1272534249798
62.3193239573699
62.5735066618502
62.8833639666846
63.2400861702323
63.6346522441365
64.057697368221
64.4994040049001
64.9494188233601
65.3967990868659
65.8299931318613
66.2368602009466
66.6047350165564
66.9205419531848
67.170962342449
67.3426562216885
67.424128068136
67.4169437907536
67.3292617831925
67.1698067927273
66.9476420989574
66.6719943568326
66.3521007092297
65.9970808654949
65.6158352774032
65.2169692509096
64.8087418469006
64.3990377490547
63.9953598896109
63.6048404871735
63.23426822103
62.8899478618675
62.5748076942713
62.2890698848393
62.032923312693
61.8066140767502
61.6104499342348
61.4448051340612
61.3101257150988
61.2069353477177
61.1358418071388
61.0975441792715
61.0928409143135
61.1226388608914
61.1879634345291
61.2899700994898
61.4299573734482
61.6082815967181
61.8200958372968
62.0589048729275
62.3180815367784
62.590813287276
62.8700621050597
63.1485390649789
63.4186949327206
63.6727283263658
63.902613013401
64.1001457545709
64.2570157298249
64.3648959677525
64.4155563412384
64.4009966936496
64.3168731922244
64.1711969523897
63.9749121026865
63.7389848334543
63.4742538018353
63.1913185970278
62.9004656802695
62.6116299288588
62.3343891688161
62.0779888263927
61.8513939973349
61.6633667570921
61.5225673602457
61.437679071241
61.4175577295629
61.4711873429273
61.5997709198344
61.7943523939384
62.045497285976
62.3437873480955
62.679653960491
63.0432388316204
63.4242823280329
63.8120414527556
64.1952408653532
64.5620613421653
64.9001706175535
65.1968015001851
65.4388813833827
65.6132156402652
65.7084489324733
65.7271726370557
65.6789217839645
65.5736634306772
65.421572713058
65.2328745750184
65.0177164678438
64.7860732263811
64.5476838939223
64.3120192564926
64.0882782561923
63.8854112512494
63.7121682338161
63.5771705612057
63.4890054679181
63.4556601760672
63.4770854112333
63.5480251542941
63.663326467699
63.8179602083504
64.0069529014825
64.2253269949209
64.4680488300923
64.7299840417682
65.0058604222892
65.290238564272
65.5774908297046
65.8617893795343
66.1371041291591
66.3972186118159
66.637519329981
66.8574290375911
67.0569865173302
67.2362766231422
67.3954292974201
67.5346183694315
67.6540601496379
67.7540118361539
67.834769750925
67.8966674242566
67.9400735471096
67.9653898110781
67.9730486562039
67.963511003086
67.9375401431061
67.8968375370095
67.8433067620715
67.7788556797258
67.7053898333
67.6248069211787
67.5389923510453
67.4498158691689
67.3591292496006
67.2687650216087
67.1805362096456
67.0962370585096
67.0176447170253
66.9465218564038
66.8846569874742
66.8341872034301
66.7974457786913
66.7767728764502
66.77452385071
66.7930814646841
66.8348699076214
66.9023707402491
66.9981409461947
67.1248333222838
67.285219506325
67.4822160192815
67.7189137927272
67.9986117662917
68.3244026340463
68.6934374031393
69.0983471454311
69.5313988570354
69.9845119611424
70.4491938890208
70.9164936301822
71.3769759205336
71.8207191894924
72.2373406178652
72.6160516012233
72.9457464974608
73.2151266967206
73.4133129093978
73.5386427338674
73.5982280427213
73.5999241326618
73.5518879902336
73.4624592526226
73.3400577034969
73.193099090877
73.0299301808366
72.8587832511395
72.6877497027609
72.5247721293257
72.3776540287264
72.2540536753573
72.1576159462763
72.0843560896107
72.0294935094324
71.988309646191
71.9561269732132
71.9282942481934
71.9001778648174
71.8671592138266
71.824637993643
71.7680414090278
71.6928391628035
71.594564081371
71.4688381211713
71.3122285349166
71.1272691519679
70.9190262558815
70.6925175681009
70.4526740166551
70.2043189735899
69.952154506937
69.7007542823068
69.4545626947891
69.2178997951754
68.9949715911713
68.7898853498691
68.6066695984666
68.4492986130352
68.3212259883116
68.2220404793039
68.1495785476021
68.1017486499745
68.076526643294
68.0719418856562
68.0860647784052
68.1169956150399
68.1628546330633
68.2217731908117
68.2918860138106
68.3713244746995
68.4582108876024
68.5506538121985
68.6466946527023
68.7439626237803
68.8398748633917
68.9318186731151
69.0171545305836
69.0932200392463
69.157335948062
69.206814269362
69.2389685002893
69.2511259234667
69.2406419260977
69.2049162340463
69.1414109094135
69.0476699079133
68.922178535329
68.7684061533328
68.5915954056758
68.3969428585676
68.1895667096864
67.9744849842171
67.7566015032588
67.5406992557019
67.3314407458612
67.1333748752456
66.9509499430058
66.7885324111191
66.6504311732886
66.5409271880675
66.4641930745162
66.4208219321519
66.4072326161668
66.4196914880079
66.4545269139286
66.508102413695
66.5767940189851
66.6569716597691
66.7449844926366
66.8371501617204
66.9297480415145
67.0190165516656
67.1011546562717
67.1723276635255
67.2286803754387
67.2675340647097
67.2892175756826
67.2945529446271
67.2843874157786
67.2595894254027
67.2210447309842
67.1696527121391
67.1063228660698
67.0319715166384
66.9475187524859
66.8538856061352
66.7519914827267
66.6427518439909
66.527076150283
66.4059581965285
66.2812690297566
66.1553499565978
66.0305130719186
65.9090358256576
65.7931627140906
65.6851084949423
65.5870628737763
65.5011966206623
65.4296690915656
65.3746371481221
65.3382654924518
65.3227384605954
65.3302733493623
65.3631353543622
65.4224639348191
65.5051218420511
65.6070014324319
65.7239817339693
65.8519064589445
65.9865671233434
66.1236913647188
66.2589366275308
66.3878894351002
66.5060704882561
66.6089458202514
66.6919441931222
66.750480840354
66.7799875433619
66.7763259895557
66.7399995216854
66.6746175472037
66.5838980243204
66.4715833614113
66.3414145387169
66.1971094253376
66.0423453592924
65.8807459672141
65.715872129493
65.55121694631
65.3902045292221
65.2361924305285
65.0924775270253
64.9623051944223
64.8483547394994
64.7502200956792
64.6664144909977
64.5954842245136
64.5360041562957
64.4865723817976
64.4458055868761
64.4123350476674
64.3848032475829
64.3618610904445
64.3421656943312
64.3243787551663
64.3071654724677
64.289194032069
64.2691356420158
64.2461631156241
64.2218542283016
64.1985056373285
64.1784075852172
64.1638452594466
64.1571019271737
64.1604636946416
64.1762259004804
64.2067011688261
64.254229169993
64.3211881636417
64.4100084325093
64.5231877545758
64.66330910911
64.8330584618258
65.0334941619656
65.2608927499676
65.5106465817251
65.7780480538235
66.0582586475819
66.3462843935978
66.6369582328458
66.9249298922358
67.2046639933961
67.4704471655215
67.7164049271258
67.9365290275723
68.1247157880023
68.2748161182922
68.3825323165908
68.4497715020673
68.479873364663
68.4763188248983
68.4426938737111
68.3826562701493
68.299905584028
68.1981569369206
68.0811186716386
67.9524740715683
67.8158671594548
67.6748925319008
67.5330891314136
67.3939378219982
67.2605264084525
67.1335170367808
67.0125389710873
66.8972253398951
66.7872166519967
66.6821602123362
66.5817095834987
66.4855240904479
66.3932683663954
66.3046119379049
66.2192288475326
66.1367973124815
66.0569994179037
65.9795208436278
65.9040553216096
65.8308669255444
65.7613170565882
65.6968825270533
65.6390304193411
65.5892207400482
65.5489097158804
65.5195537308931
65.5026139113542
65.4995613725331
65.5118831510099
65.5410888568108
65.5887180919474
65.6563486960261
65.7456058957734
65.8578812202929
65.9910988773981
66.1408366796125
66.3025764729862
66.4717256770815
66.6436031901076
66.8134316367007
66.9763362891283
67.1273510222261
67.2614316506917
67.3734769404266
67.4583574799622
67.5109524414098
67.5261940528275
67.4992431572832
67.4293108805022
67.3203401078918
67.176630391854
67.0025287622632
66.8023890260391
66.5805366076714
66.3412391306898
66.088682767952
65.8269542480507
65.5600282970542
65.2917602184041
65.0258832670167
64.7660104536044
64.5156404186626
64.2781172122552
64.0557075151974
63.8497247608226
63.6614328219392
63.4920880036154
63.3429470049295
63.2152753644294
63.1103564361621
63.029500958608
62.97405729587
62.945422449451
62.9450539604262
62.9744828464317
63.035327746446
63.1293104798194
63.2582266789774
63.4214005545963
63.6142908652292
63.8320000516989
64.0695529665769
64.3218599754485
64.5836874563472
64.8496361217582
65.1141277692061
65.3714011981577
65.6155181045722
65.8403797696417
66.0397552848709
66.2073218909058
66.3367177439779
66.4226867982072
66.4663938273077
66.4714616304127
66.4416622727391
66.3808722557051
66.2930343876261
66.1821237722277
66.0521183015317
65.9069738846892
65.750604509679
65.5868671234192
65.4195512291449
65.2523730379446
65.0889739732394
64.9329230057873
64.7872419196437
64.6534535446714
64.5327932923354
64.4264914137148
64.3357784957958
64.2618914255605
64.2060798473894
64.1696131496424
64.1537880277481
64.1599366839185
64.1894357380173
64.2437159404924
64.3242727970821
64.4326782367675
64.5705807647353
64.7375728557781
64.9287136275961
65.1384110859459
65.3609604314547
65.5905149623902
65.8210668110002
66.0464381815884
66.260283874474
66.4561059142375
66.6272810414884
66.7671016631959
66.8688305780329
66.9257693955602
66.9313400541789
66.8808786298091
66.7799138606651
66.63772331617
66.4636140746503
66.2668178258367
66.0564171363784
65.8412976213638
65.6301250358357
65.4313459095893
65.2532102390863
65.1038148928646
64.9911667529143
64.9232651831855
64.9082041797853
64.9542931591306
65.0664439770075
65.2385729295648
65.4626435671812
65.7306582769186
66.0345351393304
66.3660036633492
66.7165192982199
67.0771976378706
67.4387700747423
67.7915633109556
68.1255055571394
68.4301623888727
68.6948050231135
68.9085228027167
69.0642393702319
69.1648808796582
69.2152219636759
69.2203022682143
69.1853563444581
69.1157492152161
69.0169188877488
68.894326714708
68.7534161646935
68.5995802682013
68.4381377623445
68.2743177730715
68.1132527473826
67.9599792622519
67.8188723486436
67.6921603013032
67.5815802745833
67.4888664921949
67.4157592780969
67.3640150031206
67.3354170067356
67.3317875769631
67.3550010981298
67.4069985065884
67.4898032295912
67.6055388232978
67.7564485738407
67.9449173822533
68.1721743622834
68.4325311043462
68.717862533831
69.0198224368823
69.3297906188068
69.6388385889535
69.9377170468377
70.2168672720158
70.4664585589917
70.6764535908963
70.8367030704984
70.9370699949345
70.9675826651027
70.9187738416022
70.7889372617911
70.5868981753829
70.3224991775401
70.0056785633271
69.6463162566034
69.2541079150133
68.8384677358984
68.4084592116572
67.9727521568566
67.5396037408789
67.1168609743397
66.7119820682678
66.3320742622274
65.9839460546233
65.6733739400854
65.4003812327739
65.1626766121369
64.9581235574926
64.7847293991072
64.6406268105936
64.5240573111203
64.4333564970336
64.3669407678424
64.3232953494408
64.3009634493805
64.2985364060601
64.3146447168003
64.347949849622
64.3971367607491
64.4606114313222
64.5352149827504
64.6172518861915
64.7029954364655
64.7886815223691
64.8705063822594
64.9446287861449
65.0071767595358
65.0542589426725
65.0819806339342
65.0864644977417
65.0638758253787
65.0104521231629
64.922536668958
64.7966170725304
64.6317954344476
64.4346499455909
64.2130881828629
63.9748806562439
63.7276135116901
63.4786602582156
63.2351714151036
63.0040808007081
62.7921271819665
62.6058901506767
62.4518393680965
62.3363967081388
62.2660113239693
62.2472482659394
62.2868920058613
62.391156572981
62.5568399468306
62.7749728466123
63.0365284120256
63.3323630051996
63.6530968900806
63.9890202189906
64.3300258806958
64.665571829417
64.9846762577207
65.275949329985
65.5276650681484
65.7278762826319
65.8645740874671
65.9258984437109
65.9054153254905
65.811166716404
65.6540018191258
65.4449744736301
65.1951551898818
64.9154799122804
64.6166367458542
64.3089900379074
64.0025399182884
63.7069146434657
63.4313928142957
63.184952677448
62.9763462075859
62.8141964447986
62.7071175937104
62.662405406085
62.6773288159712
62.7450250897591
62.8588455714501
63.0122670792795
63.1988006950537
63.4119143823045
63.6449687376551
63.8911658048702
64.1435113948806
64.3947917614492
64.6375657742417
64.8641738936982
65.0667652643201
65.2373454725091
65.3700541314492
65.4657771561053
65.5268112357756
65.5555878882128
65.5546482172643
65.5266187389651
65.474188656595
65.4000888953214
65.3070731376319
65.1979010344238
65.0753237054448
64.9420715883197
64.800844648714
64.6543049258418
64.5050722358368
64.3558679662023
64.2096750934615
64.0694623760213
63.9381486395987
63.8186098795729
63.7136888961979
63.6262073970105
63.5589805421672
63.5148339586285
63.4966233084388
63.5072565657345
63.5497192381027
63.6271028628328
63.7426372207514
63.8997158105073
64.0991719422011
64.3355531667071
64.6024542606296
64.8933395137445
65.2014836665162
65.5199253968925
65.8414343080079
66.1584927426309
66.4632940109792
66.7477587420357
67.0035710256123
67.2222357723471
67.3951582539772
67.5137460781322
67.5717266624786
67.572731192245
67.5233350284315
67.4303213017679
67.3005873859276
67.1410641134985
66.9586488156542
66.7601527176174
66.5522627127254
66.3415171531317
66.1342950363638
65.9368178283764
65.7551631353699
65.5952895067663
65.4630193071328
65.3604690220779
65.2838035921778
65.2287346121549
65.1910506071919
65.1665919295527
65.1512312454892
65.1408593965779
65.1313765103943
65.1186882968995
65.0987075003527
65.0673604825547
65.020598892106
64.954416326538
64.8648698205494
64.7483211900068
64.6061777374306
64.44479344855
64.2706551770801
64.090135431528
63.9094743754199
63.7347743904422
63.5720065310581
63.4270282096136
63.3056115526649
63.213482053477
63.1563674066449
63.1400567473427
63.1704709346261
63.2537450279061
63.3962205287882
63.5988144379017
63.8539108205586
64.1531706666258
64.4881196964272
64.8500350669075
65.2298530151147
65.6180988918638
66.0048420280454
66.3796786312117
66.731746373229
67.0497744220701
67.3221723019239
67.5371600481976
67.6829525398316
67.7527642930224
67.7523729037159
67.6898998218809
67.5737790713448
67.4126149448234
67.2150589586367
66.9897082047585
66.7450260644654
66.4892852907003
66.2305327510032
65.9765746519138
65.7349808251738
65.5131066223906
65.3181311113271
65.1569689232736
65.0320410854933
64.9406265262291
64.879841540259
64.8469143812631
64.8391605726946
64.8539610819646
64.8887430518108
64.9409628577514
65.0080913240842
65.0876009849317
65.1769553227733
65.2735999557065
65.3749557769018
65.4784140756555
65.5815549916384
65.6836712806167
65.7848728143794
65.8852759025188
65.9849984247965
66.0841598101644
66.1828810198108
66.2812845343864
66.3794943455577
66.4776359520409
66.5758363602638
66.6742240898074
66.7729291837788
66.8720832242702
66.9717838525856
67.0710092567572
67.1674024084512
67.2585036347318
67.3418287177836
67.4148736146965
67.4751210591303
67.5200490621984
67.5471413064016
67.553899396984
67.5378568999596
67.4965950558408
67.4277600136243
67.3290813820499
67.1983973473662
67.035865975017
66.8472530132719
66.6391240958761
66.4179319904419
66.1899865936845
65.9614375409544
65.7382687369304
65.526304032762
65.3312232850434
65.1585881226524
65.0138769087879
64.9025286101134
64.8299955691414
64.8018055210152
64.8235424000678
64.8959246941939
65.0122034236886
65.1650868551432
65.3472824070941
65.5514207559424
65.7699959546932
65.9953218243922
66.2195053814582
66.4344384172563
66.6318085345419
66.8031309469126
66.9398021374406
67.0331760290386
67.0746626954151
67.0582513182387
66.9869557326907
66.8660244107088
66.7008695107431
66.4969931983411
66.259921888808
65.9951492932919
65.7080887395734
65.4040348840821
65.0881346412584
64.7653669335799
64.4405307090466
64.118240577993
63.8029293809931
63.4988570065692
63.2098691008936
62.9383355623463
62.6861197567242
62.4550475207524
62.2469207300633
62.0635314773049
61.906677198181
61.7781768345103
61.6798881634274
61.6137264660069
61.5816847582137
61.5858558639052
61.6284566758081
61.7118550287527
61.838599703484
62.0113438240488
62.2288247088164
62.4845608330495
62.7716425473721
63.0829926680483
63.4112987792173
63.7489606581494
64.0880541823801
64.4203135508634
64.7371339676941
65.0295970593114
65.2885211802549
65.504538363241
65.6681989481822
65.7701038600176
65.8025398023245
65.7686496618946
65.6764969523564
65.534413539982
65.3508467979787
65.1342448362743
64.8929633350163
64.6351945393338
64.3689180998451
64.1018728144663
63.8415479373736
63.5951925516123
63.3698415265866
63.1723567728324
63.009482839605
62.8876245124073
62.8081493477493
62.7682686527695
62.7652263319561
62.7964035428532
62.8592890266569
62.9514524265835
63.0705201699679
63.2141535837133
63.3800289928647
63.5658196217316
63.7691791783988
63.9877270583151
64.2190351521011
64.4606162875041
64.7098685296435
64.9636130552815
65.2182642359274
65.4701183744748
65.7153579742728
65.9500561449812
66.170185748344
66.3716335850807
66.5502198683737
66.701723145073
66.8219107113535
66.9065744250917
66.9515716444333
66.9528708248088
66.9066822817507
66.8139409880501
66.6825447904264
66.5209834968106
66.33768735526
66.1409629933916
65.9389509466734
65.739604040529
65.5506855662648
65.379786081912
65.2343577554237
65.1217654284476
65.0493539979804
65.0245322832255
65.0548742709766
65.1476253748792
65.3009800085596
65.5059840635542
65.7535211379017
66.034372201477
66.3391038006188
66.6579811224283
66.9809072889543
67.2973911867567
67.5965467659928
67.8671270075233
68.0975955827243
68.2762385418673
68.3913171005413
68.431837031083
68.3972349348829
68.2959404004093
68.1369775645484
67.9295333181475
67.6828183453096
67.405952516911
67.1078755989892
66.7972831022896
66.4825862564435
66.1718945403965
65.8730189190346
65.5934938921607
65.340616619833
65.1215017135964
64.9423674989482
64.8038772403964
64.7044348080028
64.6425934287919
64.6170492036636
64.6266267688863
64.6702665168608
64.7470131508903
64.8560053808355
64.9964665932016
65.1676963513833
65.3690626002688
65.5999944648278
65.8599755452007
66.1485143506942
66.4630335739155
66.7970721021087
67.1435319023171
67.4950248332462
67.8438493620279
68.1819839057245
68.5010986811803
68.7925879558454
69.0476243998501
69.2572368129492
69.4124118139694
69.5042191252796
69.5239588738727
69.4636234788053
69.3236552923571
69.1135361392476
68.8434201179718
68.5235192051857
68.1639486986184
67.7746033110096
67.3650640598139
66.9445348008579
66.5218063515304
66.1052456171448
65.7028069277311
65.3220628565035
64.9702520697497
64.6543422013214
64.3807435448164
64.1502457573715
63.9594635334645
63.8051161363444
63.6841070569814
63.5934912030878
63.5304461208529
63.4922467038805
63.4762429584494
63.4798404891776
63.5004834484283
63.5356397593138
63.5827884781587
63.6394092093409
63.7029735246725
63.7709656742871
63.8413967213099
63.9127651488917
63.983575036905
64.0523172221855
64.1174698826395
64.1774998451915
64.230864631412
64.2760152513534
64.3113997512835
64.3354675146238
64.3466743074813
64.3434880507599
64.3243952900409
64.2879083223868
64.2327362899902
64.160128748221
64.0733055643764
63.9755265633834
63.8700265255991
63.7600059513206
63.6486251199962
63.5390013574544
63.4342094068905
63.3372847951042
63.2512300937593
63.1790239954376
63.1236331553474
63.0880267913667
63.0751940876584
63.0881074572541
63.1272150797744
63.1894342077732
63.271447297512
63.369943205525
63.4815978687763
63.6030584183555
63.7309307248585
63.8617704368753
63.9920776225188
64.1182951571994
64.2368110179002
64.3439646437754
64.4360575035708
64.5093679708917
64.5602701004759
64.5874494737252
64.5919299383854
64.5748849203177
64.5375299860203
64.4811150310819
64.4069167759015
64.31623163503
64.2103690155805
64.090645089369
63.9583770730236
63.8148780404461
63.6614522828816
63.4993912235712
63.3299698866146
63.1544549445578
62.9748597456692
62.7944085347545
62.6163688591741
62.4439347769992
62.2802314634099
62.1283229151191
61.9912225949889
61.8719068987389
61.7733313762415
61.6984497009412
61.650235452596
61.6317068616937
61.6459547602472
61.6961740959089
61.7856994983644
61.9173129835311
62.0882208664565
62.29296747352
62.5260491439096
62.781872370471
63.0547051865031
63.3386380474989
63.6275547877673
63.9151145105545
64.1947454757857
64.4596521684106
64.7028367453876
64.9171359515149
65.0952743453021
65.2299346961687
65.3159345424148
65.3551906045602
65.3512760755492
65.3079435359627
65.2290776680822
65.118651216606
64.9806849317341
64.8192120315397
64.6382475338737
64.4417626404216
64.2336642116289
64.017779253665
63.7978442482948
63.5774990929372
63.360285379773
63.1495671446946
62.9481904448794
62.7587918042578
62.583952778286
62.4262116970666
62.2880772504003
62.1720439801586
62.080609704634
62.016294956018
61.9816645758435
61.9793516855809
62.0120843326705
62.0827152090061
62.1942549530856
62.3499096838203
62.552836422728
62.8006957851998
63.085885835728
63.4004531020451
63.736198369755
64.0846054453158
64.4367903842592
64.7834734123485
65.114976270122
65.4212479499158
65.6919217057429
65.9164057331946
66.0840089799137
66.1841021218313
66.2063119359711
66.1444751210013
66.006612315811
65.8042373503696
65.5490218855962
65.252594639936
64.9263819393412
64.5814903554877
64.2286301922666
63.8780772146801
63.5396692558103
63.2228341157408
62.9366453939674
62.6899034886773
62.4912398827137
62.3492439727559
62.2719501241295
62.2586787839029
62.3026542237847
62.3972614483784
62.536073831583
62.7127532341412
62.9209641645249
63.1543008256565
63.406226582195
63.6700259625408
63.9387697885333
64.2052944043347
64.4621962446722
64.7018431241842
64.9164036215242
65.0988311018635
65.2480589667099
65.3655119474467
65.4527427387038
65.5114107065758
65.5432665389116
65.5501371781853
65.533911258526
65.4965252399523
65.4399504028918
65.3661808357924
65.2772225190469
65.1750835803853
65.0617657710132
64.9392572433786
64.809794366669
64.6764699769641
64.5425120622269
64.4110961636571
64.2853465715225
64.1683405665107
64.0631155863988
63.9726792217235
63.9000219790525
63.8481327959717
63.820017347983
63.8187192546513
63.8473443716893
63.9090884491474
64.0072681364393
64.1433362198996
64.3121557863622
64.5071817919745
64.7217781837153
64.9491687692613
65.182401411758
65.4143262819328
65.6375891676471
65.8446409841323
66.0277646288962
66.1791201636732
66.2908089636602
66.3549569396682
66.3638162110468
66.3104266813537
66.1964975236934
66.0305163363169
65.8212532591308
65.5774640411002
65.3077905067563
65.0206847384364
64.7243565364998
64.4267430328816
64.1354989090587
63.8580054848673
63.6013969686317
63.3726023591267
63.1784018369507
63.0254969552741
62.9205092601463
62.8654199577065
62.855273814326
62.8847363871192
62.9486175189727
63.0418097976817
63.1592361634701
63.2958059937009
63.4463793274959
63.6057391659817
63.7685720019171
63.9294568970552
64.0828635348871
64.2231597259845
64.3446288271205
64.4415982940181
64.5115584886588
64.5557933409611
64.5758736569591
64.5734311201586
64.5501464335437
64.5077380524428
64.4479516269865
64.3725502505462
64.2833055888352
64.1819899438144
64.0703692876409
63.9501972849292
63.8232103068097
63.6911234277848
63.5556303046735
63.4185600614652
63.2819544397756
63.1478403905819
63.0182108121213
62.8950269377207
62.7802219283081
62.6757056254533
62.5833704319422
62.5050983007899
62.4427688301722
62.3982684810345
62.3735009562732
62.3703988056723
62.3909363496616
62.4371440480916
62.5102160831955
62.6074210771938
62.7249493905318
62.8589769513631
63.0056422318606
63.1610277598399
63.3211462795523
63.4819317305108
63.639235275325
63.7888266445896
63.9264010764811
64.0475921080825
64.1479904218382
64.2231688617416
64.268713648609
64.2816961352443
64.2644989985286
64.2207765802173
64.1542355407434
64.0686066410925
63.967620688192
63.8549888057412
63.7343870865983
63.6094455979157
63.4837416469225
63.3607971734214
63.2440801138438
63.1370095798615
63.0429647107163
62.965297091338
62.9068683801868
62.8667990396828
62.8424764811164
62.8313120094761
62.8307394583612
62.8382054946056
62.851162044044
62.8670608006191
62.883349803382
62.8974720811401
62.9068663726544
62.9089699313726
62.9012234176649
62.8810778683725
62.8460037132502
62.7936454901611
62.7249876448763
62.6443223621058
62.5560586729409
62.4645649047373
62.3741612966707
62.2891186839544
62.2136630781783
62.1519859814297
62.1082603151262
62.0866619194675
62.0913966856066
62.1267335209129
62.1970435207386
62.3068459329627
62.4608579197048
62.6612567468667
62.902658449399
63.1783227436344
63.4813789608762
63.8047540385316
64.1411145644006
64.4828239221875
64.8219160949017
65.1500880583126
65.4587129088862
65.7388758809843
65.9814351739044
66.1771089902375
66.3165893531474
66.3913952065314
66.4019363580775
66.3547046907717
66.2565821518568
66.1146271018913
65.9359754314206
65.7277559989186
65.4970214045614
65.2506944319282
64.9955299434716
64.7380916141104
64.4847426280013
64.2416493362558
64.0147968636561
63.8100157445447
63.6327864661804
63.4849744749857
63.3657153835363
63.274157617802
63.2095303692451
63.1711374249461
63.1583516391056
63.1706099716143
63.2074090289188
63.2683010505637
63.3528902917644
63.4608297583544
63.5918182555856
63.7455977166861
63.921950780884
64.1205520171891
64.338844603163
64.5724494856861
64.8168310671651
65.0673240112511
65.3191196233976
65.5672589584229
65.8066332184975
66.0319920336249
66.2379601964751
66.4190633473592
66.5697629668762
66.6845008288538
66.7577527932231
66.7841087040937
66.7612335093973
66.6931530550246
66.5848354318938
66.4413444154481
66.2677835162647
66.0692474221831
65.8507812709066
65.6173479102594
65.3738030710404
65.1248781978445
64.875170556027
64.6291401553428
64.3911129982531
64.1652901681828
63.9557570736794
63.7656281292921
63.5961157197052
63.4482040931665
63.3228969561699
63.2212251427399
63.1442547429881
63.09309576769
63.0689114396545
63.0729282187104
63.1064466857166
63.1708534327081
63.2676341318602
63.3983879862967
63.5648438020083
63.7688725123285
64.0103087924379
64.2834866636041
64.5817534573884
64.8982596127785
65.2259085709073
65.5573206893034
65.8848125928518
66.2003936743367
66.495781607447
66.7624387070766
66.9916307309783
67.1745092316258
67.3022178154361
67.3660216436464
67.3593614440395
67.2861761356177
67.1540969698595
66.9709782538582
66.7447702198675
66.483411320338
66.1947392957428
65.8864215161999
65.5659043262169
65.2403805467199
64.916773907069
64.6017389770971
64.301675123433
64.0227531009892
63.7709530860519
63.5514375617494
63.3649786037961
63.2107156849323
63.0878913326789
62.9958489585086
62.9340272522848
62.901955377685
62.899248896964
62.925606364999
62.9808065427469
63.0647061892806
63.1772383996882
63.3184114634933
63.4883082250591
63.6870859338198
63.9145206254446
64.1668404140545
64.4384867206325
64.7237314249462
65.0166548541896
65.3111237617107
65.6007801604091
65.8790420842641
66.1391174115159
66.3740318396794
66.5766719386022
66.7398439079921
66.8563482201713
66.9190697358125
66.9213011998825
66.8635206813548
66.7546019481947
66.6040302029137
66.4213070371789
66.215847589067
65.9969050497163
65.7735221409855
65.5545084643817
65.3484422223306
65.1636947107494
65.0084761445087
64.890901773692
64.8190778558814
64.8012078595905
64.8450113820455
64.9489187297723
65.1046869921965
65.3040306232432
65.5386490774639
65.800122557557
66.0798282339623
66.3688774076909
66.6580749074277
66.9379026160334
67.1985293816188
67.4298496411966
67.6215528199527
67.76322491803
67.8447517237819
67.8634204918722
67.8246618683632
67.7345825140801
67.599477437425
67.4257422367185
67.2197961368955
66.9880168738264
66.7366879296718
66.4719581613837
66.1998135024384
65.9260601573613
65.6563185454236
65.3960271756486
65.1504556393646
64.9244374223101
64.7199206205799
64.5372896469782
64.3769398967791
64.2392986236325
64.1248286045121
64.0340320394405
63.9674547261095
63.9256905542403
63.9093863700321
63.9192472675005
63.9560423710644
64.020611182615
64.1138705767439
64.2368225401216
64.390437607561
64.574798273553
64.7896002921648
65.0346057882497
65.3096421576982
65.6145986415078
65.9494232580974
66.3141200490858
66.7087465980444
67.1334117852637
67.5882737444315
68.073537989382
68.5894556807974
69.1363220039785
69.7133568190947
70.3137077354538
70.9280114868493
71.546224738489
72.157584774802
72.7505989701461
73.3130699256179
73.8321620100616
74.2945145592738
74.6864058104183
74.9939696699834
75.2034645843246
75.3016072919388
75.2827858022641
75.1597564081166
74.9487218877153
74.6662331972328
74.32884799609
73.9528613887121
73.5541111677164
73.1478556351586
72.7487192729069
72.3707000672721
72.0272320044373
71.7312969428248
71.4955815499665
71.3312066794693
71.2352643742949
71.1973245625874
71.2072311157599
71.2550395978808
71.3308971824368
71.4249509468878
71.5272835044472
71.627875845325
71.7165978528642
71.7832272354826
71.8174975616721
71.8091756876561
71.7482781097685
71.6312030793299
71.4638176160277
71.2528691283453
71.0051332031329
70.7273404130006
70.4261161497985
70.1079335821908
69.7790794205863
69.4456318658077
69.113449915202
68.7881730926314
68.4752306452778
68.1798592977321
67.9071158899307
67.6597646465684
67.4359895300387
67.2334884467522
67.0500492822324
66.8835368376595
66.731881487186
66.5930693949279
66.4651341604066
66.3461497859373
66.2342248797744
66.1274980253124
66.024134259754
65.9223226157303
65.8202746866761
65.7163004869335
65.6097642100913
65.5007806740222
65.389480308132
65.2759925344962
65.1604456887757
65.0429669466724
64.9236822558542
64.8027162732692
64.6801923077563
64.5562322678549
64.430956614703
64.3044843199097
64.1769328282798
64.0484180252653
63.9190955347296
63.7896774616837
63.6612656027823
63.5349529146486
63.4118151743129
63.2929119631366
63.1792879974255
63.0719747931897
62.9719926546914
62.8803529790129
62.798060871871
62.7261180732803
62.6655261954471
62.6172902794575
62.5824226819508
62.5619363600456
62.5558693485258
62.5625117315562
62.5799862922841
62.6064242803757
62.6399594817807
62.6787234098291
62.7208416074248
62.7644310607817
62.8075987330555
62.8484412313514
62.8850456228964
62.9154914155838
62.9378537145617
62.9502075599743
62.9506334633584
62.9380138198442
62.9141225016726
62.8813950884174
62.8422660891039
62.7991630714804
62.7545026799173
62.7106885297315
62.6701109559203
62.6351485905405
62.6081717451477
62.5915475826753
62.5876470767827
62.5988537760157
62.6275744152436
62.6762514480597
62.7471244500716
62.8400404396698
62.9535077509065
63.0860383583738
63.2361531855831
63.4023730132698
63.5832100739029
63.7771603023046
63.982696228627
64.198260515029
64.4222601513919
64.6530613383641
64.8889850979212
65.1283036624012
65.3692377072215
65.610126135844
65.8498883618419
66.0875570504042
66.3221381164694
66.5526112582605
66.7779308153181
66.9970269704463
67.2088073138653
67.4121587862293
67.6059500149702
67.7890340556361
67.9602515464818
68.1184342805256
68.262409194612
68.3912918434836
68.50548016767
68.6057494458623
68.692903073392
68.7677693097711
68.8311981566604
68.8840583811301
68.927234705925
68.9616251856438
68.9881387850027
69.0076931727314
69.0212127421802
69.0296268674423
69.0338683613024
69.034673750048
69.032122082887
69.0261569354172
69.0167229240437
69.0037657616247
68.9872323131615
68.9670706514404
68.9432301125322
68.9156613510524
68.8843163950853
68.8491487006694
68.8101132057448
68.7671663834567
68.7202665796825
68.6698244923626
68.6176115571998
68.5656453012526
68.5159311546054
68.470463202291
68.431226097434
68.4001981214352
68.3793553831168
68.3706771575912
68.3761523772305
68.3977873015586
68.4376144103291
68.4977025847501
68.5801678510112
68.6858920680263
68.8118787845778
68.9543807920294
69.1096141044458
69.2737413737543
69.4428593722982
69.6129906863979
69.7800798150554
69.939993898967
70.0885283147296
70.2214173554496
70.3343501797914
70.4229921450847
70.4831474406673
70.5142955693541
70.5199353253459
70.5038265664043
70.4697675395784
70.421573554831
70.3630596953867
70.2980276525096
70.2302567034844
70.1634988013346
70.1014777134389
70.0478921334208
70.0064226959264
69.9807428465813
69.9740627409703
69.9855183843431
70.0121614727725
70.051039811837
70.0992031483006
70.1536940575828
70.211541310729
70.269755731625
70.3253285744087
70.3752324614102
70.4164249232812
70.445854574995
70.4604699438577
70.4572324122842
70.4341966093925
70.3924000514894
70.3334102721424
70.2588113511263
70.1701966504993
70.0691622351108
69.9573010064224
69.8361975668691
69.7074238216253
69.5725353156635
69.433068296451
69.2905374865373
69.1464345456076
69.0022286262721
68.859604941444
68.7207276387706
68.5877908561234
68.4629566854197
68.3483597991091
68.246113374266
68.1583162864327
68.0870615626838
68.0344461038436
68.002581709487
67.9936074665739
68.0097035937287
68.0531068689409
68.1261253417339
68.2293651585793
68.3585403446717
68.5085075321082
68.6740746461752
68.849972479874
69.0308340023006
69.2111816916255
69.3854232952007
69.5478564792178
69.6926828331277
69.8140316338846
69.9059936466127
69.9626650378124
69.9783246214327
69.9519947455863
69.8887442636812
69.7941172026108
69.6736940756151
69.5330468976546
69.3777031231819
69.2131185906712
69.0446593489657
68.8775920924119
68.7170828434317
68.5682034891536
68.4359457985015
68.3252426132068
68.2409374807078
68.1846213910436
68.1530339444623
68.1425790171024
68.1497089294198
68.1709042952383
68.2026576531089
68.2414607636082
68.2837955195721
68.3261284634935
68.364908937895
68.396570910455
68.4175385157815
68.4242353396724
68.4131330646265
68.3832270502646
68.3376292031933
68.2798375758946
68.2133427273119
68.1416171316202
68.0681081678529
67.9962346459438
67.9293868026002
67.8709296932998
67.8242099140551
67.7925656078919
67.7793397458419
67.7878967206023
67.8216371998582
67.8819554394361
67.965071959985
68.0664035376991
68.1813458289345
68.3052514580348
68.4334142723637
68.5610599037335
68.6833428491368
68.7953503211647
68.8921131172943
68.9686237146076
69.0198617100564
69.0408265946959
69.0266034848177
68.9755021893721
68.8919986305339
68.7813184473295
68.648695299691
68.4993342119233
68.3383829458745
68.1709113683955
68.0018986233127
67.8362278153885
67.6786878603418
67.5339821474452
67.4067436955432
67.3015565558398
67.2229833226295
67.174349277018
67.1535474059745
67.1570420216009
67.1813541308961
67.2230380710285
67.2786618371887
67.3447909914009
67.4179760763372
67.4947435200095
67.5715900639829
67.6449807796173
67.7113507535354
67.7671105244577
67.8086553380995
67.8328552440585
67.8399829128636
67.8318029890221
67.810106675152
67.7766982793775
67.7333885326724
67.6819888516672
67.6243065664845
67.5621411214439
67.4972812468949
67.4315030930526
67.3665693115222
67.3042290671653
67.2462189620223
67.1942014557635
67.1485684192959
67.1085503708624
67.073341094999
67.042140010802
67.0141511195801
66.988582146711
66.9646438743782
66.9415496626282
66.9185151567605
66.8947581794475
66.8694988061822
66.8419596226674
66.8113661626015
66.7769496662922
66.7388042756525
66.6991904291661
66.6606945801768
66.6258913928498
66.5973456156716
66.5776159288287
66.5692607544963
66.5748460346851
66.5969550032851
66.638200007482
66.7012364692238
66.7887791205544
66.9036206984571
67.0486533468231
67.2260246847327
67.4323898761172
67.6621532199439
67.9096084231577
68.1689073820359
68.4340327932384
68.6987806980577
68.956753752688
69.2013661203851
69.425860900937
69.6233409357712
69.7868136405424
69.9092502110407
69.983663238683
70.0061791393027
69.9813878796959
69.9154817216157
69.8147670360203
69.6855966272257
69.5343131156268
69.3672038758269
69.1904676434042
69.0101926076803
68.8323456022121
68.6627718868218
68.5072049791661
68.371286033063
68.2605920458218
68.179095455559
68.125567792734
68.0977755183806
68.0935537625792
68.1107907368695
68.1474137693174
68.2013768138683
68.2706493215622
68.3532063922677
68.4470201525649
68.5500523288052
68.6602480045679
68.7755305689502
68.8937977663425
69.0128391063496
69.1301915033642
69.2433203627455
69.3496592438036
69.4466137963631
69.5315676594863
69.6018903593212
69.6549472214842
69.6881112853314
69.6987771730579
69.684376826193
69.6423969764351
69.570398167934
69.4660684723781
69.32954099916
69.1648400429925
68.9763442119531
68.7683982569667
68.5452870064788
68.3112149243217
68.0702911524719
67.8265198111152
67.5837952687543
67.3459020628414
67.1165191438548
66.8992281299213
66.697525292133
66.5148370401128
66.3541296478257
66.2159679754489
66.1000902512016
66.0062792756454
65.9343625545722
65.8842114624551
65.8557406272254
65.8489075307727
65.8637123215762
65.9001978378465
65.958449841491
66.0385974651689
66.1408138766787
66.2653171669683
66.4123095721253
66.5797079229061
66.7624274888828
66.9550974917765
67.1522321568693
67.3482179529157
67.5373099105862
67.7136375814944
67.8712211974451
68.0039985145141
68.1058626721491
68.170711159016
68.1925056539672
68.1653421069409
68.0835960308273
67.9465544052952
67.7613038897297
67.5357043607563
67.2775845539427
66.9946612662799
66.6944771182459
66.3843564815681
66.0713786852539
65.762367298368
65.4638941378674
65.182296642665
64.9237073686654
64.6940945731234
64.4993131536426
64.3450738065518
64.2336794735646
64.1631886816108
64.1315499168088
64.1368647421889
64.1773656453152
64.2513960726821
64.3573922966957
64.493866818346
64.6593930565314
64.8525911153886
65.0721144554929
65.3166373247089
65.5848428308299
65.8754115617938
66.186719273862
66.5152124208981
66.8564536673671
67.2058262389922
67.558518576294
67.9095134522922
68.2535841328121
68.5852983852476
68.8990311565062
69.1889867001855
69.4492308270192
69.6737337726423
69.8564239165752
69.991256602967
70.0754522722416
70.1151829893837
70.1183373600241
70.0929398000399
70.0470760888585
69.9888369918331
69.9262804809353
69.8674126289634
69.8201869776532
69.792522085325
69.7923370411667
69.8276049869226
69.9064251128348
70.0369320188706
70.2207226866107
70.4508297541993
70.7197124641992
71.0197277600065
71.3430502330391
71.681607778518
72.0270338401456
72.37063767389
72.7033944656339
73.01595736947
73.2986935569426
73.5417461423486
73.7352570049534
73.8754291827188
73.9670931913851
74.0159613291227
74.0279408384472
74.009070037859
73.9654630730542
73.9032641344646
73.8286116471462
73.7476126581897
73.6663274336214
73.590764134504
73.5268833707145
73.4805667248722
73.4544851703325
73.4460870317861
73.4523648008383
73.4703291602277
73.4969982426632
73.5293893378139
73.5645130213418
73.5993697040693
73.6309486152981
73.656229241964
73.6721852446068
73.675790861946
73.6640543566439
73.6362265463097
73.5955387063127
73.5456324974918
73.4901390830383
73.432671865425
73.3768228093434
73.3261623047749
73.2842425165772
73.2546041736623
73.2407867715984
73.2463421970666
73.2748518311174
73.3299370117366
73.4127275804006
73.5184767279647
73.6415909470586
73.7764307992954
73.9172881758512
74.0583721473852
74.193803680464
74.3176195632228
74.4237858896416
74.5062213953005
74.5588308139467
74.5755482314119
74.5504529086538
74.4821583880553
74.3766102176408
74.2404752943724
74.080413373737
73.9030291888851
73.7148366434023
73.5222349090893
73.3314960410264
73.1487635929164
72.9800616706764
72.8313138943361
72.7083718402978
72.6170512708896
72.5609169975692
72.5367604153688
72.5401814051474
72.5668482848277
72.6124674153574
72.6727581316262
72.7434328007642
72.8201819228686
72.8986642758989
72.9745021681996
73.0432818988611
73.1005595372409
73.1418721175022
73.1636290439083
73.166102379895
73.1506497858517
73.1186543768479
73.0715182079553
73.0106562537967
72.9374908893902
72.8534468996649
72.7599470366388
72.6584081356374
72.5502377951758
72.4368316192814
72.319571016131
72.1997906925649
72.0784770940244
71.9564022646881
71.8343251783401
71.7129946074897
71.5931492435622
71.4755179695414
71.3608202797434
71.2497668417314
71.1430601958317
71.0413955882703
70.9454619346099
70.8559429109328
70.7735178560822
70.698635550152
70.6311168950956
70.5706811270394
70.5170535505975
70.4699650122409
70.4291514025086
70.3943531853048
70.3653149526988
70.3417850038008
70.323514946432
70.3102593204423
70.3017752416525
70.2978220655118
70.2981364060997
70.3017963579921
70.3071644608342
70.3125668205401
70.316328596872
70.316774385987
70.3122294011805
70.3010214509673
70.2814837104755
70.2519582773968
70.2108004974545
70.1563840365883
70.0871066679155
70.0013967311499
69.8980134305648
69.77830041419
69.6449131043581
69.5004971783932
69.3476686055054
69.1890066289927
69.0270487533464
68.8642876696433
68.7031700406697
68.5460970613601
68.3954267098851
68.2534776096083
68.1225344316988
68.0048547820339
67.9025440158794
67.8158917866584
67.7439047535104
67.6855884249903
67.6399719990168
67.6061046324094
67.5830520393465
67.5698933958179
67.5657185311523
67.5696253912534
67.5807177613183
67.5981032385866
67.6208914481148
67.6481924967095
67.6791237966902
67.7130571593228
67.7496648080281
67.7886355549795
67.8296572929398
67.8724167886439
67.916599504512
67.9618894489146
68.0079690552674
68.054519090295
68.1012185918389
68.1477448366206
68.1937733383888
68.2389778768877
68.2830330198272
68.3257234126738
68.3669878950989
68.4067766424932
68.4450398039577
68.4817275233062
68.5167899607904
68.5501773155426
68.5818398487244
68.6117279073725
68.6397919489291
68.6659825664424
68.6902505144242
68.7125467353472
68.7328363983406
68.7516103401317
68.7700324655898
68.7893130682384
68.8106652033895
68.8353052069004
68.8644536445097
68.8993366958834
68.9411879792535
68.9912508249372
69.0507810091363
69.1210499632478
69.2033484785296
69.298990931429
69.4091800342536
69.5327002584578
69.6662447978041
69.8063987907454
69.9496965325873
70.0926163406679
70.2315788803335
70.3629491001483
70.483041925306
70.5881318427071
70.6744664785501
70.7382842186795
70.7758358529935
70.7834101382489
70.7586129458969
70.7041329187694
70.623966831215
70.5221381416845
70.402670416776
70.2695653237449
70.126785258167
69.9782405801246
69.8277813614179
69.6791934977732
69.5361990129676
69.4024603749025
69.281588655421
69.1771541751799
69.0918212793828
69.0258237015311
68.9790087681719
68.9512562365326
68.9424777351
68.9526163390662
68.9816462771216
69.0295727671095
69.0964319790534
69.1822911250528
69.2872486765102
69.411434710131
69.5550113851299
69.718139491331
69.899104091538
70.0932868337486
70.2957406440339
70.5014095650901
70.7051196398656
70.9015771620916
71.0853747472839
71.251005668879
71.3928868433602
71.5053907308161
71.5828862401004
71.6197884898839
71.6106169812182
71.5516186584928
71.4467571629535
71.3023872674698
71.1249115574219
70.9207164809424
70.6961203721853
70.4573331452984
70.2104274775656
69.961321048577
69.7157692384748
69.4793676063587
69.2575634615981
69.0556758971647
68.8789237668161
68.7314353813018
68.613241255358
68.5234222661821
68.4611380846002
68.4256207414858
68.4161688154438
68.4321421676405
68.4729571588723
68.5380822918463
68.6270342283898
68.7393741370929
68.874704331854
69.0326651660743
69.2129306702303
69.4141275496572
69.6318827512638
69.8612181855983
70.0970345697896
70.3340970302504
70.5670281663286
70.7903091127597
70.9982891641466
71.1852044963539
71.345206431017
71.4723995346258
71.5608896192514
71.6048414177101
71.5992920153865
71.5466861738455
71.4536802227169
71.3270598179842
71.173625988573
71.0001386737164
70.8132733298304
70.6195905359259
70.4255182373903
70.2373460836263
70.0612312301227
69.9032149818962
69.7692497440816
69.6652359089369
69.5958210769949
69.559692590783
69.553828098014
69.5752912754799
69.6212078860916
69.688744267234
69.7750883810673
69.8774332593759
69.9929627374352
70.1188394242786
70.2521949016538
70.390122181384
70.5296704809448
70.6678680875608
70.803133899682
70.9360380671805
71.0673410194558
71.1978150576234
71.3282441438124
71.459423858805
71.5921615347954
71.7272765701357
71.8656009332027
72.0079798629624
72.1552727744539
72.3083543782667
72.4681158839855
72.6352436491428
72.8097614385694
72.9915681301531
73.1805635019424
73.3766479541991
73.5797222335738
73.7896871589024
74.0064433481574
74.2298909461251
74.4599293524135
74.6964569494313
74.9393708300113
75.1885660652775
75.4439034801349
75.7051874086402
75.9722123215086
76.2447672441173
76.5226353219085
76.8055933899219
77.0934115470345
77.3858527356005
77.6826723273168
77.983617716264
78.2884279202093
78.5968329926152
78.908236484997
79.2210542675183
79.5334673089122
79.8435990342265
80.1495154033644
80.4492259268048
80.7406856889257
81.0217984471765
81.2904208708052
81.5443679756955
81.7814198018841
81.9993556446242
82.1971335249
82.3753916773065
82.5349352117384
82.6766111790454
82.8013046609158
82.9099349130821
83.0034515965604
83.0828311287938
83.1490731835751
83.2031973655298
83.2462400818324
83.279325909919
83.3040690313891
83.3222826996202
83.3357875534075
83.3464086899634
83.3559740026882
83.3663133178919
83.3792583336704
83.3966433632942
83.4203068860966
83.4520939109731
83.493807795987
83.5443989721937
83.5984919751757
83.6503271247508
83.6941166719454
83.7240518908916
83.7343182325052
83.7191185522584
83.6727043127034
83.5894145038399
83.4637218241233
83.2902854276588
83.0654675849153
82.796185969089
82.4937712114102
82.1693582902215
81.8337978624462
81.4976159607236
81.1710021265726
80.8638238114855
80.585664921478
80.3458866830442
80.1537095325219
80.0183154509344
79.9469860776899
79.9331395849296
79.9643677554084
80.0283836305584
80.1129258812912
80.2056767103211
80.2942173637315
80.366021710898
80.4084886832714
80.4090141938539
80.3551024751469
80.2345155732407
80.0379503624807
79.7726177797134
79.4521933339289
79.0902276058636
78.6999732690688
78.2942752358121
77.8855058530251
77.4855418164054
77.1057789393776
76.7571809277711
76.4503587772429
76.1956782450615
76.0033568567814
75.8774092654421
75.8089018702718
75.7875685393435
75.803369625293
75.8463802689238
75.9067059539115
75.9744242137367
76.0395521815419
76.0920401728471
76.1217917055595
76.1187102868174
76.0727729252082
75.9747658552941
75.825481098146
75.6334792894123
75.4075215554402
75.1562790402368
74.8882673199046
74.6118011031758
74.3349684017474
74.0656230315411
73.8113941675344
73.5797117002739
73.3778463103821
73.2129634696453
73.0919532964945
73.0154030545987
72.9771719541925
72.9709333358501
72.9904610035116
73.0295799106737
73.0821276873965
73.141926668869
73.2027663235381
73.2583961408233
73.3025291265514
73.3288560674595
73.3310706624862
73.3029916680274
73.2424201103947
73.1526490392854
73.0374116235281
72.9004544335994
72.7455137994174
72.5762960308697
72.3964615346564
72.2096127854414
72.0192860508504
71.8289467283154
71.6419881263803
71.461733512722
71.2914412545081
71.1339613738593
70.9902456125769
70.8606317665132
70.7454669294776
70.6451094730424
70.5599307020719
70.4903165860384
70.4366695763084
70.3994105206727
70.3789806876292
70.3758439142994
70.3904888934129
70.4234316165457
70.4751993744179
70.5446629345198
70.6276922558359
70.7198241847595
70.8165582275784
70.9133476594595
71.0055963786594
71.0886616624316
71.1578629828336
71.2084970095841
71.2358588619045
71.2352695712226
71.2021095822348
71.1318579533205
71.0209023990537
70.8717956353896
70.6899930798956
70.4809625056545
70.250122532944
70.0028065937154
69.7442354489629
69.4794980002332
69.2135399938067
68.9511601275002
68.6970130308788
68.4556185942603
68.2313771644143
68.0285901999072
67.8511466629693
67.698818570469
67.5687360225825
67.4580686871663
67.3640575542504
67.2840002724607
67.2152389075156
67.155149973547
67.1011366262063
67.050622936456
67.0010501864039
66.9498751440107
66.8945702823841
66.8326259118945
66.7615682938677
66.6802251186595
66.5897102391353
66.4913676918658
66.3865324607147
66.2765276923996
66.1626624597597
66.0462300625974
65.9285068527594
65.8107515678457
65.6942051565382
65.5800910779776
65.469616057835
65.3639712846709
65.2643340317989
65.1718045829223
65.0863423292609
65.006951934577
64.9326207510746
64.8623477949667
64.7951423261452
64.7300227429832
64.6660157835688
64.6021560259216
64.537485680595
64.4710546695415
64.4019209852216
64.3291513236926
64.251821984833
64.1690200319531
64.0799580450412
63.9855945563381
63.8882326654163
63.7901852568197
63.6937373639433
63.6011465977472
63.5146451830302
63.4364435548426
63.368735476188
63.3137046511411
63.2735328247304
63.2504093823962
63.2465424876386
63.2641718269431
63.3055830667117
63.3730361954722
63.4660938291536
63.5810938565686
63.714181009946
63.8614685387734
64.0190178906793
64.182823029039
64.3487995338942
64.5127787040135
64.6705069247588
64.8176505865877
64.9498068297577
65.0625203492261
65.1513064173303
65.2116801689199
65.2396407708822
65.2356038228802
65.2025112057195
65.1434027749806
65.0613640499823
64.9595033588204
64.8409317957804
64.7087461270843
64.5660147075374
64.4157664087549
64.2609825099797
64.104591465206
63.9494664350698
63.7984254581352
63.6542341329641
63.5195516027868
63.3961988557678
63.2854041811865
63.1883785871838
63.1063338778406
63.0404883779517
62.9920731467771
62.9623387152814
62.95256239244
62.9640561985605
62.9981754975244
63.0563284157252
63.1399861536999
63.250694317552
63.3900854218829
63.5597505957358
63.7581035053353
63.9802777583144
64.2211774776981
64.4755827161066
64.7381212497747
65.0032486325564
65.2652371747739
65.5181746330047
65.7559734541336
65.9723913990706
66.1610642667408
66.3155512365836
66.4293930402339
66.4961832591155
66.5121119179305
66.4817450869183
66.411525743625
66.3080028062383
66.1777598957717
66.0273567582459
65.8632838023431
65.6919297795156
65.5195623144681
65.3523207853872
65.1962209506506
65.0571707141417
64.9409965057944
64.8534799195813
64.8003796693109
64.7845113064268
64.8029720798241
64.852296959925
64.9290949080067
65.0300179858974
65.1517342503912
65.290904178399
65.4441604807772
65.6080912583638
65.7792265347402
65.9540282673672
66.1288839919008
66.3001042928869
66.4639243163146
66.616800630378
66.7572108906455
66.884523768703
66.9981188279403
67.0973852640009
67.1817242863654
67.250551567633
67.3032997464619
67.3394209686631
67.3583894495643
67.3597040394929
67.3428907731088
67.3075053823671
67.2531357521457
67.1794975791154
67.0881978752991
66.9825615481384
66.8659578671471
66.7417237929679
66.6131549576381
66.4835000011495
66.3559581603827
66.2336799906083
66.1197710971438
66.0172987645053
65.9293013916227
65.8588006736914
65.8088165135845
65.7823846983901
65.7817402682373
65.805131276404
65.849635971953
65.9123610838617
65.9904246233058
66.0809410222218
66.1810087864657
66.2877006442362
66.3980562115813
66.5090772289452
66.617725445712
66.7209232431835
66.8155570898178
66.8984839151976
66.9666958282493
67.019564903215
67.0583502916696
67.084386079642
67.0990262532122
67.10363980635
67.0996063623076
67.0883123334405
67.0711476373736
67.0495029813197
67.0247677211736
66.9983282977857
66.9715672496016
66.9458627986364
66.9225900931281
66.9032523584676
66.8896057658125
66.8834353392949
66.886529090346
66.9006824974132
66.9277039623144
66.9694212709137
67.0276890994647
67.104397624244
67.201482311313
67.3209349858096
67.4648163066637
67.6352698037831
67.8345365599415
68.0632014371228
68.3165263985292
68.5886548797246
68.8735702249407
69.1650655701799
69.4567240960944
69.7419105606193
70.0137751451397
70.2652706821463
70.489184261243
70.6781840184992
70.8248815885963
70.9219102327733
70.9624456508694
70.9473348892997
70.8840053778089
70.7802499973089
70.6439297152106
70.4828937916732
70.3049174204435
70.1176569738228
69.9286225282898
69.7451670199868
69.5744912119364
69.423663635952
69.2996547880871
69.2093850947634
69.1591288665516
69.1481545022749
69.171535839038
69.2243845081837
69.3018664582126
69.3991638295002
69.5114436623906
69.6338332738567
69.7614023026178
69.8891515485397
70.0120088194968
70.1248320461813
70.2224199300721
70.2995303835085
70.3521494992304
70.3808161105784
70.3871521839973
70.3728255771101
70.3395398429097
70.2890246823626
70.2230271268399
70.1433035138846
70.0516123029094
69.9497077618421
69.839334541747
69.7222231442288
69.6000862760748
69.4746132238423
69.3469905513876
69.2173752471151
69.085794064051
68.9522739578514
68.8168420748595
68.6795257402127
68.5403524460077
68.3993498395333
68.2565457115753
68.1119679848051
67.9656447022562
67.8176040158981
67.6678741753132
67.5164835164835
67.3639739353563
67.2129227115672
67.0663702014002
66.9273047043439
66.7986681105752
66.6833640940638
66.584268770579
66.5042437750655
66.4461517564797
66.4128743403244
66.4073326703746
66.4325107125474
66.491481587304
66.5874372949402
66.7233771230376
66.8971603415131
67.1025377912022
67.3330872268943
67.5822666486143
67.8433693746183
68.1094914783483
68.3735124250003
68.6280899767133
68.8656705573798
69.0785162605732
69.2587495273142
69.3984161962301
69.4895671246585
69.525389998568
69.5073898246798
69.4411413556699
69.3324166863755
69.1870883147903
69.0110636175058
68.8102289907721
68.590404120901
68.3573064902054
68.1165259394631
67.8735088976536
67.6335517525424
67.4018027664984
67.1832719338645
66.9827694115834
66.802912257202
66.6440256029204
66.5063493418324
66.3901555954927
66.2957509311706
66.2234787624821
66.1737219571526
66.1469056783494
66.1435004891311
66.1640257531659
66.2090533690425
66.2792118803383
66.3751910092359
66.4977466439686
66.6468384532533
66.8193075793138
67.0112512774599
67.2187105105381
67.4376481751814
67.6639318273222
67.8933211300138
68.121460326215
68.3438760957866
68.5559811864458
68.7530842091029
68.9304059548662
69.0831025202084
69.2063000998039
69.2970118958999
69.3570756412712
69.3891697371612
69.3960553451529
69.3805551195003
69.3455338443012
69.2938811913042
69.2284967532702
69.1522774528341
69.0681073790308
68.9788500639317
68.8873431806182
68.796395621151
68.7087851052387
68.6268141782379
68.5517335474939
68.4846413619035
68.4266319922665
68.3787988111757
68.3422373204099
68.3180486333076
68.3073433241006
68.3112456612334
68.3308982473466
68.3674670949525
68.4221471739735
68.4961684753976
68.5907966054687
68.7058309298241
68.8375885305046
68.9818592679008
69.1343774431246
69.2908084871126
69.4467408919407
69.5976836121198
69.7390691939241
69.8662628913902
69.9745779959282
70.0592975400913
70.1157024332417
70.1391059471638
70.1250818066633
70.0736278879085
69.9891577464075
69.8763315643621
69.739828374082
69.5843119564914
69.4144030366582
69.2346578138579
69.0495527274117
68.8634752595217
68.6807205116688
68.5054932597816
68.3419151925895
68.1940370644206
68.0658112445795
67.9595028448878
67.8752761178347
67.8131974865986
67.7733750818835
67.7559596538688
67.7611456977254
67.7891728047079
67.8403272531125
67.9149438559083
68.0134080846386
68.1361584923079
68.2836894614735
68.4565543077191
68.6553003847311
68.8779598571927
69.119238972326
69.3735054649059
69.634973267444
69.8976839526008
70.1554978579469
70.402095677108
70.6309913387622
70.8355569511504
71.0090604536157
71.1447163787657
71.2357497834189
71.2754729538459
71.2591758861819
71.1910875354576
71.0782507363256
70.9278092818772
70.746926245746
70.5427169980417
70.3221968248375
70.0922430969768
69.859571560734
69.6307260746559
69.4120809870781
69.2098553267519
69.0301380526346
68.8789237668161
68.7603630040529
68.671466017156
68.6075655534316
68.5640895776984
68.5365311057279
68.5204243496239
68.5113268892297
68.5048076996431
68.4964409468062
68.4818055127527
68.4564902302736
68.4161047939051
68.3562962705566
68.2727710595475
68.1626252884003
68.0293175703601
67.8781870747878
67.7145161597259
67.5435070807312
67.3702673902578
67.1998033316716
67.0370208544631
66.8867338629825
66.7536793429825
66.6425390841802
66.557967829549
66.5046278312638
66.4872299792996
66.5103581413046
66.5735902924826
66.6714755372597
66.7983922073343
66.9487167552511
67.1167785455341
67.2968239637462
67.4829899573225
67.6692873486163
67.8495944216652
68.0176613748829
68.167126244906
68.2915428337561
68.3844210044211
68.4394450352257
68.4548065388281
68.4336352162941
68.3794175016664
68.2957206762248
68.1861606820878
68.0543733766195
67.9039895050333
67.7386135516375
67.5618065284524
67.3770726753292
67.1878499790897
66.9975043705106
66.8093274265178
66.6265373452039
66.4520665007166
66.2880740294035
66.1365356034736
65.9994012080176
65.8786034583347
65.7760669972379
65.6937189870365
65.633500735739
65.5973805248197
65.5873677371477
65.6055284190938
65.6540024513307
65.7350225496704
65.8509353720131
66.0040559180011
66.192946071242
66.4123075972794
66.6566132510946
66.9202265023117
67.1973616516417
67.4820530865208
67.7681343171433
68.0492276369174
68.3187453844338
68.5699038347984
68.7957507019332
68.9892070752297
69.1431243306848
69.2508212118631
69.3120327974472
69.3312425889208
69.3132096524953
69.2628139904648
69.1850077540859
69.0847728969733
68.9670857491465
68.8368887617574
68.6990694818754
68.5584466692023
68.4197633632258
68.287686649169
68.16681385192
68.0615310522076
67.9731258213555
67.9000797420189
67.8408037672156
67.7937374843757
67.7573431797174
67.7301006719562
67.7105028777755
67.697052080787
67.6882568834879
67.6826298281029
67.6786856772611
67.6749403492567
67.6699105052168
67.6621330086118
67.6512175212542
67.6383888898645
67.6250042100218
67.6124185576204
67.6019850383486
67.5950553791453
67.592981060179
67.5971149873384
67.608813707585
67.6294401727867
67.6603670618643
67.7029806762661
67.7586854299962
67.8289034376302
67.9137007853815
68.0099526572162
68.1140585921663
68.2223807133696
68.3312370931763
68.4368990125334
68.5355922403063
68.6235024622175
68.6967849742597
68.751578720748
68.7840247018792
68.790288699597
68.7665881743319
68.7092372259215
68.6170515506408
68.4939954930207
68.34470786691
68.1738183506295
67.9859160782897
67.7855246115169
67.5770832243878
67.3649343136025
67.1533166617884
66.9463642324098
66.748110157228
66.5624955883434
66.3933831232756
66.2445745703996
66.1194471494138
66.0176492968975
65.936799698217
65.8745587070194
65.8286376526445
65.7967867894
65.7767849562887
65.7664308490926
65.7635358345434
65.7659182591068
65.7713992231063
65.7777998048162
65.7829397289201
65.7846374794527
65.7807129550413
65.7697837075145
65.7526664272615
65.7305552878046
65.7046439478355
65.6761239600909
65.6461836146026
65.6160072147345
65.5867747829905
65.559662192814
65.5358417224775
65.5164830276886
65.5027545306857
65.4958252253764
65.4968669004654
65.5069972354025
65.5257476267651
65.5509239782939
65.5802433301018
65.611416826646
65.6421476136598
65.6701303353655
65.6930522465376
65.7085959531056
65.7144437893119
65.7082838289117
65.6878175125464
65.6507688533416
65.5948951582302
65.5179991738982
65.4183570907649
65.2972450461364
65.1572299728484
65.0008785573906
64.8307387855158
64.6493286641692
64.4591270029137
64.2625662153289
64.0620270749675
63.8598353414198
63.6582601595166
63.4595141281645
63.2657549342181
63.0790884505365
62.9015732053849
62.7351804948469
62.5809418624705
62.4390479344735
62.3096668916355
62.1929768651793
62.0891668439768
61.9984376222353
61.9210027931577
61.857089794536
61.8069410127628
61.7708149523383
61.7489874786117
61.7417531422516
61.7494265947858
61.7723441055094
61.8108651911469
61.8649487431094
61.9328703931596
62.0124827254821
62.1016306331423
62.1981437941427
62.2998306219957
62.4044737112876
62.5098268145456
62.613613398269
62.713526833016
62.8072322746929
62.8923702913333
62.9665622813742
63.0274177154512
63.0725432138616
63.0998435949664
63.1095236375368
63.1028943412565
63.0812986625052
63.0460985120372
62.9986686276483
62.9403909977186
62.8726498650346
62.7968273307729
62.7142995699788
62.6264336623835
62.5345850360468
62.4400955161079
62.3442919668749
62.2484855125638
62.1539733155726
62.0621477700455
61.974551909482
61.892726281706
61.8181975846366
61.752481968154
61.6970890655957
61.6535267521798
61.6233066367591
61.6079503039121
61.6089963356015
61.6280081556181
61.666582756036
61.7263603832379
61.8090352821766
61.9163676219568
62.0495781809259
62.2059684002939
62.3812440062051
62.5710448047964
62.7709241248419
62.9763302674674
63.182594177751
63.3849237391747
63.5784051527103
63.7580118815104
63.918621614147
64.055041618522
64.1620427202469
64.2344019406278
64.2669535705198
64.2558173600601
64.2034805961989
64.1146205895266
63.9940012077217
63.8464218628099
63.6766746182067
63.4895084878102
63.2896010513021
63.0815373114533
62.869795567882
62.6587399769068
62.4526194063699
62.2555721737498
62.0716362711636
61.9047647275928
61.7587950810041
61.6352360638072
61.5324483333108
61.4486231377732
61.382006938233
61.3308912390976
61.2936035831162
61.2684996148039
61.2539561369918
61.2483651027151
61.2501284995396
61.2576540959609
61.2693520299205
61.2836322279148
61.2989026497304
61.3135683585697
61.3261537550609
61.3363649975213
61.3445724193652
61.3511545341266
61.3564904845767
61.360959865266
61.3649425918382
61.3688188172784
61.3729688952045
61.377773390278
61.3836131358042
61.3908693386098
61.3999237313271
61.4111587722825
61.4249578932789
61.4417056220173
61.4615128494985
61.4836580425381
61.5072610345708
61.5314392613936
61.5553074668267
61.5779776620692
61.5985593407617
61.6161599516689
61.6298856304775
61.6388421914754
61.6421363788284
61.6388773758089
61.6281785686519
61.6091595597391
61.5809484225447
61.5427321757165
61.4948131696254
61.4386013516993
61.3755518404089
61.3071133452149
61.2347253296383
61.1598158653737
61.0838001675633
61.0080797978569
60.9340425197378
60.8630627897575
60.7965028687278
60.7357145385125
60.6820414127858
60.6368218339461
60.6013923532578
60.5770148053049
60.5640287384866
60.5621692420631
60.5711728599296
60.5907877096055
60.6207725800889
60.6608960778391
60.710935816331
60.7706776450285
60.8399149139748
60.918447770526
61.006082485046
61.1026308026446
61.2079093182893
61.321738872838
61.4439439554872
61.5739096507334
61.7093967626811
61.8477592870409
61.9863044014341
62.1222908717975
62.2529298442568
62.3753881325513
62.4867941042974
62.5842462526782
62.664824512902
62.7256043445866
62.7636735519988
62.7761517541752
62.7602123473028
62.713106723881
62.632710590824
62.5220378256618
62.3869553869892
62.2333305849233
62.0669604679979
61.8935436372666
61.7186629570181
61.547778705086
61.3862316182247
61.2392552790244
61.1119973526902
61.0095493076616
60.9369844382756
60.8994042482172
60.9019935520041
60.9500850148618
61.0474241802287
61.1900400978143
61.3718898741782
61.5869451125912
61.8291176044901
62.0921964301164
62.3697965241484
62.6553191917484
62.9419254633058
63.2225234848843
63.4897713408863
63.7360967744176
63.9537351842257
64.1347870096014
64.2712952120894
64.3577541740453
64.3976167510749
64.3965698537628
64.3604712787588
64.295280745467
64.207000895314
64.1016290725226
63.9851202941141
63.863361485629
63.7421568150769
63.6272238023876
63.5241998125252
63.4386585525954
63.376136281339
63.3421675989893
63.3411938621091
63.3711034428942
63.4274614374684
63.5058720417762
63.6019478946293
63.7112822464047
63.8294271472994
63.951877679383
64.07406236745
64.1913399796894
64.2990029688584
64.3922878055119
64.4663924140616
64.5165008375044
64.5378151260504
64.5269554746959
64.4860740174063
64.4187565718569
64.3286307880224
64.2193388228312
64.0945140236968
63.9577617507361
63.8126443676963
63.6626703514617
63.5112874100157
63.361879458537
63.2177672819419
63.082212708328
62.9584261299534
62.8495772352121
62.7585294517603
62.6854419178109
62.6289921924417
62.5878778812913
62.5608268642511
62.54659137455
62.5439426678896
62.5516662409931
62.5685575676943
62.5934183283281
62.6250531148457
62.6622665998476
62.7038611626858
62.7486349699818
62.7953805113585
