Value(μV)
-16.1714752157931
-30.1392042632183
-34.3596502415021
-31.0839569707679
-26.6139536918427
-25.263082539405
-26.4796117072926
-27.131715386992
-25.5615697900804
-22.972732479167
-21.4026159960401
-21.2669523180379
-21.2638747001582
-20.2348744959204
-18.4625113187818
-17.0149174940621
-16.2690909571893
-15.5200088324222
-13.9912296975256
-11.8381713212565
-9.93397248625156
-8.83994146303739
-8.27611957816602
-7.63222004261435
-6.75059694486111
-6.00632030787518
-5.70201526267938
-5.63119674705459
-5.35133190490075
-4.76717982755355
-4.27408082104034
-4.31080748640932
-4.89321104277838
-5.66308599644287
-6.32304250033769
-6.90155206433155
-7.57746174694853
-8.35827624633748
-9.04132820123164
-9.48418095848359
-9.81864889404008
-10.3331988608383
-11.164727658673
-12.1567652990698
-13.0234538878818
-13.6054783867479
-13.9364595393804
-14.0978882233022
-14.086391889287
-13.8635179476393
-13.5011124386651
-13.2037993154132
-13.141208680979
-13.266233763568
-13.3332224896758
-13.111291327837
-12.5688167791504
-11.8453771839368
-11.0807442574151
-10.3327568774317
-9.68569999323188
-9.38281823933318
-9.75030265868349
-10.9242491754846
-12.6644992038736
-14.4889669114131
-16.0123233419074
-17.1309620331879
-17.8720951823493
-18.1280194118085
-17.6361407346705
-16.2521995077183
-14.1742152883752
-11.8057530542345
-9.38690679075395
-6.83002130160227
-3.96934924216451
-0.928343747518838
1.84821215116962
3.94788782385899
5.31169524772917
6.15574640702932
6.6336733097986
6.69587916762168
6.32154361527162
5.78749962614241
5.56614995601765
5.9188229105245
6.66147235855954
7.38537910321816
7.85612918509701
8.11054338525117
8.18706778605695
7.91303120194727
7.08455476228545
5.82169516561157
4.6003287896969
3.84973411944515
3.57434166375302
3.45881179076035
3.32151355207002
3.34892546567804
3.83541178036476
4.79502994098185
5.9685551012353
7.21363010730925
8.74156858529782
10.8479454626422
13.4476589688091
16.0034628677462
17.9583562545367
19.1606805003961
19.8061644373417
20.0530602629087
19.8592635110326
19.2386053365079
18.526858766299
18.2124203216472
18.4773902665356
19.0175210250827
19.3827130600815
19.4230019367372
19.3091383855731
19.1771954742451
18.9427715735223
18.567558264674
18.3900653495448
18.9778688275389
20.5718570017578
22.7773681518701
24.9079810935337
26.5858640177244
27.8858242252319
28.9110762312387
29.4334131107867
29.1321441793617
28.1362467600233
27.1082500213088
26.6547031221473
26.7269136925105
26.7373706381454
26.2489015323285
25.3955994968846
24.5642787423242
23.822419246691
22.8806067327379
21.6383389384233
20.5592323603314
20.317498152273
21.1043701917227
22.4438959440067
23.7360565593576
24.8402024291498
26.0016861747667
27.2998028609709
28.3960215909513
28.9142510715749
28.9113699034405
28.7703185424167
28.6315026434057
28.1161446853802
26.7317294153515
24.4681189603186
21.861294788909
19.5095724651614
17.7111760053914
16.6448445997676
16.7063544781327
18.3740883815581
21.6467029856726
25.7526347287958
29.5492932962509
32.1653687451234
33.1658502533571
32.2168078264021
28.9314477363418
23.288774255409
16.1049516910377
8.79740342962361
2.54170612668477
-2.23297615392847
-5.43884632332515
-6.63882973455201
-5.12007156761265
-0.773085508290589
5.35550094773121
11.6903828713032
17.2935725555921
22.1439350873533
26.170318328
28.3239228607706
27.0432980250487
21.7328904154275
13.4953385588334
4.16334041268717
-5.25007062628783
-14.8402251264451
-24.5997435617906
-33.4001055216786
-39.6305460675328
-42.811735338345
-44.1657266965498
-45.3462900107318
-46.7999726670391
-47.6626058500077
-47.1508244175628
-45.5793859365639
-43.746943976238
-41.638398051722
-38.2901954801186
-33.0927996848342
-26.8526056556897
-21.1943119047146
-17.0255424732873
-13.984234940956
-11.4594278642244
-9.68812002593928
-9.37993996526945
-10.3925904872992
-11.3855460980909
-11.1549390548354
-10.0502213245815
-9.58747826442973
-10.6192536746096
-12.3242873549391
-13.2940601961044
-13.3075080416174
-13.4818327158233
-14.5977237724869
-15.8154111178035
-15.5553380067519
-13.539774353542
-11.458388162121
-11.4042310948062
-13.9273129920448
-17.8229980058846
-21.4471182722112
-23.6445745332622
-23.4560396348366
-19.8302989263514
-12.4976368647928
-3.05827640164051
5.48254780602933
10.3912707658909
9.60394488800891
-0.119619046870355
-24.2990940868804
-67.3761576090327
-126.255887976967
-187.658915314252
-234.384981795919
-256.44222236241
-256.38405527917
-242.972107157401
-219.631294916247
-180.26166812976
-116.81302993062
-29.1064764294075
75.8743027551552
195.618414480996
340.76308656542
528.189397936022
762.951778381796
1027.37456900105
1289.52606429252
1522.49412229061
1713.4714410418
1852.58977139875
1914.83120936046
1858.49474159533
1648.36666740678
1286.08714976971
820.745760527836
329.199545488459
-118.652492275169
-484.022502691731
-759.70534626599
-954.367967958206
-1077.43532792146
-1134.50357987703
-1131.15320519574
-1077.82078086832
-991.386661266125
-893.51735166528
-806.78929399589
-748.962725903173
-726.854730069824
-733.356172086943
-750.641681674545
-758.641115322032
-743.991212503925
-704.739505189542
-649.476487572699
-592.615650385998
-548.13200050572
-523.60192234266
-516.68497128097
-516.372889309871
-509.257416098164
-487.260611012112
-451.468373843209
-409.564508097346
-369.647687013235
-335.752098673963
-307.830291461795
-284.401206092046
-264.369887037058
-246.777702036981
-230.062081028794
-212.474815733701
-193.229571126978
-172.846014279648
-152.353941845879
-132.565545540666
-114.279212262935
-98.6490680649489
-86.5301423024094
-77.1702852353811
-68.0205297489676
-56.4936875687132
-42.1181845573356
-26.7463038607044
-12.5210119862771
0.156674058116474
12.4814256596537
25.350816293903
38.1349500184402
49.5123157679504
59.1600112739339
68.1401059202362
77.6003494323319
87.5279430627539
97.0882227307299
105.951837418393
114.782633508976
124.257934408103
133.967006215049
142.68735100652
149.716543001473
155.55277607836
161.064601414138
166.239309213215
170.118249729917
171.976664241112
172.219337747773
171.873871160089
171.392523742775
170.338889882412
168.349906235343
166.095196241195
164.953557734417
165.759068585243
168.125811629824
171.097802738566
174.222299105109
177.716668193211
181.659957592295
185.400251112342
188.024221569829
189.305755868141
189.919834753182
190.65582374271
191.617389596744
192.346448003558
192.585923566989
192.622483710685
192.789509671085
192.858781702199
192.185145758633
190.449034277327
188.037618358873
185.567346775757
183.15305843792
180.33125472265
176.68259054024
172.319471199319
167.636376046397
162.715001405692
157.213449804598
150.900358532735
144.128476333388
137.614349112113
131.78467111021
126.48748780101
121.370176524677
116.377782686329
111.731587136838
107.488027700001
103.341315918482
98.9804226678158
94.5380213375096
90.5184120803717
87.2628864881959
84.6107575847176
82.152414309748
79.7023280449001
77.3619683417931
75.12469392823
72.6114770590572
69.36459850869
65.3748573349599
61.1712223308339
57.3301190844928
53.9887297683772
50.9316638421674
48.083136607965
45.7305885013923
44.1782541502179
43.2884122448491
42.5277058705176
41.4921484328379
40.2697282602961
39.2015159625925
38.3559301357385
37.3745521860765
35.8601504396302
33.7975872901143
31.4854311891286
29.0967711192989
26.4460036923976
23.2460772877225
19.5041715895237
15.5451647859303
11.6479572424107
7.76809228742473
3.68366663310391
-0.65025719886502
-4.9956658677893
-9.07729838299917
-12.8281219419491
-16.3200258717275
-19.5137849230281
-22.2058897789032
-24.2706936531188
-25.8841423133091
-27.428022327065
-29.1898732996937
-31.2319712470938
-33.5597699624619
-36.3088116050944
-39.648533222716
-43.5040725820327
-47.4797653481133
-51.1355834818358
-54.3104839517449
-57.1092301167477
-59.5912298941833
-61.5817189130319
-62.8640124603721
-63.5045410104514
-63.8674502961518
-64.2597464378525
-64.6288950377004
-64.6898256048731
-64.328507176825
-63.7807815647573
-63.3652974552785
-63.1114379549118
-62.7586616337483
-62.1385168855681
-61.4673688834969
-61.1823922035679
-61.5135601691619
-62.3006981713647
-63.2498660855263
-64.2800487221597
-65.5165560237008
-66.9467877091757
-68.1842815456557
-68.6577735185702
-68.0280373944424
-66.3758047977462
-63.9994060001566
-61.1212462001322
-57.8621074459155
-54.4617968622179
-51.404507032291
-49.2374286353479
-48.2595336531657
-48.4090573406601
-49.4278908575493
-51.0692159212231
-53.1222759417985
-55.3024253467845
-57.2200893236505
-58.5068905368756
-58.9557970338024
-58.5256119617229
-57.2522683717116
-55.217852048053
-52.6097078235746
-49.7425573249356
-46.9556534929497
-44.4813964580113
-42.4385756648518
-40.9330162298932
-40.0847967816179
-39.8954014709801
-40.1188430617219
-40.3586874450438
-40.3544916646784
-40.1563479593516
-39.9802907279547
-39.9124115816117
-39.8200197072808
-39.5679546585881
-39.234761722474
-38.9994136144674
-38.7890198476028
-38.1268196992822
-36.4331972812859
-33.5027463943576
-29.651310096456
-25.3976280306622
-21.0761877059667
-16.8224429841695
-12.8778381858874
-9.74867414580112
-7.93852428463464
-7.52635830182646
-8.08769603007846
-9.0682227045578
-10.1969370753756
-11.5081285935914
-13.0308840860588
-14.5812624592298
-15.9049398468715
-16.9409019660449
-17.8319965660426
-18.6627040168236
-19.2750156291706
-19.4128926066166
-19.0160240231513
-18.2938908724411
-17.5038211088268
-16.735248673632
-15.9657409530635
-15.263571296577
-14.8039705364996
-14.6316253994278
-14.4858409711236
-13.9742985213743
-12.9455601774047
-11.6318145679892
-10.3946018317218
-9.39079768869885
-8.56139933997667
-7.91478424361259
-7.68528742933177
-8.11170758620335
-9.09495368782495
-10.1887809349217
-10.9830687802599
-11.4474518026805
-11.8421164476597
-12.326921044714
-12.7477861664026
-12.8227813148225
-12.4386256655945
-11.6627623282774
-10.4911932700062
-8.72214192512459
-6.17935519285297
-3.03315568870515
0.184075057845618
2.90013497231493
4.79374668978878
5.77305524453476
5.79659008284126
4.87244162191823
3.25781046083921
1.52166582334939
0.252751599231225
-0.33581747705357
-0.467863156780819
-0.473313444355686
-0.477316278908356
-0.460903740349426
-0.524884086586422
-0.904640807489764
-1.63490589484437
-2.29561838003082
-2.25096756643509
-1.19677549889206
0.587708813435501
2.56244312980999
4.42012387858577
6.17404816218444
7.82101223126729
9.11848770603493
9.83907289637914
10.1839263125873
10.7600020313357
12.0479809041488
13.949344994657
15.9349755994207
17.5900000590677
18.8906164461042
19.9433147139464
20.6354195408119
20.7368090001788
20.3398006858189
20.0071619599145
20.3295869221711
21.3618053370934
22.6008153390535
23.5161328629558
23.9789846773703
24.1210978808781
23.9266300197109
23.1901869497538
21.9254230981389
20.6315646654217
19.9547229995832
20.0746015770252
20.551374493074
20.8192566508503
20.7142047314192
20.4252526994675
20.0559830441521
19.4983600243279
18.846633533015
18.750112241791
20.0753251379226
23.1267356598634
27.3170183775703
31.6874451492803
35.6429550576692
39.0349029283196
41.6239010849837
42.8053397887626
42.1247482575486
39.9825828764221
37.5390701840124
35.7735863479913
34.752450551334
33.9543316175541
33.1935679904812
32.9403138689161
33.6470464556707
35.0193193104525
36.2641783208396
37.047608133632
37.8890783343844
39.3830988213778
41.1677073460257
41.9697840069856
40.7542807758381
37.6232055575279
33.4342758395947
28.7394306177163
23.4744631567744
17.776928927641
12.7440773952113
9.935611262077
10.0332011265226
12.2204549796814
15.0261280995926
17.6067754924022
19.9897239355322
22.2086224946311
23.6776442426076
23.7297371773349
22.5866266774565
21.3634169194342
20.9423680113703
21.0523194029028
20.6616485508659
19.1239052713263
16.6113936256988
13.414908441508
9.25002510892429
3.66536655049129
-2.95208974203488
-9.23895616172211
-13.9857284734506
-17.2142693725371
-19.8440593702274
-22.3842072901923
-24.364707567797
-25.2276045318662
-25.4030114290568
-25.9864299317481
-27.318074499069
-28.3646413972295
-27.8904969781087
-26.0558025164854
-24.3938062640009
-24.1246465232916
-24.9143984931955
-25.6263741871077
-25.9948395551962
-26.9179975789092
-28.9204245165093
-30.8752607756591
-30.8727509655776
-28.3137840876641
-24.5792926299607
-21.3773787796874
-18.8965379828935
-16.1596318421457
-13.0081871086734
-10.8646511706276
-11.0034322776961
-12.5499250762266
-13.0860027045996
-11.3985322149585
-8.84945496295971
-7.35364155130236
-6.40823671390979
-3.20325093061865
3.89653512451775
12.729561621239
19.1060071285693
21.0615884653576
20.3521150317585
19.2450330357429
16.6780205585686
8.85160447057852
-6.24160872453202
-25.9769538359477
-45.559313405019
-62.702063631004
-78.7699032809133
-95.5384454074169
-112.591678054623
-129.024225271856
-146.132452233306
-165.159914514839
-180.852802592269
-179.434703764188
-146.828449389657
-80.4036119182296
9.69314714035884
114.010616411681
238.649443594178
403.215661736998
620.33678344372
876.65371561495
1136.14346097881
1363.45298647919
1542.45123791886
1669.77975970468
1731.57192657652
1692.49064141148
1515.09535524187
1194.83528203967
776.89714659701
336.832919615036
-58.9322279828683
-379.42334594353
-624.830175665991
-804.040642363604
-919.241995442331
-969.118897910043
-960.785721369099
-914.48991077929
-856.607433891148
-809.026122280041
-783.414958503702
-780.891804662376
-793.330848192196
-805.684028606298
-801.713272133127
-772.240294311032
-719.835090912187
-655.335174297466
-589.657765846804
-529.300561865042
-478.918938680958
-445.168281885674
-434.299004703899
-444.473894246641
-462.067502539307
-468.454361661111
-452.417789809647
-416.5640683322
-372.158656084128
-328.771206529672
-289.410861243657
-254.211859431138
-225.823957206669
-208.928374124899
-204.572116669746
-206.675175794769
-205.409375812562
-194.134070647229
-172.999074381946
-146.704055855627
-120.124807318322
-96.3155390908567
-77.1030925936328
-63.4180630490699
-54.2276043297327
-46.1465185155336
-35.5454671985203
-21.5229650319708
-6.37443104150925
7.13818925476824
18.6015375209856
29.6926826131465
41.5029503559942
52.9407929035217
62.1027612247597
68.6847388699272
74.3647981800185
80.8556296503315
88.2338592446681
95.5262488401014
102.451703642047
109.834639925234
118.198730661165
126.59288843637
133.386734118444
138.10930888572
141.990777728999
146.545002272235
152.023208476902
157.602750574077
162.809541400982
168.109133100751
173.868398338482
179.203631640754
182.457947168134
182.893224321377
181.524485005436
180.068167072792
179.339445949832
179.026407868554
178.875903236679
179.495997328532
181.609397199996
184.779640655028
187.431176393164
188.326845873049
187.745951527099
186.951521472555
186.684029242026
186.566120514753
186.005770407694
185.213590904729
184.897909672838
185.072077581378
184.669437338492
182.628627317834
179.159442061664
175.61000300592
173.108337465362
171.650679628795
170.629405814163
169.888215263176
169.786264881896
170.201551341321
169.932428645402
167.506943695675
162.562991593734
156.153979504625
149.638467839057
143.538179762933
137.674908590115
132.170099633686
127.796895899587
125.122078810503
123.573577360401
121.757098512242
118.763522791925
114.91875842547
111.104559662863
107.543396091642
103.53530193104
98.3529919121817
92.0478026746996
85.145894439703
77.743365880562
69.303537298736
59.5103484566063
49.1202398060527
39.7172371879224
32.6200583545475
28.1632682878419
25.9901683353631
25.7154394353497
27.0186041516492
29.1938023461252
31.0172524075954
31.3706222203029
29.9924645060589
27.4869892076161
24.6218155568055
21.7750803764006
19.0660129710078
16.7238247164527
14.9795524466355
13.5548478093119
11.5410727171104
8.06055258612094
3.06676045189261
-2.63294559373816
-8.14034850578545
-13.0898532057232
-17.4630616734446
-21.0248898359559
-23.2937062144589
-24.1814097223422
-24.4439038593057
-25.2187356132915
-27.0609185866789
-29.5572786522631
-31.9232081165979
-33.81972879335
-35.4506510543087
-36.9917754379039
-38.2451605216085
-39.0239353628587
-39.7166902869413
-41.1797827967418
-43.9631193546789
-47.7582831618819
-51.7097120608495
-55.1811305782346
-58.0783737882218
-60.4891224022144
-62.2927481542068
-63.3427065144945
-63.9472114987134
-64.8878004913768
-66.7900550523959
-69.5324605322905
-72.3834035292489
-74.6791426429576
-76.2406462892597
-77.1501456125785
-77.3661054897234
-76.7987641225811
-75.7400317386359
-74.9631372665048
-75.1878259014725
-76.4509278089622
-78.0979875159831
-79.3710899608047
-79.8786855745885
-79.4841862915861
-77.970177792471
-75.1048814315466
-71.1017263296213
-66.8088450370331
-63.2214604758754
-60.7768507288811
-59.2179655271445
-58.13269351362
-57.4566841015786
-57.3360097955957
-57.6331641409295
-57.844185536214
-57.623412356227
-57.2402677727868
-57.2980296254149
-57.9657632953217
-58.6308059596593
-58.4024435809079
-56.8749019297739
-54.2829779363982
-50.9862086451828
-47.046823136839
-42.4644924665325
-37.6959105456869
-33.662800952902
-31.0958380803572
-29.9328927802415
-29.4601791393003
-29.0018496271254
-28.3606767774776
-27.6219829800698
-26.7650323370272
-25.6878971177464
-24.5857167131349
-24.0685514603926
-24.7192267297668
-26.546198795616
-28.9657733571425
-31.3102669698719
-33.2449991092155
-34.6776723195296
-35.453929592041
-35.383901960829
-34.6124831084491
-33.7788432695973
-33.6098379033439
-34.3225795024006
-35.5044413057198
-36.5839577243561
-37.3094191285551
-37.7094827469827
-37.7260545550009
-37.1273469894099
-35.8805074171539
-34.4739942142023
-33.668779850005
-33.8668206121248
-34.7960621161985
-35.8495972480235
-36.6396898503586
-37.1252538924899
-37.2767112978429
-36.8423624984049
-35.595970649927
-33.7454861090758
-31.9121454857232
-30.615476532139
-29.8373240897985
-29.1567117555791
-28.256044159759
-27.1867461148979
-26.1506294351583
-25.1847660451609
-24.2057162661675
-23.3227172004282
-22.9271752743853
-23.3481002694867
-24.4462959317158
-25.6280987494865
-26.2564337762605
-25.9865999546904
-24.7231374626098
-22.4154514921514
-19.0731385042692
-14.9949511129978
-10.8302517182497
-7.26211667068719
-4.59556446811902
-2.68358037309474
-1.22061730715595
-0.0102473003226464
1.07983642254513
2.29599781469835
3.95135962354934
6.14206541983476
8.60009466066157
10.9286923498548
12.9785367740104
14.9271934285128
16.9942325963904
19.1749674412114
21.3118555120332
23.3416144025262
25.3189280675799
27.1524942204826
28.4374289678758
28.6975202817075
27.8218106945334
26.1896992156887
24.3354117529375
22.5613312073888
20.9422775394257
19.6245967590661
18.928009099647
19.0385136897403
19.6739234417186
20.2130556083189
20.2273483154076
19.8356347025177
19.4941494584692
19.5053950329871
19.834173495995
20.3828036043572
21.2771401534557
22.7252302209715
24.6039364867606
26.324625696284
27.2111721373784
26.999787766381
25.9306902350459
24.40350346799
22.6607729632383
20.8464050731463
19.2597887385026
18.3883130166142
18.6260525211075
20.0107603344398
22.2820150803302
25.1542318909924
28.4630623963979
32.060219883108
35.6679416171391
38.9120100750843
41.4705789095734
43.1292250073401
43.7117919784533
43.0681274475236
41.2137356403804
38.4548634288152
35.2951121186658
32.1934334065872
29.4499974638846
27.3202266911462
26.1206270598855
26.0773807568533
27.0420769814186
28.4610377270721
29.7336087626951
30.608519805126
31.1858122100179
31.5646817785034
31.6170844469883
31.1897073656554
30.4505100096903
29.8666518510909
29.7573772177717
29.9384738730314
29.9095361797941
29.3820630767642
28.5264361262509
27.6725542343687
26.8854173424074
25.9779157838658
24.940231331506
24.2100337265908
24.3942838058772
25.74175115736
27.9764994294839
30.6501713338681
33.5426957309752
36.6268779070059
39.6981888199228
42.1915110795481
43.4479466247593
43.1272448149899
41.3136187506472
38.2768204210317
34.2523076066622
29.4974044249779
24.4691531220724
19.8211789758977
16.18471775382
13.970547119652
13.3443740519025
14.2660105208319
16.4499119658239
19.3255057875661
22.1713655800842
24.3769657427054
25.5658152809127
25.4649437879587
23.7666408305111
20.2737925981608
15.2151720826732
9.28935957180068
3.25459329500787
-2.53713853120416
-8.13120489186591
-13.5207403884077
-18.3616532443067
-22.2609329966699
-25.2839867900416
-27.9870419065199
-30.8566680179571
-33.8183162382346
-36.4248268015987
-38.4752307543515
-40.2534215100036
-42.0751822426964
-43.7591088473769
-44.7578943828502
-44.8074437158197
-44.2292561839483
-43.4528910411898
-42.3782875392695
-40.4591944812543
-37.4509643158249
-33.8433390216531
-30.3624659862637
-27.1641511761012
-23.8111132236865
-20.1240845749434
-16.780549955727
-14.7569430850099
-14.1961341625307
-14.1333355716448
-13.5359293460671
-12.4588389014066
-11.9053664397287
-12.5653966206405
-14.0201567738882
-15.4360179861006
-16.8856972901425
-19.585224495216
-24.5918868510676
-31.3285168744814
-37.4996808444492
-40.4252846148191
-38.4661490786158
-31.4911414908
-20.5372161939479
-7.36477500506293
5.78723720910357
16.2877602952699
20.9405571223008
15.637103035363
-4.19148720667297
-41.1676723797945
-92.3963599463308
-148.120271364147
-195.519019177152
-225.848266051362
-238.602179657148
-238.102838771279
-225.661228709596
-196.063297265623
-143.068995232886
-67.9213209952045
20.2973441360058
115.561872178427
226.293617691257
372.942052949293
570.60175426644
812.472969070055
1071.27760307923
1317.70598967222
1536.14756215749
1719.95665528803
1851.15420472727
1888.92795086735
1785.22786313949
1518.58327775467
1116.83942333187
647.638532664097
184.35955083415
-224.227993205026
-559.603276548522
-818.667948102784
-999.113170172178
-1098.74902474158
-1123.75299601029
-1091.96930211727
-1026.11410605557
-944.985888850789
-862.254692711255
-791.60404820589
-748.243604145676
-741.178916398548
-762.958207748126
-789.16592805953
-791.726094036091
-756.601258004794
-691.776129386982
-619.896548060741
-562.659453128085
-529.1457804289
-514.759024469582
-508.232163704759
-499.596439383584
-484.044203632
-461.285412799487
-432.920321400043
-400.4328484826
-364.961370035187
-328.379726094495
-294.142768344887
-266.43977222424
-247.700697842342
-236.368900892087
-227.175154923814
-214.192082656071
-194.41339719881
-169.065998414678
-141.930506336574
-116.496429632092
-94.3159137254959
-75.2676748482828
-58.6529995011533
-43.8635433077106
-30.4222502427314
-17.9304448801096
-6.171756504591
4.89258810671775
15.3833921074738
25.6754558213705
36.1412880455315
46.7192746229122
56.9016398883988
66.264510256096
74.9455653942812
83.4840497555608
92.2080213171118
100.899166634064
109.083675718297
116.504127515414
123.162894918736
128.973724712036
133.61736631703
136.913167652562
139.283781843619
141.69998918191
145.10576108293
149.931601949494
156.128887023087
163.478675932323
171.668620189204
180.097588704699
187.859687485093
194.160694484879
198.794053911648
202.132113318048
204.648092787595
206.544028092739
207.864595839921
208.788636485102
209.55441120419
210.033809376635
209.567699057693
207.451103665915
203.635603769563
198.861686599082
194.058890587591
189.703818266839
185.829125157283
182.527618284463
180.185405119184
179.085434822574
178.905365227187
178.832516256925
178.262574581095
177.303572660363
176.523750933987
176.278776505532
176.398975982716
176.491809006972
176.344814172228
175.886397455541
174.846246436668
172.699298562362
169.088816796461
164.245597435803
158.871368343949
153.603535873853
148.668518000946
144.033011138899
139.702894028262
135.688017521883
131.702723563083
127.12825452817
121.471217278717
114.874938078469
108.084968990321
101.878506074596
96.5804916476488
92.1321681777278
88.4710361971126
85.6435285892825
83.5162581002396
81.5589688215097
79.1221924639575
75.985147407117
72.5557389991802
69.4837040693027
67.1166994223456
65.3489906466906
63.8780536295492
62.4232719035422
60.6479049001791
58.0417952740135
54.1248949674524
48.8718506923934
42.8741779034732
36.9990995757433
31.8817902458294
27.7520560451349
24.6422021023198
22.5602557726164
21.3481404621777
20.4702929028275
19.1583017363936
16.9024451340867
13.7996393916227
10.3890627780075
7.1909957404839
4.46008887542767
2.30595794564493
0.825545917152706
-0.0725316240439291
-0.944237887942315
-2.70024937879695
-6.02605497008265
-10.8550127936243
-16.4382329359482
-21.9225173014595
-26.8260708493652
-31.0158235570659
-34.4316114136004
-37.0442682907569
-39.1040357457168
-41.2456364368377
-44.1403356793823
-47.9708446036628
-52.283292170413
-56.3694134224894
-59.755468613806
-62.3347253348683
-64.1790836262701
-65.4245196335002
-66.3991996566969
-67.7113741855217
-69.988677557604
-73.4179213221526
-77.5605946775511
-81.6567791975184
-85.0960449028072
-87.6029387697346
-89.0991402638821
-89.5961967103065
-89.3292052187002
-88.8882245691778
-88.9935631589817
-89.9869244778142
-91.5294816456608
-92.8396465570991
-93.2305195038738
-92.4202614616276
-90.4248670424864
-87.3484180661836
-83.4171838145869
-79.1612138108841
-75.3535029888341
-72.5853887691817
-70.8473447577581
-69.5540835450901
-67.9958796297234
-65.7742047584344
-62.8851113434997
-59.5606156705896
-56.1793516611153
-53.304898801972
-51.6126830497234
-51.5644697471664
-53.0559289042227
-55.3890763541593
-57.6147911541824
-58.9327012743342
-58.8654392736037
-57.2565892397513
-54.3055498894529
-50.6458551883298
-47.2341922193383
-44.9417264670368
-44.1108418348937
-44.4621329361047
-45.4041613442009
-46.4023345542923
-47.0908052402417
-47.2016652870707
-46.6058185213326
-45.5169749430307
-44.5528081896655
-44.4043869708351
-45.3218039883474
-46.9062541718999
-48.4132796318817
-49.2388991834845
-49.1243816156772
-48.0220082958692
-45.9737003367344
-43.2435369718456
-40.4867173957045
-38.5705280413289
-38.0494227562406
-38.7637703913144
-39.9724748405174
-40.8853353622864
-41.0789142814048
-40.4974880234135
-39.2481399035038
-37.5553626857858
-35.8928626227448
-34.9616538042581
-35.3183698294414
-36.9144016508042
-38.997455731307
-40.4972136919561
-40.5564157627522
-38.805157575624
-35.3242061254153
-30.5361671574349
-25.1759053618135
-20.2230485620604
-16.6357225447238
-14.967936532471
-15.1478299025796
-16.5781604716863
-18.4422908151014
-19.9902401157379
-20.7120584915716
-20.4404401463016
-19.3831436662347
-17.9980709836642
-16.7038404081013
-15.6124124733132
-14.5021339863788
-13.0219959477981
-10.8931908016368
-7.94374308089391
-4.08402074514589
0.577591484850529
5.52505272370803
9.83848354108545
12.5934069429609
13.4000542848717
12.597396608021
10.9194156751649
8.97423927768114
7.01799177770607
5.11030785521092
3.30021712143662
1.54133921358729
-0.516175126007312
-3.45646738457265
-7.64005339400961
-12.7376779200052
-17.7272460345724
-21.3903285148583
-22.8821181588182
-21.9622321208938
-18.8832679752959
-14.224305641736
-8.83170357497006
-3.73699800455952
0.119204498481068
2.27087388534292
2.9264800129069
2.81408279779905
2.80211789584264
3.56333332545808
5.41406559314945
8.27717670786827
11.7067904932286
15.0155679285247
17.5455041664618
18.9773858082213
19.4743097451323
19.5585289801705
19.8294836365902
20.7161417384646
22.3545439959663
24.5543630740782
26.8206851916399
28.4749813990179
28.9094929497489
27.8842249747693
25.6878601541408
23.0574978389891
20.9156830368538
20.0678549090955
20.9601805379678
23.5338392840175
27.2135022425142
31.0777482402202
34.1836281781049
35.8969875980508
36.0598636028804
34.9532679509402
33.1505635860829
31.3542873328643
30.2103261076421
30.0747830243156
30.8255355218725
31.8947299934359
32.578105477489
32.4337553806327
31.487689191924
30.1422900757487
28.9421281866919
28.403946232669
28.9401266932231
30.7570256203191
33.6913855780293
37.1379520709921
40.2374696167302
42.2703568224324
42.9862206798082
42.6472822166245
41.8176821518286
41.1022410119368
40.9705738929136
41.6423716564075
42.9842203001929
44.4807292401575
45.3900332382043
45.0632142943826
43.2399620149261
40.1372530414703
36.3229791303492
32.5076721549316
29.3572721763109
27.3232411785134
26.4773505570413
26.4325572817414
26.4645660243086
25.8258955542574
24.0820721136461
21.2792677327879
17.8894558887693
14.6167924986592
12.1696750872941
11.0549785765601
11.4365596987198
13.1142127581043
15.6406427778003
18.5050270528099
21.2811932556791
23.7139724289484
25.7859581029065
27.7501084397332
30.0128935321794
32.8132201011765
35.8821930086754
38.4097418780831
39.4347213346076
38.3710626511671
35.2387515223418
30.4885677732956
24.7372857069078
18.7435060603704
13.5300985397327
10.2494054344087
9.64185678996481
11.4966778873757
14.6841771196777
17.822694072007
20.0134777389486
21.0506018146718
21.1105652723243
20.4298327117035
19.3175644075865
18.2946065495483
17.9393081630519
18.4189232339225
19.1618113754111
19.0584207326806
17.0475494364029
12.5975582745275
5.80218737205326
-2.76345353635155
-12.182171216258
-21.3336136000783
-29.174871095952
-35.0942512438461
-39.0444887673265
-41.3235162292689
-42.2612987537462
-42.147995132636
-41.3561635364846
-40.2921686517106
-39.0564169071156
-37.2175610833299
-34.1488621125397
-29.7389785409366
-24.7311627764205
-20.2539900304571
-17.0106588714554
-14.9924048500952
-13.9353226985887
-13.8325190957858
-14.8037260373676
-16.5362597722635
-18.15075041539
-18.8389203174087
-18.5971396968984
-18.187966340573
-18.3891741857438
-19.4366454033181
-21.2198211732492
-23.7321281451475
-26.9798491157415
-30.4487709130203
-33.0483148954019
-33.9209385587677
-33.209021349405
-31.6523370632783
-29.3253964012222
-25.1684576678306
-18.2495830315351
-9.48769689864775
-1.62829194057177
2.88868923133891
3.87962356383369
2.80008986694065
0.114820082202357
-6.18388946162997
-18.8071125665851
-37.8280810376128
-59.5597167721125
-79.2501328558446
-95.1020601732269
-109.766433135125
-128.174576543925
-153.957368621516
-187.037734593588
-222.793283632124
-252.035906460496
-262.324838894674
-241.945825816939
-185.406443406173
-95.7215426022732
20.3623193737494
161.316048364713
334.951585840103
551.36230703024
809.201482937991
1088.13267677876
1355.87980222665
1583.96525998842
1756.60112483631
1863.67173010702
1886.08901338447
1792.11852088257
1554.41540720359
1176.71970876984
706.811560903825
221.531872337052
-207.259264345715
-541.175277527592
-779.318373713399
-939.895920891943
-1038.3710256926
-1079.7963392828
-1067.15649665532
-1013.08344901861
-941.618482359768
-878.129242434966
-836.88056646161
-816.857451500355
-807.833028682401
-799.674735424263
-786.801571748965
-766.294337430583
-734.874095813739
-690.017609458719
-634.503139405773
-578.597371916356
-535.650837472973
-513.571530974161
-509.374964864467
-511.617991306971
-508.358238917487
-493.659444376529
-468.035630410421
-434.573490780439
-395.917201872261
-354.7411382445
-315.477299372753
-283.690538563978
-262.774966198719
-251.238746892598
-243.446322160471
-233.064574999439
-216.06653539049
-191.460391129619
-160.688650452559
-127.241789415044
-96.2057028108364
-72.3858259998468
-57.3384135055244
-47.9683764335581
-38.7596865561871
-26.1221864206149
-10.8049710557763
3.86867491409875
15.8070998007578
25.871529549501
36.0443906328099
46.6666341297542
56.1071005078102
63.0036816533152
68.1325242698383
73.6724278923548
80.9648441136513
89.5626468633612
98.4817369314034
107.743202844337
118.134804964448
129.637508202896
140.759465044068
149.800757990906
156.528440204719
162.20861466584
168.044862799262
174.022083150365
179.469755627134
184.351095658992
189.419495314532
195.02649372489
200.259261544256
203.69985935728
204.96008446202
205.091817592482
205.388332756845
206.112219806712
206.683400404119
206.893179929312
207.396670962476
208.783007895381
210.499458175519
211.168108614375
210.023445699909
207.701666939595
205.405010518814
203.518631592349
201.402135920359
198.501576513422
195.2195241444
192.368781806037
189.972785743766
187.087465516645
182.995648892494
178.29997413343
174.506577486088
172.573083937936
172.161797865958
172.385255485425
172.935408578581
174.105498922363
175.778153994874
176.864507970067
176.090974686235
173.243941092031
169.34648122704
165.565313068473
162.189065846233
158.811205316429
155.24761962177
151.853869746852
148.853809152389
145.704531612357
141.494417941772
135.968790406455
129.902506785846
124.35817067718
119.777618895163
115.986801503208
112.918682217935
110.919915594739
110.158293446022
109.973205665853
109.17924338579
107.082073118607
103.972001513008
100.487489527043
96.6885087647086
92.0309390581987
86.21505039473
79.7146677132477
73.2413334247144
66.8659626531661
60.0311355307535
52.5190816426163
45.1236963548281
39.082006931187
34.8956176169781
31.9625621298005
29.3955121309779
26.8861954911771
24.4853845089252
21.690906939248
17.2425169274032
10.1374394963441
0.729920384316091
-9.45591296511913
-19.022172659997
-27.5666492893456
-35.1827629264564
-41.4300975745343
-45.2751257472059
-46.1799618646598
-44.9391841613636
-43.1027386294121
-41.5964565305017
-40.1810195906825
-38.3445423077862
-36.4387919964614
-35.615144021283
-36.6805986973395
-39.3465896725203
-42.7797033423796
-46.6724155269451
-51.4328973922833
-57.295973836937
-63.5706434518705
-69.0406860907512
-73.0390459522415
-75.8889903812051
-78.2659397668891
-80.3892146756166
-82.041573787288
-83.2168094508843
-84.3692062743331
-85.8596017656706
-87.3580851171347
-88.0692413716801
-87.5597533884111
-86.1725296236799
-84.5739389779509
-83.1189024768005
-81.8844679197723
-81.2132366121648
-81.8363378130654
-84.204863332348
-87.8099562919922
-91.4225970224545
-94.0593625129308
-95.5458417725271
-96.071175331606
-95.4467108515266
-93.1490898020688
-89.1318324731237
-84.2786792073244
-79.7591396925883
-75.9756647831084
-72.3891779611154
-68.4441397709699
-64.429995780041
-61.2074871430685
-59.1903651654766
-57.9155085983259
-56.7402374101586
-55.7208603577523
-55.4936715143896
-56.298224223684
-57.4229748379863
-57.8247906210191
-57.1700073447079
-56.0218067054374
-55.0133228653453
-54.1195351077691
-52.9249250438844
-51.415405581687
-50.1409404056156
-49.4877993749924
-49.0440441388302
-47.9570275213358
-45.8744668656916
-43.2785451012842
-40.8157027210593
-38.5394521771504
-36.0652070043499
-33.3765682981802
-31.1164022703449
-29.8812088634075
-29.4205281275005
-28.8609733412733
-27.7775034378262
-26.7967100192936
-26.9553991987063
-28.5956028324236
-31.1458343829325
-33.9753389760968
-37.1226849257898
-40.8968975686571
-44.8729308297566
-47.6640255902261
-47.9158144549814
-45.4258880231711
-41.1210060953861
-36.0247658663616
-30.519158552525
-24.6880139661543
-19.0716797365417
-14.6750869640743
-12.1356028762896
-11.1179563696853
-10.7335000310113
-10.4722877599368
-10.5242105935793
-11.21396961842
-12.4111310741603
-13.7033523271181
-15.0050209831209
-16.6671737653242
-18.8740981688761
-21.1490386034699
-22.7027870461915
-23.238068325925
-23.1839054349543
-23.0639187025178
-22.8422525881961
-22.1081933465868
-20.8163551777583
-19.5265156747533
-18.7463738286047
-18.2160745706931
-17.1247492763533
-15.0678413990762
-12.5707333440031
-10.5259427054096
-9.26103291241623
-8.39431613916503
-7.57986269364574
-7.08605529739583
-7.41099884724093
-8.456464513772
-9.40449812092788
-9.53636052484359
-8.99237626696902
-8.52924196357219
-8.60999601964284
-8.98121390022072
-9.19596550872916
-9.28177344782887
-9.60763023411306
-10.143297964805
-10.1781031623303
-8.9859242747084
-6.65253533494666
-4.02087373084564
-1.82312065146911
-0.0908091790550429
1.48065280426354
2.82251814604314
3.48193922271415
3.35888055689547
3.16082147296224
3.85383073868009
5.70452252008256
8.08582078094565
10.2705219165812
12.1925871035859
14.2490784160781
16.511066011489
18.4828013707607
19.7718170537089
20.7552276722421
22.2747761206223
24.6621741954498
27.3095862636647
29.3310207621933
30.4748172649461
31.1659154746639
31.7372818805526
31.9702814212541
31.5904360667508
31.0051628346844
31.1721074953696
32.6199773425627
34.8114965713121
36.660507153338
37.555792420661
37.624356716814
37.0136917076542
35.2940310149645
31.9018478048924
27.0862282091839
22.0394423518964
17.8874847893056
14.7176942513333
11.8344685693593
8.88977011272384
6.42850800136948
5.17657255217618
5.05959348716249
5.2896660429323
5.42499818082393
5.98036286931031
7.71697331978972
10.4759924994939
13.0652488149396
14.3928540507839
14.461233091825
14.0439842875426
13.58154704871
12.7991716174158
11.5151253584115
10.4585427218221
10.8550798286178
13.1647622675382
16.5283739623406
19.6343694400031
21.9413640096146
23.7925828099684
25.4395726001945
26.3938234485749
26.0156959351358
24.5345802985471
23.0645221865247
22.4776276364494
22.5085865308602
22.1929058929638
21.0482174940902
19.51359295088
18.2050074593412
17.1008565513936
15.7783563995131
14.3246031435082
13.5977431026776
14.395338370193
16.5908172265778
19.3737705245181
22.263591730571
25.5436639159979
29.5766013218162
34.0036549428172
37.9842348601075
41.1596912579576
43.9474657961362
46.632301571559
48.4255646358239
47.8716924715829
44.2834247176042
38.4796701542662
31.9147648401424
25.3452946854542
18.7704421255998
12.6501810914623
8.59635851422148
8.302972020288
11.8047368875391
17.2084320975041
22.3458874410675
26.4404104215225
29.8948218239699
32.7178485932638
33.8123684522263
32.1387264477529
28.2147265848899
23.8700276365941
20.3865371456496
17.265587573223
13.1093817499654
7.44702043220693
1.21173135821586
-4.58851414407154
-10.1119720752473
-16.1558067296144
-22.6294320779525
-28.1877951069876
-31.6460127337279
-33.3784918508581
-34.8540001460252
-36.8800948529672
-38.8166562543454
-39.7089802918918
-39.7198822644602
-39.8580958991528
-40.3519805930969
-39.9524934810176
-37.3021437228331
-32.7223150572748
-28.0722302843897
-24.7571641854017
-22.3776563596589
-19.6954939783348
-16.5581915330534
-14.1706846673954
-13.332924066982
-13.0449401938018
-11.4787097074004
-8.18614894544493
-4.69665051213554
-2.70180951797608
-2.17614306268312
-1.83890404391693
-1.20453726137669
-1.32389530676335
-3.13139088916362
-5.68937852222041
-6.91687137868227
-6.02522812699694
-4.36159940955277
-3.31646726251495
-2.02218751515982
1.78495867175038
8.42560521198593
14.766869667131
16.9545725688939
14.3661538939836
9.77783481079256
5.23432186117854
-1.27394302509295
-13.7973176484587
-33.0837897447449
-54.4028949359974
-71.6261074270603
-83.2771125566375
-93.9399775855173
-109.883578575483
-134.02554423925
-164.763032469273
-197.359608984675
-223.989606227247
-232.774100472187
-210.50165877672
-150.308938458088
-57.2719069019035
56.6565823557289
186.388384474925
342.150815382754
540.915525738975
786.390377409653
1057.34653235127
1317.45453064709
1537.25838725704
1704.92546717196
1814.11031200154
1843.48582496671
1754.34446104726
1515.48955526132
1135.36619757433
670.992192019638
203.228861698775
-201.965438698117
-516.284303563163
-743.341265750945
-897.45844989297
-988.595846023804
-1022.50759501083
-1008.43123433491
-962.544799573144
-904.019386385421
-849.027419806193
-807.848588250281
-784.781641851841
-778.155814275231
-780.259765047967
-779.377278410191
-764.496354520906
-730.070103419706
-677.940422330896
-616.263881365508
-557.053871141002
-512.85734908619
-491.941438592429
-493.199638723096
-504.856698875653
-510.035010794852
-496.498210617383
-463.138795070159
-418.024937016663
-370.597971286552
-325.809715646137
-284.974924782349
-250.373121416118
-226.847353669486
-217.76779507136
-219.717170514555
-222.190630157845
-213.621326040845
-188.834354494881
-151.946903990715
-113.092827996789
-82.1943340701838
-64.1450468585996
-57.5730914221995
-56.7969965642274
-55.3829378737158
-49.4443849751606
-38.9713133714337
-26.4838649159587
-14.216197752831
-2.31146465086526
10.4868327431007
24.7363508156426
39.2785740847705
52.3825637406276
63.5589234077463
73.8743005987691
84.5357983581483
95.5892043790297
106.241034703313
116.140957413725
125.797937823202
135.580948700055
144.71172743281
151.712935057145
155.886716400808
158.046658249211
159.64590608779
161.410733147127
163.081785610231
164.344731054991
165.547605285953
167.244771639105
169.280415306883
170.764851070349
171.09008427573
170.723170227879
170.774097427457
171.891217094785
173.835874664519
176.126205883406
178.746148693725
181.93172928925
185.391676389799
188.151391058591
189.405217547342
189.39438536225
189.215701996481
189.766771644004
191.06056291101
192.59733714023
194.127752253876
195.745598214687
197.259845483204
197.814861064241
196.407491377277
192.752605400442
187.473068415798
181.436091114218
175.082584292913
168.481648529092
161.8253270603
155.557789460906
149.958284987548
144.838638808547
139.884650834424
135.251410836878
131.603283577981
129.481617893111
128.770047272941
128.901865145642
129.469689095202
130.38217878809
131.376814968674
131.650877459079
130.296238289623
127.157235175193
123.070539445783
119.112790999023
115.673317341031
112.368413264575
108.760320800215
104.885504936458
100.945554616084
96.6822043377475
91.4062360201985
84.7937020884393
77.5193404616803
70.9212512047239
66.0271707063803
62.9835121566786
61.3596413568242
60.7394031389986
60.8104539685322
60.9856404638436
60.2809703537193
57.8231730033784
53.4780116278623
47.8716237737007
41.7986463893582
35.7083174700358
29.7473911441101
24.0677473129692
18.8358037082764
13.9293456678956
8.85718020793468
3.18848747944627
-2.94170891001274
-8.87258425243187
-13.9813128200864
-18.108930355312
-21.4013931778315
-23.9007671786238
-25.5193407325527
-26.4435437200342
-27.3457735788715
-28.9635994998743
-31.4366641653159
-34.1777634111295
-36.4549542001218
-38.0221573160391
-39.1251146159096
-40.021918207505
-40.7276624702352
-41.3005578803161
-42.1910793874934
-44.0546556375778
-47.145441779478
-51.0058280214479
-54.8439116549717
-58.1646063944475
-60.9587983732115
-63.3676139337759
-65.3882952124244
-67.0275198643152
-68.6026763131744
-70.6340459193457
-73.3263478559934
-76.2509431576746
-78.6591415675226
-80.0936532701327
-80.6191876166603
-80.5137488023053
-79.944539357925
-79.0863083715131
-78.4371902870858
-78.7315113548048
-80.3614403816142
-82.932201813776
-85.5112805630497
-87.3246450471297
-88.1351310060069
-87.9835768661812
-86.7935850735171
-84.4539602772206
-81.2607047311121
-78.0211093009701
-75.5044563395189
-73.7932114110075
-72.2940173055133
-70.402626283266
-68.0451908093492
-65.5248785384131
-63.0040875771152
-60.3703359490951
-57.643562035456
-55.2953627175576
-53.930945575934
-53.6360661378651
-53.7838483817173
-53.5640596572842
-52.6222424005815
-51.1084097537947
-49.2240703737452
-46.9654811084271
-44.3995729164063
-41.9987623264209
-40.4245561399102
-39.8942807722659
-39.8909067367804
-39.6125124208166
-38.6476218300586
-37.0968881081293
-35.0990179033765
-32.4892356061447
-29.0970360728102
-25.2679264378833
-21.8148252742039
-19.3164133933411
-17.5756317363816
-15.9347044629685
-14.1093999198984
-12.5586530257085
-11.9819490829025
-12.609181124187
-14.1526387635415
-16.3859789583457
-19.4876940275183
-23.611915979682
-28.2007528791769
-31.9615358210377
-33.6610086096474
-32.9122606213292
-30.1695720004525
-26.1105901459279
-21.2323334971392
-16.0463287995073
-11.3843700796061
-8.18750113076072
-6.89248707526554
-7.13271518803299
-8.12992786950628
-9.32787848789849
-10.5859401782498
-11.8733529043268
-13.0223069117076
-13.9073467379777
-14.7359427401894
-15.929592066629
-17.6375339449019
-19.4799563111946
-20.8847389906949
-21.644146911987
-22.0476284286561
-22.4994272697424
-23.166844302636
-24.0881352201203
-25.4833633949657
-27.707287322004
-30.7855560652082
-34.1039830327863
-36.706576137639
-37.9234340516879
-37.6561919812432
-36.1102263826546
-33.4541194761186
-29.8864817665761
-25.9261262961922
-22.3530790423369
-19.6819846549704
-17.7459502188124
-15.9331287141133
-13.8367105345511
-11.563506947595
-9.39712607637196
-7.35270675117014
-5.27276727546992
-3.33241751181671
-2.19178356207887
-2.43720865146102
-3.90636565064029
-5.73605111472827
-7.12883230260788
-7.9543228114698
-8.52011524687801
-8.89876518637943
-8.7292705500122
-7.74058187112846
-6.25578826552735
-4.9348781431461
-4.01621482102016
-3.01302793506051
-1.28454146826053
1.1931130819011
3.77625657636601
5.82988367738669
7.25184941411612
8.2392561201614
8.72975407564158
8.3717225118403
7.13286462447039
5.74491203143369
5.32226628553359
6.51673832687254
9.14935051586838
12.6514030101007
16.6590891352744
21.0170648272691
25.3249860348325
28.8049483407281
30.81901796486
31.4437007435447
31.3638349514157
31.187991720928
31.0017187221603
30.6268406545838
30.1266801550408
29.8307234439876
29.8787328962837
29.9880333759456
29.8517240714807
29.6761932949184
30.1058996430981
31.5583227823002
33.7840804506033
36.1966459260568
38.5153878577253
40.8688773808507
43.2612745688633
45.2058044749396
46.1365708461304
46.1365864944478
46.0001849046077
46.4359794168406
47.3302569167316
47.9594074478964
47.8577099017224
47.233081569836
46.449171627646
45.3466136435761
43.4000223164169
40.5791972460131
37.7786271381136
36.1522881988776
36.071086576607
36.9231957271555
37.932035004687
38.9148043733024
40.0622332572104
41.160949017745
41.4276545009299
40.2895102999201
38.1342763864406
36.0155966942809
34.611028169109
33.683209916712
32.6392082279844
31.3818235911072
30.335831359753
29.6947213459507
28.9983477080142
27.6907146311327
25.9439767398885
24.6159078586218
24.3249007702892
24.8012577532918
25.3231657748272
25.6179779911195
26.012510749612
26.6639088032665
26.9896798645837
26.1771962149609
24.1636915020905
21.7449017228871
19.5546705015973
17.1803345517826
13.5883992592579
8.36467586967613
2.19067021099374
-4.0449312709687
-10.2982142617373
-17.1435959992458
-24.5291546667003
-31.2037686364877
-35.7243223720069
-37.9006013810336
-38.8901033401861
-39.8202844835064
-40.6702271456166
-40.765547690682
-40.1051925613641
-39.6495681191878
-40.1127359015679
-40.8635050318097
-40.4901487576967
-38.4230198712769
-35.5716215968109
-33.164551510821
-31.3118617277486
-29.1591743583508
-26.3664655697735
-23.8400463762507
-22.6224436992278
-22.3695514875661
-21.5393235215278
-19.2386540897104
-16.4226130622882
-14.8446381070774
-15.0191767270469
-15.7658606443868
-15.8783783380652
-15.6931470171288
-16.4663792597045
-18.3808161582926
-19.8774226236012
-19.3293346979956
-17.0094955295885
-14.8856670241452
-14.5556977005405
-15.9144513126752
-17.933067628874
-20.0041028997992
-21.7733021035028
-21.9576173193459
-18.5320138446483
-10.8450039464028
-1.05736467318422
7.3892963031975
12.4915777965362
13.5138543543513
7.47154123643662
-12.5486335585212
-52.4688972931715
-108.840681162333
-166.525845665154
-207.49517917892
-223.57874758798
-220.044197852949
-205.829209684365
-181.2929903642
-137.753111498437
-69.3719258797779
17.6385775846159
111.723192616735
212.886878786119
339.638606889157
514.419736539476
739.916203691897
990.824978618286
1230.43309095808
1434.32872640756
1595.29208948309
1704.60010911928
1732.85680901209
1636.47021114304
1389.34286623245
1011.38191122816
566.201693280235
129.050072999222
-247.566468774752
-544.860731571874
-764.61905113281
-911.661929622374
-988.739002821907
-1002.63813262198
-969.076725237091
-909.349935761171
-843.216463529116
-785.336971430179
-745.687134320833
-728.964977964589
-731.381231478316
-739.68787863685
-736.983886153318
-712.344218656997
-666.227661397377
-607.708595891919
-547.898334234433
-496.270047375382
-460.720577520963
-446.504945290839
-451.568455702352
-463.143042533266
-462.413688731226
-436.482469502923
-387.879577758039
-332.48111406703
-287.325535745054
-259.307881647743
-244.017074556889
-233.429591973387
-223.369364040997
-214.089932083818
-205.814025201864
-195.72823987328
-179.740648850498
-156.367086295218
-128.35073797023
-100.849000743278
-78.4562930522945
-63.3521921643921
-54.8256851254
-49.5701647429104
-42.9007727350112
-31.1517660338948
-14.0241889695422
5.31080837087694
22.8970736732762
37.1072009378296
49.1905290731474
60.9962993707959
72.6525783808469
82.7434013666366
90.3909055907252
96.4893417602702
102.667816480561
109.487259957331
116.170938024632
122.009078542325
127.421647887551
133.272903984066
139.45630093287
144.748241176787
148.217258141292
150.388741593164
152.655765328559
155.680617001051
158.788644295098
161.019296401351
162.371305436665
163.630289495098
165.115375582541
166.115022669568
165.833260269406
164.62906275196
163.900051262976
164.690585973541
166.723408916018
168.976139256287
170.948211985146
172.971000138569
175.27727646458
177.214360725809
177.764901358325
176.76158853202
175.214033721249
174.277084928368
174.113973994029
174.003396253246
173.421182093529
172.629770164747
172.061841937458
171.436726599712
169.899751532243
167.081023751863
163.695779555139
160.847739637031
158.850847160048
156.99724751848
154.486213820427
151.28173280684
147.849928242806
144.253426782268
139.922932557073
134.492497467569
128.623102636336
123.679235689441
120.551600534306
118.987394797101
118.135225618389
117.508081292713
117.149655154928
116.936006689189
116.106551156484
113.781523154717
109.870238502989
105.20491096354
100.691022704363
96.4907896050605
92.1716479638618
87.5067765429595
82.8438420306946
78.619974239303
74.7627759090138
70.8361877596514
66.7476960746651
63.0459466589815
60.3529525913644
58.6015826222978
57.0035623455619
54.7443125043141
51.5264553866908
47.3852283155949
42.2149418248139
35.7926133369967
28.3214773433365
20.7115505661668
14.0840656449793
8.98781022426696
5.20811387881182
2.30126291563318
0.092619487178542
-1.47741912944382
-2.80711441448682
-4.5778574288802
-7.0854397033403
-9.78268410628559
-11.7194864465188
-12.4664182946828
-12.4656547551065
-12.4439700105111
-12.6876759217952
-13.108317015486
-13.9393341379512
-16.0187025908774
-20.1174314830316
-26.0489692283292
-32.6804748550521
-38.9131093459589
-44.5108767307933
-49.8466400357734
-54.9739080544901
-59.2366830371393
-61.8976951451169
-62.9525054074679
-63.0776687059433
-62.7912275154016
-61.9183539583452
-60.0616132568862
-57.4928867989574
-55.3456798059813
-54.847602886002
-56.4762039648368
-59.9283258233754
-64.7355645392176
-70.6285328755217
-77.2327157982912
-83.6546955148311
-88.6864448217183
-91.5329923149463
-92.2681784192596
-91.5485074248988
-90.0006307492692
-87.9847553214419
-85.8173486061364
-83.9081307229712
-82.4745070771883
-81.2048870141267
-79.4286692082549
-76.7228623015483
-73.285710776625
-69.6663492441527
-66.236039240529
-63.0670291031906
-60.2802999752012
-58.2570368528796
-57.2963933302892
-57.1083604659682
-56.8600037952342
-55.8537797869825
-54.1070991862381
-52.1855512871791
-50.539020949911
-49.1590828541473
-47.8970858360304
-46.8986338075762
-46.4850477629918
-46.6006910407374
-46.5905863564926
-45.7016515229237
-43.7784029483062
-41.350528728646
-39.0477846032289
-37.0768692671613
-35.3373119885596
-33.8791718898139
-32.980203125617
-32.6925526731922
-32.4947456122949
-31.6154863497285
-29.7400653386446
-27.2874563828286
-24.9512194597251
-23.0833901408957
-21.6294729054902
-20.5560802364995
-20.079415036053
-20.3310715283698
-20.926348118126
-21.1026802151184
-20.3813943491751
-19.008612053108
-17.6733956395449
-16.8749107365627
-16.6855677589611
-17.0721402061127
-18.1943535409347
-20.1878765321565
-22.7156859051217
-24.9687013276312
-26.2532383304067
-26.5262020040034
-26.266204799482
-25.8818654133981
-25.3990112741533
-24.739630421148
-24.0966799094473
-23.807307956356
-23.8621932183831
-23.7549406364336
-22.9798044293993
-21.6265836849726
-20.3435086947885
-19.7069123713245
-19.7602226054198
-20.219485083511
-20.9486734633083
-21.9826329297471
-23.0562274595342
-23.3619782385907
-22.0421062609811
-18.96138548717
-14.8675599454085
-10.7487630402704
-7.16394364583761
-4.29639964187686
-2.48946253781213
-2.37442034286136
-4.27116515714471
-7.59535756736034
-11.1264032721787
-13.9532954175737
-16.0333968662061
-17.7410939658598
-19.0267042151125
-19.2704131210458
-17.9978166303704
-15.4996685149646
-12.5231642529222
-9.4212725458524
-5.87927713588616
-1.61538444959373
2.81516936083285
6.1654410572404
7.49003695850723
6.85055903765766
4.98194507635959
2.45591983437858
-0.578110534813405
-3.84897401748546
-6.49255803809643
-7.4405947908887
-6.31110756183852
-3.74316826324182
-0.769488825757598
2.02844183457693
4.6550279595135
7.16444148562569
9.31366755471521
10.8931047789163
12.2158920843208
13.9816091583812
16.5624356626417
19.5679100677645
22.2363194974704
24.1700329602682
25.530765591018
26.5534030203907
27.1247444093489
27.0290526325198
26.4960517081563
26.2128765245569
26.6412306359102
27.4312240006521
27.6762971132835
26.7390398089096
24.6972615082739
21.9819887943001
18.8045496795028
15.160756186938
11.3413633751006
8.14247614430681
6.34868101229135
6.04940271371298
6.62290842537011
7.40726479958553
8.24298070601409
9.30579538610674
10.6109340179473
11.9610212329039
13.4167512888252
15.5587752276248
19.0199881240954
23.7550553758587
28.9482966719634
33.7094552554251
37.7217734699936
41.0915638117422
43.7119001028167
45.0916298442566
44.9488873547518
43.7772227294027
42.5367362847891
41.7341974070159
40.9974287274708
39.6805757225189
37.7475973888582
35.8349680208226
34.4582114341829
33.4280649677954
32.2401059496031
30.8845664074207
29.9278192648873
29.6597130722601
29.3764278133615
27.7932676212042
24.1995109970978
19.0317503290053
13.2616946714763
7.45605984723358
1.70068912431312
-3.62314042899933
-7.38739764549122
-8.37283239853765
-6.36303340379717
-2.37752596985877
2.2493965969036
6.87484133463082
11.5607464068112
16.311597557608
20.6590400787714
24.1202328422821
26.8272286177153
29.4005148643026
32.1688386097864
34.7099882730088
36.2552286372354
36.3851287285895
35.1493922201774
32.6132669062169
28.6259776233565
23.2240420651956
17.0839090105809
11.2637216833344
6.42896194159832
2.53669277448066
-0.586619284547748
-2.54964611071454
-2.59009205609559
-0.506012740291055
2.88117606799079
6.41754569442618
9.63792363247073
12.7834464546151
15.7466861115363
17.3438282089912
16.0218661175039
11.3129074342905
4.31569852699528
-3.39335498389339
-11.0992897752533
-18.9450139755698
-26.7441404216541
-33.3111786828973
-37.3388072119858
-38.8050896538669
-39.1126130957418
-39.6895432930808
-40.6881345641239
-41.2644245298001
-40.9204686654365
-40.119657663724
-39.4542747227782
-38.6071475740239
-36.6145579034399
-33.1699896871612
-29.2635647967224
-26.264936309164
-24.5741918222957
-23.5211402628274
-22.5416435084568
-21.9863747584995
-22.4586333219251
-23.6268670225939
-24.257861253251
-23.6252094081985
-22.5264584432835
-22.4901553636078
-24.0320514433112
-26.0923651082134
-27.337073082254
-27.6511206940184
-27.9362842993344
-28.5504036409216
-28.5067860775489
-26.5717922872495
-22.930960614872
-19.3401617951173
-17.5699953825335
-17.9772940815205
-19.6264395046926
-21.2969437976743
-21.8806799324572
-20.0843699853167
-14.7155696440297
-5.92594757693161
4.12409414263983
12.4860257874963
17.1818691596371
16.7768167929464
7.75670061738469
-16.2832707627671
-60.1531395975056
-119.942010849309
-180.985152418393
-225.379273667744
-243.680655077898
-239.704318212738
-223.375700997174
-198.954015303098
-160.943670072567
-101.283077984402
-18.359518277479
83.7164445046364
205.15507317259
356.980337526435
553.468451124104
795.810956471974
1063.77369336307
1325.17342012199
1554.01071259745
1738.01921193889
1867.44104996898
1918.0918819482
1850.28612200989
1630.81103610688
1261.79333598539
791.469391589421
296.301043225982
-152.581626932134
-514.702171760914
-783.053913253387
-969.03797856808
-1085.201431259
-1137.97047227764
-1131.40836493458
-1074.88620808476
-987.046533940422
-892.949081170625
-816.219555471684
-770.805402277319
-756.944978621785
-763.363173969553
-773.874354127172
-774.2029573652
-755.869215219222
-717.158466153676
-662.946374324106
-603.796241049266
-552.752942236479
-519.263261550485
-503.40728874118
-495.520592167047
-482.792152516605
-458.098420256302
-423.793389222593
-387.677693659553
-355.636914638924
-328.005191146785
-302.130642267022
-277.112663675595
-255.173477862126
-238.631832745497
-226.439079488207
-214.293412926402
-198.05877817348
-176.806793319449
-152.770943712231
-129.03069822727
-107.577618332519
-89.0483342089444
-73.2370458759637
-59.2382327310498
-45.4331529757051
-30.1812730763943
-13.0384509604471
4.79955557805454
21.544458871316
36.3488183901839
49.6834757457695
62.2702446993822
73.9761733536161
84.011808574651
92.0807859568337
98.9598668336027
105.770162027508
112.864746553608
119.687531789844
125.68298930068
131.042190003616
136.376624485885
141.838969863353
146.893581319542
151.049051295577
154.603810872786
158.442125195854
163.122385312543
168.359821277147
173.466620250379
178.122930750731
182.52547749362
186.834356536912
190.728534514215
193.668151855572
195.498792270836
196.599007635153
197.39099802949
197.853625892431
197.639396414358
196.601679714342
195.044816318171
193.423835194698
191.945096626299
190.595880629219
189.502704095039
189.056259163984
189.559966674082
190.81723978942
192.186632833306
193.055974595515
193.18074343101
192.550343680525
191.076504936391
188.598667404436
185.220412090062
181.488488494163
178.08621055091
175.335836038603
173.070924220415
170.992315600916
169.035366093241
167.305402974776
165.731687131485
163.963331808879
161.695517176376
159.016266981786
156.297733777871
153.724691352296
151.02767878707
147.749939239146
143.720443503974
139.16269769975
134.343479395865
129.245005979626
123.690280552167
117.744150972479
111.839062920272
106.416433459333
101.495828768308
96.6937658113838
91.6735110351222
86.4967972446675
81.4962595930528
76.8848537174766
72.6075368068886
68.5818916151691
64.9556598205924
61.9969685614883
59.724477264627
57.7368362654322
55.4686730369641
52.5916552924911
49.1353333280457
45.275734452938
41.1282674503598
36.8015147649166
32.5673185577797
28.831300160218
25.864675872882
23.5979093204144
21.721167997227
19.9628194760208
18.2217225186434
16.458494770211
14.5793700910061
12.5241347312009
10.4355018804359
8.61682304405308
7.24055372819136
6.12529826141663
4.86114470586273
3.14343295091991
0.910094398085914
-1.8669932012382
-5.4209230920616
-10.0803329221438
-15.8854652132217
-22.4020917168786
-29.0114625195835
-35.3736107619754
-41.5215663438972
-47.4774546996997
-52.8740239109482
-57.0758590468762
-59.6901699720214
-60.8767418964222
-61.1090832442997
-60.707314104268
-59.7270574480629
-58.3194127045912
-57.0629091107909
-56.7793980185418
-57.9723306571675
-60.492963261455
-63.7765279810755
-67.3325131874983
-70.9297434267069
-74.3585348987953
-77.1961230293323
-78.966616926004
-79.5446537801832
-79.3083330474657
-78.8334148599453
-78.4635078532766
-78.2102016466082
-78.0096104959243
-77.9478095604262
-78.1735712670324
-78.6635580421437
-79.1963354130789
-79.5972108123457
-79.9462777397897
-80.485059017913
-81.3422208700742
-82.4137851413199
-83.5107301834888
-84.5419403159289
-85.4905422024195
-86.2560485354881
-86.6279959789979
-86.4636279532929
-85.836011901241
-84.9329649817617
-83.8162477861984
-82.3493944538434
-80.3895704303215
-77.9897983071126
-75.3456041003801
-72.5717716502949
-69.6374664409381
-66.5775658008187
-63.6994733548436
-61.4607608927911
-60.0967759438647
-59.4178230743623
-59.0128726608069
-58.60278106683
-58.1147018547905
-57.4328099707754
-56.2249700059576
-54.1584013973606
-51.2914836954152
-48.1456692589866
-45.3152010601281
-43.0369526905823
-41.1978711441367
-39.7171854497164
-38.7828297626869
-38.6299446633879
-39.1590185509224
-39.9185447968449
-40.5226567532831
-41.0130590283264
-41.7248463376072
-42.8201619651611
-44.0518329566291
-45.0172215856837
-45.5547215520103
-45.7883374222615
-45.8012057744725
-45.3888923350376
-44.2151527905651
-42.1607434560333
-39.4195592428434
-36.2426563745082
-32.6831534471484
-28.6644461617829
-24.2490359731804
-19.7321079642933
-15.4455829113306
-11.5567741078503
-8.13302366066648
-5.34831454102863
-3.48796295005769
-2.68064602321982
-2.68664282696693
-3.03917128770627
-3.39063668124686
-3.64850571978218
-3.7683013081716
-3.53763676576145
-2.70297913893515
-1.31516791783093
0.170222884412567
1.22938904815928
1.68088203632846
1.69724645607704
1.44255346358776
0.82879241288839
-0.292182731762665
-1.77868319210916
-3.19513854603626
-4.20559153469151
-4.87513566364923
-5.48456484264354
-6.08937153439494
-6.39399872089372
-6.10750084376599
-5.31713045019335
-4.39126252844912
-3.54524927493317
-2.65506228142852
-1.57592606545197
-0.53576478592057
-0.0402246073955759
-0.349275207441366
-1.16312899408569
-1.91811818315206
-2.32675621377786
-2.49214652989563
-2.49092497920575
-2.02257894904455
-0.64048082055989
1.6951798444193
4.46015675144444
7.04812582572596
9.32629444578331
11.6012856402157
14.0792394677528
16.533793558346
18.5968632857206
20.2579324179564
21.8851618332559
23.7197869216918
25.5011518499512
26.7214822763974
27.192666206655
27.2054972870004
27.1019837466238
26.8473497332983
26.1669369897944
25.03738428709
23.8314007158599
22.8770701623337
22.0000801801148
20.6836394113647
18.6880738660088
16.3545545342421
14.2073890005165
12.3786238189009
10.6135982877913
8.84744466563295
7.56593017857858
7.41301342430685
8.48551665580375
10.194421542225
11.8805767185502
13.4250013456562
15.1125759534301
16.9729469077729
18.4884120206897
19.0678652015853
18.6824623058224
17.8471078528213
16.9786812387867
15.9568139661713
14.4268759377338
12.4096314558347
10.4008663085951
8.84054691849774
7.66623555613148
6.53500522373506
5.3932451056032
4.6135622673509
4.51605377236093
4.93625906497977
5.44747693496559
5.9542859959251
6.84855576923447
8.48782329149132
10.6750073716128
12.8448178047798
14.7274260163222
16.6006636590109
18.7675296549406
20.9441048211868
22.4151034429678
22.8321741476599
22.6562264509367
22.652738857147
23.0531246002398
23.4376682791957
23.4727570723534
23.5221290679883
24.3019758306739
25.9930931179151
27.9567357083849
29.4583360186531
30.5239418636824
31.8811080611003
34.090440644708
36.9697746176754
39.9842465382556
43.0080360560272
46.4104975314711
50.3431325623788
54.1685845336762
56.7904552701781
57.4850759275035
56.2379557496052
53.3004691881611
48.7085725795404
42.4691240086145
35.1141743099923
27.7563702925967
21.4394148879754
16.556684176931
13.0421085027703
10.9859678419571
10.7390434134262
12.2948558231966
14.8217650387068
17.1327078074186
18.6470049355127
19.6516507359367
20.4994786950229
20.7817538882894
19.6121067200769
16.7230721787318
12.9404309538652
9.31820638803562
5.9488242770936
1.96021261835588
-3.25569286468245
-9.13269075780579
-14.5198445074562
-19.0324214995538
-23.4175146478072
-28.4346856235381
-33.6789139665706
-37.8760660132718
-40.2925141134948
-41.4583274714415
-42.2979772414798
-42.8424521167748
-42.2377274293211
-40.0397794453487
-37.057884102961
-34.5760180457531
-32.9284235203171
-31.2911025568198
-28.9620158814334
-26.4130282509666
-24.6740356183499
-23.8487767917081
-22.7980120889949
-20.5357893499153
-17.5615255764792
-15.306527786775
-14.2994602888048
-13.4226099816749
-11.3275272803819
-8.27286037864566
-5.98916603185024
-5.64493266063584
-6.47865508497629
-6.90599532454341
-6.76262837372417
-7.80032925462513
-11.6513168600774
-17.6175675395034
-22.8830183251051
-24.8311836011809
-22.7873372278717
-17.5521034169713
-9.96182216771179
-0.62830732582362
8.96860197929025
15.8071629320616
16.1352357895103
6.75931508097148
-14.4741989819571
-48.4591814722028
-93.5239151976542
-143.769469479379
-189.915969929607
-223.702558552651
-242.210727319603
-247.095574987231
-238.947929806583
-213.510988314041
-165.442081375934
-96.0828701555582
-14.8067809656769
70.9784686848381
168.256191452788
298.199667013851
479.547293230613
710.121055151808
965.524772560313
1217.0594357518
1449.49604905445
1658.08681374105
1826.88591219628
1913.49548658912
1862.44238647715
1641.26679677997
1268.740385878
809.664580239304
340.744088985978
-83.4452032366759
-439.90140443251
-723.568781429802
-931.370127825592
-1059.6059267626
-1111.337723879
-1100.26294256276
-1045.4558039037
-964.331953258082
-872.496971911056
-788.377012343243
-732.596449963938
-717.764379170776
-737.145086264618
-765.041496846977
-771.714616401961
-741.7720169968
-681.720014533054
-612.394054426073
-554.366143230911
-517.67818578898
-500.735994957776
-495.304568735052
-492.166211822961
-484.49907437069
-468.82440666501
-444.285205942445
-411.258810644846
-370.747014231184
-325.440494444347
-281.195063694742
-246.109159678675
-226.157780683596
-220.383486175802
-220.39231093644
-215.569273812711
-199.988965400458
-175.278520507221
-147.650926808817
-122.669479620786
-102.456755079433
-86.4988856825825
-73.5405832508832
-62.2132949080708
-50.77835692562
-37.6398234188641
-22.652996390713
-7.44856277717114
6.14942284109077
18.0178520338885
29.6514271056097
42.1198931827885
54.5540623691782
65.0613950150119
72.9676287620857
79.6277108922798
86.8361319730071
94.8316709106623
102.313959775864
108.309044064498
113.451903514409
119.115314747825
125.599859872019
131.731935769103
136.341160114026
139.698029663897
143.12536932852
147.372476504243
151.853604907146
155.630894727643
158.752116875847
162.178844088
166.452212349004
170.887141768764
174.354538251323
176.632135545186
178.602157504039
181.102523783532
183.951603768974
186.357505887754
188.073876658039
189.727205723522
191.897207235095
194.204011342426
195.641463178948
195.750970168549
195.136988873822
194.697094312899
194.599640821554
194.315430199266
193.578815874783
192.930088044073
193.074580267617
193.888272974673
194.393610656735
193.777680549321
192.174371030198
190.245012181576
188.147780783553
185.254021409048
180.967248012774
175.554715170643
169.894472364759
164.462504146438
158.872729482442
152.56100869878
145.724410921022
139.304967401703
134.037884797784
129.762368821958
125.817928290996
121.946743108273
118.518200281688
115.83014316211
113.46263377969
110.578232365069
106.817795160161
102.668884742799
98.866989489006
95.6099943275703
92.5459286374946
89.4475637135977
86.6132083534427
84.4527371896623
82.8341238404939
81.0936666890469
78.7397134583571
75.9726822587075
73.3877674303815
71.2770702274348
69.4211956822273
67.5654323777977
65.8639865714508
64.653796708599
63.8566952930091
62.8380340623061
60.9630522430231
58.1718716509498
54.8631912884956
51.2757066672967
47.1954263619485
42.356665845907
36.9636518215559
31.5919146357335
26.5603537888657
21.5934059830059
16.2423636416139
10.5496723395093
5.10861456486214
0.43614838208687
-3.54963476208893
-7.30536227412401
-11.0207818305733
-14.4150147071782
-17.2290279459151
-19.7428545625617
-22.6015975479074
-26.1311117327342
-29.9916003411129
-33.5907843645955
-36.720221789178
-39.6305671202839
-42.5234342018984
-45.1928971038965
-47.3137292165745
-48.9797229104031
-50.7395281018781
-53.0335531263399
-55.7341943626887
-58.3723994792442
-60.746914822436
-63.1238527280577
-65.7870905183489
-68.5643716419245
-70.9844785634662
-72.8697701976746
-74.5599589729794
-76.4193529146862
-78.2268752319644
-79.2471572158385
-78.9454961608515
-77.4982396627871
-75.5077691679446
-73.3325982797687
-70.9047145845691
-68.2400427838319
-65.9195127922038
-64.8298636650429
-65.3951790501405
-67.197267553783
-69.4260138333387
-71.6060910457595
-73.7672701350205
-75.9779534347174
-77.951774918982
-79.2684567865575
-79.8921225337913
-80.2644068094986
-80.8082240209413
-81.4445745819169
-81.6974745611079
-81.2036196545513
-79.9645764096446
-78.0869458675866
-75.46802025778
-71.9333274507792
-67.6648642789573
-63.2982287332125
-59.4636918889676
-56.2903948846538
-53.4817455784701
-50.8531158225681
-48.6290343309766
-47.1196317878625
-46.2291640913184
-45.4960761178866
-44.6754905610906
-44.1333517500901
-44.5081127114134
-46.0035000635813
-48.151660616738
-50.3120207504408
-52.2695647510457
-54.2078573598318
-56.1539760123607
-57.661593325663
-58.1663683509205
-57.5639739458162
-56.2728893393609
-54.7093852899056
-52.8454450310584
-50.3873550448504
-47.3016101528573
-43.9903659613039
-40.911265030875
-38.1695197947425
-35.6160794902816
-33.280798886178
-31.5103012669982
-30.5811899905475
-30.2804675444066
-30.0186049459892
-29.3614532229029
-28.3320902777024
-27.1491177694796
-25.8111488039254
-24.1191341650372
-22.1096275735765
-20.2840580604564
-19.2574316008216
-19.2109794413299
-19.8090464783446
-20.6564349263383
-21.6923085759669
-23.0353188010941
-24.5480887730312
-25.7683842542358
-26.348120921717
-26.4270346018532
-26.4160062736231
-26.4361266691374
-26.1336789614532
-25.1175724246089
-23.4492492554626
-21.5390110434428
-19.5886510148481
-17.337425699538
-14.4811614950871
-11.2281008487461
-8.22966509365048
-5.9137351983352
-4.04452528052303
-2.0804581513551
0.107164204604331
2.05975334471707
3.31169536746222
3.96329218823632
4.4974162845476
5.0846482033505
5.30850886492847
4.71537100390458
3.51776590056977
2.54745527132737
2.48188126188388
3.27258149683404
4.42820720356514
5.71082254330685
7.30601834278814
9.25805483845764
10.9579680926919
11.4338868044806
10.1684725331656
7.4861796350977
4.08888432889655
0.368815502202509
-3.65838640564915
-7.82196735729325
-11.4744069755853
-13.8785961378988
-14.835592150307
-14.7511315131541
-14.0683021367189
-12.8058172605278
-10.765751741503
-8.06746624417404
-5.24625059379626
-2.77158368343569
-0.641159472491893
1.39730547079613
3.31128769154577
4.69523749663051
5.28882021977323
5.41590282944344
5.72413081726538
6.52481635566836
7.57987509537776
8.59843611104946
9.74973142370881
11.4635649763178
13.7586115575089
16.0267743881223
17.6492641721177
18.7118637152016
19.8964204009183
21.6578610618801
23.726223732006
25.559000799683
27.1175861711476
28.8956416140403
31.1112703751816
33.1251401110148
33.9285058162775
33.1861475821366
31.5689228146667
29.9755492356893
28.6385837014414
27.2319803488021
25.7748054160503
25.0708777894515
26.0209183993491
28.6298352294012
31.9711791621525
35.1754615703638
38.2189401664891
41.5737280688607
45.2592205314331
48.5783371134187
50.8763863488515
52.2916338237257
53.4837903655897
54.6941597353072
55.3839898331246
54.9268255473262
53.4259467259419
51.5677627391698
49.7236396302401
47.5293973625258
44.5248032278501
40.9803099887783
37.7458829033956
35.2628273010723
33.0507671476562
30.4065180038995
27.4363392014147
25.0401981219273
23.8109548704571
23.2685046296127
22.4593470523362
21.1633852407578
20.1083360787273
19.8644857062337
19.8570078006994
18.8481563737543
16.348698530604
13.167442443613
10.3763407400478
8.01004633589708
5.16705314843461
1.34763150294176
-2.76448276590298
-6.13922191615957
-8.7640238616638
-11.7043728689257
-15.7187598619725
-20.2004871429542
-23.8204607953189
-26.0275343688711
-27.4487516451194
-28.715182808812
-29.3632046762023
-28.3761968938425
-25.7064375249259
-22.7157934866317
-20.8314876807152
-20.0876152560495
-19.4335614606748
-18.3748128346605
-17.7168402553801
-18.3621419686654
-19.7733412801667
-20.2881794879279
-19.0630413290318
-17.1558375259346
-16.2319612438078
-16.4578585659855
-16.2993160174464
-14.5272830704843
-11.825612339077
-9.85542942093593
-8.96686731044753
-7.60533744057516
-4.31026237127117
0.206867024121003
3.58972166766579
4.3064864842528
2.94446207869566
0.910354575208334
-1.36867438312095
-4.15600948513322
-6.66958952813434
-6.90265703629577
-3.90960658773163
0.3762617012825
2.63828773538138
1.24662591488498
-3.70690988060203
-14.2725980917331
-36.9182810279507
-77.7536906113963
-133.61520810576
-189.133315629549
-225.63103652113
-234.749090814796
-222.857073378937
-201.173768968677
-172.341640635133
-128.487169104964
-62.3547487247854
22.934922149586
118.915489498544
226.788008731567
363.519202574545
548.289922904232
781.176727914162
1036.72562091587
1279.90949909862
1486.99083475776
1648.05314890352
1749.39526495942
1758.8712980345
1636.51500235147
1365.64629548686
975.538877812923
532.485385103886
105.969922047731
-260.981736583646
-555.653743234428
-778.935317902606
-930.208974511987
-1007.70280552868
-1018.00742214707
-979.908240425756
-917.432225927741
-850.347877041557
-791.334607391109
-748.973671463662
-728.87924040091
-729.831987861948
-740.503753877199
-743.373185579059
-724.494955310737
-681.039125908108
-621.00082308058
-557.424732441852
-503.103644655315
-467.888360175651
-456.133937957689
-463.114024526053
-474.147184309047
-470.729532161834
-441.588256669996
-390.188072588436
-331.958090858163
-283.455551536862
-252.58883453314
-236.934573520728
-229.083161589312
-222.610907939777
-214.146422634413
-202.250752555701
-186.222246853768
-166.138884691893
-143.150525627675
-119.164541786792
-96.4125597249205
-77.3644471967814
-64.254025815926
-57.5166325324703
-54.303216363436
-49.3165205565702
-38.2822471773152
-21.180213617898
-1.94519313364334
15.2165581924627
29.1785789419254
41.6930309864677
54.4444020853205
66.9973500669398
77.7412629197937
86.1802392116585
93.5696515283221
101.312360139066
109.373414735097
116.695419020956
122.842225828597
128.580834264514
134.687587898112
140.686622613608
145.283059864458
147.970567528403
149.747993594001
152.061356296464
155.360325346817
159.041105085729
162.642802300535
166.562784389304
171.332262111021
176.513224287128
180.81125777904
183.367514045441
184.60645740049
185.579936193375
186.688496716421
187.407809727672
187.257932776173
186.611525636818
186.212664486447
186.059941998166
185.200082389445
182.797098468228
179.158355331114
175.431562896512
172.378980270218
169.766953842894
167.037615735742
164.251152711027
162.008300877706
160.494343236877
158.989449571779
156.577897022146
153.198785284897
149.721359241231
146.982011768161
145.016552795069
143.379785140141
141.975502316156
141.193888974395
141.166879666382
141.205688386743
140.283867274726
138.041999731994
135.068934740356
132.12200549279
129.289359002719
126.116203343821
122.417470481403
118.615492336009
115.127450845613
111.645854845508
107.341115608558
101.816709859624
95.6450940946618
89.8227209367035
84.8328775013742
80.4416995017742
76.3471607951478
72.7095846265809
69.8368272660658
67.5020646847796
64.9045068847848
61.4367196826287
57.3343423099126
53.4032054188712
50.183669676484
47.5860178958718
45.34986339362
43.5810171339033
42.5685657519316
42.1272411185147
41.4240899797462
39.6541446092361
36.7995804587229
33.5425222240644
30.4425916329084
27.3914255305719
23.9560636641979
20.062828404004
16.0739562915452
12.1719549678505
7.93111270547782
2.74055302862309
-3.37287990146492
-9.53129967251612
-14.6848814066527
-18.3949786435424
-20.8761912462213
-22.4305306605116
-23.121620469769
-23.0945425812873
-22.9962881832514
-23.7775006043989
-25.9756843513997
-29.2921112681586
-32.942460698394
-36.3341455155847
-39.3056064515221
-41.8167375979643
-43.6894644590073
-44.8289333610938
-45.5915085205125
-46.683035371928
-48.5696363673197
-51.0556559878561
-53.5153994987582
-55.4695148700355
-56.8206198342539
-57.5810230058224
-57.6150502277248
-56.8454190863461
-55.6532299123697
-54.8384792364927
-55.0314825721684
-56.1808927253489
-57.704551364744
-59.0989331774138
-60.2787062671645
-61.3291605248902
-62.1388333633959
-62.4946420470312
-62.5294243817606
-62.8580861265334
-64.0889670044439
-66.2107698789656
-68.5622004661297
-70.4060728094964
-71.4301047984983
-71.669230708474
-71.1265853390551
-69.7170159146873
-67.6302994136548
-65.5491118084902
-64.2750618659782
-64.080844659498
-64.5082218584072
-64.8249880928387
-64.5840867324008
-63.6805369556241
-62.0088499670427
-59.3338261405672
-55.6327435550129
-51.4424014521481
-47.6432079198541
-44.8009754215311
-42.7767072186364
-41.0277128131098
-39.2141651872748
-37.4168420598126
-35.8268517720648
-34.437166225649
-33.1864320512536
-32.3228372573813
-32.4022013309908
-33.787946984842
-36.1860513814963
-38.7546096194001
-40.6676159953414
-41.5293349908415
-41.3101972897082
-40.0949739135049
-38.079513239994
-35.783552872637
-34.0486317150386
-33.6227814564335
-34.6866219619895
-36.8034007191246
-39.3035803108688
-41.6580453909148
-43.5223906345055
-44.6237933933867
-44.8284053499567
-44.3669343947715
-43.847426452784
-43.8727752073213
-44.5852668635465
-45.6031147491091
-46.3789784342549
-46.5485398802843
-45.9359454614631
-44.3843005775508
-41.7967205845444
-38.4169863842878
-34.9466777527844
-32.2034596359883
-30.572070412713
-29.7869417634379
-29.2335693569995
-28.4017344972247
-27.0468371790083
-25.0609853138508
-22.4081180962855
-19.2941212571209
-16.3196112785626
-14.3021368075765
-13.8451398019002
-15.0485204452529
-17.5865058365997
-20.9670630863517
-24.6749827817026
-28.182372063894
-31.0347818067291
-33.0556130283334
-34.4201361740049
-35.4104102825747
-36.054873632745
-36.049663793259
-35.0432787949326
-32.9270129323177
-29.8021332483713
-25.7678965723177
-20.9419068821546
-15.7810335524417
-11.2528608389587
-8.45275696374631
-7.90264672381184
-9.2142257991908
-11.441615784497
-13.690199198502
-15.333385479532
-15.7827948109723
-14.3760708736688
-10.7633023525438
-5.41458356263406
0.448496707988184
5.59657932386638
9.51026774264899
12.3837054977387
14.5543191304462
16.1107853387403
17.0800002959647
17.7744540313044
18.6762571514309
19.9003570743992
20.9210166497616
20.9942381315287
19.8657138407798
17.9976041837297
16.1282863262733
14.7438102997365
14.0281554672938
14.149991345099
15.3135130062705
17.4102814542969
19.7674077856649
21.4665024219836
22.0009853973703
21.5793359930137
20.7921715223915
20.1137492478892
19.8216145736885
20.2669681199536
21.9141465882646
24.905919742853
28.6546982886295
32.0772729742607
34.3545119546756
35.428401014146
35.7300807267268
35.5370302581545
34.746795092971
33.2499392468821
31.2895235292157
29.2455106743632
27.0992165486621
24.3279562352266
20.4846495123224
15.8539256976807
11.4469347977678
8.35912320033161
7.20084644456227
8.09463149124416
10.9718163443054
15.6103881680167
21.3617872720663
27.0709833249007
31.5229127181183
34.0782440045072
34.8912004840854
34.5820107818705
33.8206017023841
33.2213493676819
33.4032095018728
34.8345806077252
37.4804417542289
40.705354454648
43.6895618890919
45.9975815812696
47.7283440489323
49.1819306007127
50.5408509699321
51.9382515317587
53.6645412907463
56.0294885239292
58.9054405419227
61.5371525773896
62.9956625346959
62.8766015938703
61.5050225731672
59.4878988065097
57.2231643522565
54.9321358438436
52.9998758084642
51.9543920680548
51.9304265342543
52.2683097927531
51.8742903731696
50.0708351640738
47.0363661760018
43.4137802367309
39.6578881234082
35.9175307501354
32.4385352538388
29.7332334503572
28.1011262238858
27.0541477170984
25.4707842830009
22.4527843700846
17.9709957703046
12.6354530869511
6.99751256973073
1.28629778062699
-4.22856937932879
-8.9764256167544
-12.5083943286279
-15.1542947044908
-17.9799425102739
-21.9104202735774
-26.9598700850724
-32.4122522435806
-37.6096342023281
-42.2860331018042
-46.1046050756538
-48.2443859367322
-47.8875157479262
-45.1945824467846
-41.5114893448378
-38.3598169951161
-36.273995583685
-34.7856323039596
-33.4343095156636
-32.4152162524101
-32.0310189968699
-31.7880957387418
-30.5377652947295
-27.7052463287299
-24.1249964128962
-21.3611688778194
-20.2457860492056
-20.3278421021875
-20.737671089259
-21.1952282771027
-21.8582842188365
-22.4033744149902
-21.8138988885037
-19.3242004880433
-15.2703711808661
-10.6534630874765
-6.03979495948832
-1.44301606375505
2.56159536790588
4.24905323234022
2.07931093104413
-3.31971607439783
-9.26034221315034
-13.739688840443
-17.832334454295
-24.5440313677169
-35.0275755042899
-46.7528137695233
-56.5824827181312
-65.9716654060321
-82.2570900127525
-113.451138620456
-160.64457190894
-214.739987685284
-260.136902707299
-281.999219689077
-271.998967890174
-230.257231340666
-163.904316461862
-82.6393428798432
8.36160441253304
114.886147779406
253.178189885664
439.360048853356
675.067342242655
941.789475202489
1210.2338589226
1456.19955128286
1666.52481681414
1828.37397315928
1914.18783844084
1882.40715098307
1700.02564095187
1370.05433017315
939.129089599666
477.037806080992
44.6554494606009
-324.982826963772
-622.815126054443
-848.596571182227
-1001.80154266336
-1083.78940969802
-1102.79914806719
-1073.19637272619
-1010.6777174644
-930.831500939818
-852.276116399436
-796.655696388158
-779.285679996988
-796.173767557827
-821.358874472215
-821.599431233793
-778.96264319456
-702.950798909873
-622.274273716283
-564.011686233689
-537.497754220453
-533.762068908776
-536.854995000478
-535.21076434715
-524.996031510395
-506.637266702277
-480.7042295896
-447.135601874423
-407.000890081739
-363.873971033447
-323.200185315826
-290.134275876789
-267.21769193742
-253.113874932195
-243.157861334839
-231.680573176928
-214.904129913432
-192.561782104128
-167.234904988854
-142.203231709057
-119.613620689131
-100.02876271542
-82.9466168395976
-67.3654403136183
-52.1454426899276
-36.4975934104519
-20.5404816158195
-5.26493366207956
8.37548115629803
20.4250198613668
31.8061941941486
43.1544757452846
53.9657854800905
63.1551330174399
70.447056182359
76.9569520454188
84.2435843919008
92.9204283802452
102.379522443904
111.761936839789
120.825233467618
129.658657231524
137.810496735296
144.187823799462
148.049366331523
149.920023829759
151.261532304446
153.230663287418
155.926210319911
158.842351363638
161.748084912551
164.823447678727
168.013525931223
170.651710512357
172.024301210407
172.248255360971
172.353426559863
173.42362454967
175.786112240367
179.094908071763
182.985210364975
187.343316849226
191.913357094861
195.960890631377
198.660222653887
199.851298212667
200.222396640806
200.63590833909
201.370050250287
202.116445033346
202.580756182124
202.801882977787
202.783211685716
202.042646943182
199.853886633795
196.027505908226
191.291167849898
186.742940787256
182.966093542334
179.783713894554
176.809958576586
173.993640096666
171.469976044139
169.0291918087
166.0453428538
162.087566839183
157.489390938741
153.129398802369
149.617703866558
146.786960995328
143.981977871912
140.683724277954
136.709538584594
131.905267024454
125.943191402697
118.650921175054
110.514038538051
102.67646152932
96.324181701381
92.0475133953066
89.7481527059561
88.9871758663069
89.2444240196947
89.8630779984843
89.9866964398789
88.8148183286723
86.0184099230665
81.865561867384
76.9157142923947
71.6283943402191
66.2605204796467
61.0025979103346
56.0330559033061
51.3959772066977
46.9564789439456
42.6237877375274
38.6277292068821
35.4753543998616
33.5691325623188
32.8873756194446
33.0457165162385
33.5778507511804
34.0417643580119
33.884136049897
32.4157501842168
29.1522465564867
24.2514054672973
18.5367270285986
13.008923970914
8.3193431110886
4.68197282553814
2.13469288996474
0.668904218547104
0.0320970230836735
-0.439654506775703
-1.55761136736615
-3.73826485520395
-6.7586794628992
-10.0859183479497
-13.3936101168967
-16.6981197459052
-20.0716929954184
-23.4201275116712
-26.6535530301373
-29.9672540119346
-33.7359683726689
-38.0285651907704
-42.3112325824548
-45.755165112144
-47.854885290595
-48.6991378919772
-48.6874715665231
-48.1620842242472
-47.4464561645375
-47.1410905002853
-48.0995114913195
-50.894201145885
-55.2953962592816
-60.376830351263
-65.1711858812805
-69.1826014975819
-72.296265314839
-74.3911694574015
-75.2728104300494
-75.0220844407166
-74.2201973006654
-73.6149350495912
-73.5147375093744
-73.5912895253813
-73.3138282502779
-72.503034955275
-71.4016539223784
-70.2954648777672
-69.2445263266061
-68.2483046284461
-67.5308740382861
-67.4575374466062
-68.1030417513938
-68.9944405400535
-69.3788211786248
-68.7439071751444
-67.0492704393154
-64.5245476060771
-61.4044571660529
-57.9389088548187
-54.5420589246912
-51.7117712725171
-49.6816197577945
-48.1936384980488
-46.6984333613644
-44.7884439535228
-42.4094169493534
-39.7107483931947
-36.8501124270405
-34.0509040932393
-31.7687922981772
-30.5921966841668
-30.831708745708
-32.2169764469451
-34.0744136813627
-35.8220699090357
-37.2652815541713
-38.4573692155205
-39.4300091583135
-40.1952502201933
-40.9726973694176
-42.2265829165565
-44.3205132175974
-47.1243825068647
-50.0325659914057
-52.3923230979194
-53.8811661137198
-54.491013877129
-54.2913023335472
-53.3669908064155
-51.9915087784139
-50.691380524341
-49.9618020394875
-49.8745149012184
-50.0246669890257
-49.8931501121358
-49.2227584226066
-48.0349720711891
-46.3947191171763
-44.3196949260412
-41.9601630073392
-39.7369552760832
-38.133728286551
-37.2975969896874
-36.8968761156532
-36.4110285521519
-35.5326153168262
-34.2769989537265
-32.8017381393591
-31.2729808598483
-29.9498904768444
-29.2630955787733
-29.6196445108697
-31.0508014042752
-33.0932360102454
-35.0552004142701
-36.3692599104858
-36.677459017459
-35.7045834125832
-33.2729407115821
-29.5646491931337
-25.2793441175382
-21.3385246971643
-18.3253489492914
-16.2344547520938
-14.7871655319274
-13.9001383046938
-13.731972393407
-14.3044212096249
-15.2711842978991
-16.2228685436949
-17.1887042273414
-18.6733823203724
-21.103630811125
-24.2965364767881
-27.5596884479727
-30.2817557353859
-32.3127157996627
-33.7520727108276
-34.5216023402036
-34.3205566971432
-32.9993824648954
-30.8147775635374
-28.1949735564332
-25.3014021927431
-21.9371141988072
-17.8905501596983
-13.2539873953906
-8.34490383715584
-3.42493285372132
1.34404960052102
5.67041679862109
9.05257424494407
11.1051496615443
11.955913566597
12.1891353611598
12.3434559209107
12.5464892310554
12.6967954136055
12.8795626329635
13.3895553469017
14.2844099382771
15.0915757023128
15.1777391941647
14.4463071915855
13.54071940098
13.2770494530521
13.9534352087271
15.309440688718
17.0679037879878
19.268773835598
21.9344080126149
24.5491489519807
26.1432368580449
26.0193605174487
24.3174883470491
21.7792254417941
19.0390010709581
16.2938423411766
13.6353718588301
11.4459906993731
10.2294067097439
10.0741279667509
10.5008442749789
10.9669184501298
11.4303749583246
12.2826922719559
13.7765172297122
15.7135300484728
17.7695283226119
19.9508163014853
22.5004257795177
25.3528407904604
27.9140974150144
29.5710326774704
30.3656094281263
30.9938642857365
32.1076753189512
33.764819368782
35.6547057898947
37.7062702619533
40.2015410956418
43.2069752937742
46.0819098860259
47.7741732922397
47.6257182958809
45.7745779281596
42.7678440185475
38.9765690329338
34.5567080592691
29.8892119324149
25.7863730924174
23.1180550112026
22.3324303063164
23.4683813696583
26.5358157927802
31.6203794552593
38.5022664673761
46.347921603328
54.0082972326415
60.6174649204573
65.7163357298488
68.7702999113735
68.8751445062386
65.3050711142796
58.3952775153121
49.6070228003963
40.5004469201119
31.725329531666
23.1933834087297
15.1152267049205
8.43748878529747
3.97049091997452
1.2744672411006
-1.15207268729479
-4.40568517757075
-8.12594364954557
-11.1239926425445
-12.8867361482835
-14.0683461756132
-15.4142850232137
-16.614633207687
-16.6720228472768
-15.3466574989849
-13.7537060947079
-13.2363574487518
-13.894465165164
-14.6395538592565
-14.6749373114167
-14.4383672437658
-14.7811952618474
-15.5527778222363
-15.608712743688
-14.3536285779995
-12.7602930825981
-12.3483739908229
-13.2852821133213
-14.0678122880015
-13.3070793147819
-11.3833169725326
-9.81150370211398
-9.11182003693469
-8.0145422734624
-5.19132219164594
-1.38849734734412
0.860688080933443
-0.169478799522526
-3.49909355894824
-6.4068682361625
-6.95731125334085
-5.12438319453397
-1.65122958794076
3.29658123344717
9.72051619366968
16.340601289077
20.2153136110956
17.8181098197495
5.93522410301534
-18.3502079028894
-56.8834273897788
-107.538204453905
-161.667030726058
-206.379170673258
-231.889698206052
-237.428968177251
-228.819573207188
-209.4157211138
-174.531814559616
-116.592879812486
-35.4758358228941
59.3550348308254
160.099722877844
273.791842141653
420.662265720048
615.755046876956
851.486724888294
1099.95404603084
1332.7253724865
1535.51865099711
1700.12236410025
1802.82096457844
1797.51797216257
1639.32514682513
1321.70359196956
892.439180531347
431.35981173307
8.28062076483854
-343.58836060513
-621.698612262431
-830.620939403848
-968.136014331779
-1031.31676157021
-1029.16350571423
-983.968846022203
-919.927459918508
-852.73677757776
-790.672605598077
-742.217287047677
-717.670808810863
-720.944123780682
-741.199902670493
-755.690119526292
-743.483570846201
-698.57343190511
-632.025249121583
-563.457685482287
-510.061476536924
-480.020521927502
-471.306797538403
-473.922770170321
-474.594884580561
-463.086846090599
-437.019055799032
-401.353522298038
-362.752313709998
-324.284677400104
-285.763010319369
-248.544009017211
-218.177875409569
-200.638104791052
-195.674682580981
-194.916802362926
-187.639547607907
-168.865904321121
-142.075927377027
-114.689947326479
-91.6900183339312
-73.4237143857654
-58.0712549692051
-44.5519240651986
-32.7172615113324
-21.9555828099952
-11.0117375364255
0.612025080824274
11.9003528011787
21.5730385876533
29.8053214005983
38.107511916644
47.4687235559867
57.1833344960725
65.8729160762563
73.3243710232069
80.730578167102
89.0585997644484
97.7089223762358
105.186547064515
110.853550771137
115.492003078151
120.059429780882
124.392019510691
127.583089749472
129.469707683348
131.191342540923
134.043694571012
138.10297449359
142.360803290165
146.104717374861
149.699740723574
153.818408141627
158.265820826606
162.044839274067
164.593507797684
166.53193864091
168.899613586546
171.860832477002
174.54539393005
176.18395153791
177.014111503916
177.789125341794
178.604614793528
178.656346802825
177.283014729522
174.923527634519
172.710749698242
171.197295668889
169.825454230652
167.769090974234
165.010445962519
162.273052515689
159.978147097063
157.659982017092
154.623423434813
150.964836906099
147.606233457716
145.296154427077
143.859666759503
142.606210552919
141.276269265599
140.259248758714
139.853287480428
139.627995111989
138.778255663566
136.998683003595
134.709391900617
132.346518205327
129.686830424663
126.117854472763
121.487994953539
116.399539083664
111.568370025719
107.129366253526
102.820981653054
98.7652847499225
95.7175385044887
94.3442896953204
94.4035757068005
94.8854600678666
94.9545069784182
94.5142592951505
93.7404016968467
92.3111086249381
89.4664040012495
84.9060771824388
79.3652645168627
74.0509356481501
69.5618912407175
65.5811938540142
61.6487638371186
57.9608528876222
55.1595231277352
53.4280511703452
52.124123812504
50.4760106500687
48.4731481864276
46.8190416263387
46.0114068434717
45.7100645684623
45.1465903506256
43.9866447865792
42.5282735766522
41.0492515304517
39.2390475612254
36.4965284689061
32.6899006554488
28.3523190600648
24.038071537606
19.6722740826856
14.7214075746896
8.91940430036016
2.56821090801905
-3.96472436021774
-10.8294193978824
-18.5161059249084
-27.1039758720021
-35.9249338232473
-44.1281548821705
-51.4669119468784
-58.3310848568093
-65.0153086762114
-71.1865565883267
-76.2315869836593
-80.0052488954708
-82.9836945811198
-85.6178276022104
-87.7352378485388
-88.7772212917804
-88.5720083326535
-87.6566837461469
-86.7525544989674
-86.0801721626369
-85.3636042606938
-84.4375828088922
-83.5891523938541
-83.1583101499806
-82.9463808056481
-82.2681813658153
-80.65189808419
-78.3362318385205
-75.9611707531069
-73.8727431807504
-71.9276507370539
-69.9967969228892
-68.4402471448013
-67.8713148817622
-68.4735612938921
-69.7388263162272
-70.9727564943827
-71.9493614254692
-72.9291692634913
-74.0773677168895
-75.054279692612
-75.2778999072514
-74.4787986681022
-72.8340448811033
-70.568168860783
-67.6099764755453
-63.7777738101238
-59.2302751694381
-54.5652908824978
-50.4243269069059
-47.1009306652144
-44.5997116960658
-42.9567119878806
-42.3004629924555
-42.5539877361058
-43.2499850123798
-43.8358311456346
-44.1790936072319
-44.6515771629578
-45.6598704844008
-47.1883925554243
-48.900853392989
-50.6107393716203
-52.4414241741095
-54.4150051413074
-56.0071899322958
-56.3281900781854
-54.8353876706997
-51.795667257897
-47.9801532255628
-43.9747600892964
-39.9027894280797
-35.7831092945927
-31.9408159028198
-28.869484023262
-26.7045105758314
-25.0046660850459
-23.167294224031
-21.0151957873739
-18.8962983582333
-17.2518176568564
-16.2244275074784
-15.7327307566135
-15.7840422208147
-16.5167771114219
-17.8932726320973
-19.4862550928844
-20.7046830790002
-21.228193697046
-21.143907448247
-20.6672610714913
-19.851254053267
-18.6523402429368
-17.1983432802714
-15.8193378305864
-14.7446126561589
-13.86344782546
-12.9038233202584
-11.8375570570159
-11.0002556555731
-10.7628806517888
-11.1604012309143
-11.9201631813688
-12.7903695055508
-13.6779737541306
-14.3990000355731
-14.4306830577214
-13.1241269760031
-10.2520619368136
-6.28222430569176
-2.04650767050668
1.80597971502465
4.94999242817683
7.0624595661839
7.6122855433894
6.19011642382199
3.04749492544934
-0.864389835010996
-4.52478978258192
-7.49533081770851
-9.89557926573357
-11.8125879473995
-12.9235043772508
-12.8004926320631
-11.4738224094463
-9.48857801940531
-7.33711363220509
-4.95928889356067
-1.94088005301555
1.82187715792362
5.8021116700621
9.25021902693105
11.8287867334696
13.7366953892434
15.2589869074776
16.3801158432783
16.9468213759501
17.1018887662
17.344463962633
18.0707879934373
19.1446411223672
20.0301793890162
20.3209237472165
20.028580758564
19.3482876814487
18.3057194687911
16.8051013121833
15.0019617968904
13.4320844510982
12.6153605245316
12.558427109315
12.7684379292972
12.7853598665202
12.6044695370232
12.5149555945094
12.6301247131736
12.7602725804958
12.7932018982391
13.0364589734035
13.9822152463308
15.6983025863418
17.5775380035305
18.792042700327
18.9624393365225
18.3113401721127
17.2225872702811
15.8385799405744
14.2033358129721
12.685952850387
12.0144609213727
12.7434774322302
14.7334155061018
17.257875383705
19.6226692296721
21.6023579815482
23.2894489870879
24.6997349964931
25.713143927112
26.3869779485552
27.1190654161614
28.3218263046126
29.9435606499103
31.4232553860462
32.1398576967793
31.8087644282814
30.3974983499101
27.8119526307679
23.9114527308772
18.9082294881248
13.57580470736
8.83779372329027
5.1127313864235
2.19191134504599
-0.181071528092573
-1.75656597139421
-1.98292525369614
-0.735791808741702
1.37946325371829
3.60281563356772
5.78144570310829
8.31827012281874
11.3024681413587
13.9024756659528
14.864339122439
13.6204515622959
10.7288274122489
7.14657592337771
3.24462181887785
-1.25974374098741
-6.47627815342422
-11.7851201184181
-16.3384112308722
-20.0049383465624
-23.5247954270866
-27.6149839368836
-32.0843430274348
-35.9867626304893
-38.5238205220618
-39.5252108642597
-39.0136917367026
-36.6516300569443
-32.011578954839
-25.406541895778
-18.1072864884453
-11.4674058315127
-5.91908319981831
-1.04880729795008
3.40941733153097
7.04007169304555
9.42860084608329
11.0972719523118
13.2209666791031
16.1867886575734
18.7375711196482
18.9642336988817
16.1850223166134
11.5505991495974
6.6861733950346
2.08331832584323
-2.76028565085535
-7.72262600673634
-11.196742273621
-11.331995115248
-8.04095401741042
-3.36850871370289
0.257795560128482
1.90585420484388
2.22845540860317
2.1997892690917
2.38203372572355
3.36030084605982
6.0370223426218
10.7378739380739
16.1683878546056
19.9074268783332
19.9594568308856
14.9189091313712
2.00527190432622
-23.9280065436095
-66.9048897163398
-123.568818959899
-181.072502109621
-223.649412677552
-243.138770240553
-242.870905874882
-230.207492196316
-205.657588440579
-161.294013502642
-90.9750307114387
-0.164308090060018
98.2981748468677
200.470080633212
321.73152232011
486.852609119107
706.504513844842
963.20502831792
1221.30866068402
1450.25193685182
1635.79660022367
1767.70933844638
1820.02762877378
1750.78367241512
1528.52842343784
1163.37692614149
712.57337824376
253.498834946359
-153.23551390916
-481.550850962565
-730.64162506315
-905.546513608036
-1008.11749019205
-1042.16996813128
-1020.72288366079
-964.535075057017
-894.084857850941
-824.408651635129
-766.445588516763
-729.270550991533
-717.304806494086
-724.916743506228
-736.261723694818
-733.43936511775
-706.900116514101
-659.557396409473
-602.709973311891
-549.232840449295
-509.414863829659
-489.223379589382
-488.027146928873
-496.299612393873
-497.765239129213
-477.986012081765
-434.152620660849
-377.53042793547
-325.620881906022
-290.39912034259
-272.247349518829
-263.251667703432
-254.999583561132
-243.470776770162
-228.337071692182
-209.793793138954
-187.086530076877
-159.611733884091
-128.514147477189
-96.8824099662319
-68.53707125417
-46.4165492832143
-31.2968029826069
-21.3089309006049
-12.8017938916635
-2.54733560451134
10.0885747888151
22.9667790701548
33.3803096174899
40.6067073019004
46.2999491333795
52.5291059702218
59.8088057616423
67.2476756115014
74.2839613084375
81.6615413627725
90.4733421334187
100.630111440415
110.756682014449
119.576899009869
126.952149768813
133.332575614577
138.56834266136
141.856153777401
142.989611223568
143.226238233583
144.479664992282
147.689168422822
152.288272902164
157.289654406346
162.480224078663
168.216830084433
174.276012985493
179.502022680835
182.904201759269
184.847712629431
186.746333969419
189.544529168105
192.817438517563
195.512478465334
197.271279169854
198.62389480739
199.93303098409
200.645187097136
199.958168139062
198.06233419436
196.26760455675
195.724956836451
196.260073901313
196.692205763877
196.124203379273
194.540274684369
192.099859433424
188.311319280426
182.399676304753
174.492922995596
166.026859296186
158.680735904982
153.032057323625
148.489827692187
144.436376104414
141.014699553177
138.585239803027
136.731017456124
134.32886023095
130.765779897885
126.771472710494
123.7185443301
122.159970925302
121.34335700678
120.201437990579
118.481307821908
116.611138989804
114.642984794216
111.833884076796
107.531773729176
102.227544295921
97.3258066512588
93.7996542962081
91.3228571064517
88.8584947774749
85.8477861779546
82.482657727487
78.8734832756337
74.4303000288465
68.4530188512966
61.2241983706532
54.1107277282526
48.3909759564459
44.1612540041474
40.5891707481304
37.0799838319359
33.8271513606999
31.1358010349013
28.5869111749194
25.3129381222602
21.1201313473461
16.9724139201841
14.0933314323985
12.7027434004862
11.8866636596079
10.6722808697446
8.90555036047704
6.90491878630411
4.54504919329335
1.1639564167481
-3.48258385822278
-8.49633196075462
-12.427498309176
-14.6002191472598
-15.6261618007763
-16.5665491375648
-17.872698801754
-19.4035484702984
-21.3071222503516
-24.386018175418
-29.2909843410495
-35.5314234650611
-41.6572954872389
-46.5308065014998
-50.2206948550701
-53.5186697842556
-56.7920007276086
-59.6369245007456
-61.6553789755749
-63.1822547482015
-64.9031673955474
-66.839659686775
-68.0851881002984
-67.7452982740217
-65.9844731296546
-63.9305203641208
-62.6137631152209
-62.259062029508
-62.6635994815618
-63.9253175118045
-66.3952771497786
-69.8868439877777
-73.2866302456786
-75.2640243746308
-75.3526133758294
-74.1643222768779
-72.5714892443667
-70.9360970418003
-69.2657766525129
-67.8558037316343
-67.3320664679585
-67.8982212219814
-68.789086459744
-68.7895543994667
-67.3354221933542
-64.933548831306
-62.4679936735386
-60.3250417604269
-58.3972051018279
-56.7811229248844
-56.0448662084277
-56.5620764354079
-57.7558307042481
-58.3442761286459
-57.4534559504509
-55.3428163260388
-52.9435745481342
-50.8592994620834
-49.0545329732783
-47.4544141638099
-46.4566851854878
-46.5303819423746
-47.3837409236811
-47.8613044688575
-46.8546820946171
-44.2214295826274
-40.6881667498325
-36.9789711410752
-33.301477551386
-29.7160208421764
-26.6774646585676
-24.8437079418573
-24.3234145761509
-24.3975957689376
-24.1993718212932
-23.5865223695818
-23.1624269305416
-23.4796614961987
-24.4740082956246
-25.7904590063889
-27.4175001897364
-29.634652749489
-32.269096871625
-34.3101939363205
-34.580450287956
-32.8042228029691
-29.8302419565335
-26.7633283159585
-24.0804504423517
-21.7397825391329
-19.9377586270861
-19.3193602134665
-20.2294821297918
-21.9728026598551
-23.1755444337231
-22.9930140535063
-21.8098027082615
-20.6676238120604
-20.1891253576727
-20.2883257310705
-20.8391586731553
-22.211329709163
-24.8269246156939
-28.2877153956674
-31.3008789497642
-32.6723566125149
-32.2797939875363
-30.9428001171972
-29.4608821168245
-28.0379323749814
-26.6734404763854
-25.7787703783947
-26.0280951310646
-27.5655236145007
-29.6399820277603
-31.2439402668575
-32.0442451341235
-32.5141119750873
-33.1920860903963
-34.0565801934199
-34.7401391347609
-35.1301936743501
-35.420298095752
-35.5162880099102
-34.6858992636942
-32.0925879832587
-27.6754393322632
-22.3126110400254
-17.0703469062194
-12.4689770656084
-8.59826114871024
-5.72966048236864
-4.40553697165423
-4.75098024810316
-5.92941246745804
-6.6293090885782
-6.19109638533526
-5.10984981833865
-4.35772924740085
-4.38663445318645
-4.98434916435806
-5.98311358292661
-7.70998237271886
-10.4746118822898
-13.7567830226401
-16.256648943258
-16.9179540050101
-15.787991711695
-13.7578679573858
-11.5916359390118
-9.43577888295607
-7.23719101881467
-5.26511514999929
-3.87895995711132
-2.83332019693293
-1.16307553349208
2.00704220558184
6.61279011052238
11.7474989248187
16.5102279974087
20.5088452863941
23.4959560638368
24.8682613903345
23.9664329161329
20.9571574007609
17.1240145955774
14.0009568701756
12.2383329209485
11.4857431469842
11.3295476156044
12.0169465601531
14.0386240755416
17.1968217075344
20.5097163089412
23.2129979467542
25.621852583724
28.6975547320577
32.7759977165976
36.9986980515478
40.1287618114404
41.722251806094
42.2469540819622
42.1487298243498
41.2050305453701
39.0444309573105
36.0946558315904
33.5996200300662
32.5415206448721
32.743156085701
33.2213584588718
33.2926141479069
33.0523392815557
32.7742433717778
32.2298233194123
30.9666447991233
29.1860987490927
27.9413781535379
28.2122757269648
29.9185987848702
32.0898652993756
33.9638875209131
35.6240302581659
37.4399459166567
39.1854491746656
40.1281221060258
40.0398561925408
39.7484809865384
40.3436715038192
41.8835740986303
43.1698153441307
42.8878074170837
40.7496244207131
37.3485443233448
33.1186029404397
27.8915058346696
21.6508163051469
15.4071083777242
10.8771953778161
9.16706577686661
9.95246777873726
12.049721092309
14.5776027015086
17.3170055329302
20.0715596660909
22.1623434096497
22.8957732819107
22.3935802769886
21.5793508361102
21.20083069552
21.0627587902355
20.3875662110637
18.7463655481978
16.3010937344497
13.1194545114958
8.66648218370517
2.37056693118765
-5.36620761691317
-13.1118581779478
-19.56963879357
-24.619935178573
-28.9664685762427
-32.8713068790284
-35.639180169448
-36.5252184751182
-35.8393559938689
-34.7133974540799
-33.7448088916937
-32.268780312022
-29.2758798007898
-24.87620972823
-20.4576850057738
-17.3165336577516
-15.4667548767409
-14.0602922377777
-12.7352430493121
-12.033116842744
-12.3345964143158
-12.8143165482634
-11.9586045463341
-9.12383849865276
-5.16999407260302
-1.35068647186289
2.0839773922283
5.73775780424793
9.62612218228654
12.5071536095588
13.0992719298286
11.7261228932397
10.1490733194967
9.57306199329165
9.28543368973178
7.81334340193423
5.36257957653626
4.50055072837408
7.96982150831902
15.943985125081
25.7736701115545
34.3755155845563
40.4046821921403
43.8366977308702
43.8464062397934
37.8704427047858
23.1789903792517
-0.714188221597091
-31.2765812891779
-64.2895734132968
-95.7393188237547
-122.929537665644
-144.904734095089
-162.54275527368
-177.714802987842
-190.960392027467
-199.048888249849
-195.091834576931
-171.812719890645
-124.699180734259
-51.0252879410171
54.6649800033845
202.649093077931
402.567335605449
653.07056105925
936.0244754332
1222.06030076118
1483.38473309347
1701.73613332297
1863.63027233491
1948.44956747694
1923.99190525493
1758.71786552705
1444.31190432248
1011.02020279032
522.25432931952
50.6032340926234
-349.12308579701
-653.654328383282
-866.810764984651
-1004.36338696764
-1080.39385070629
-1102.87894656141
-1078.03287357695
-1017.2257247117
-939.801804038196
-868.888275972072
-822.466695289939
-805.465500148577
-808.277873204661
-812.996693682241
-803.512172389077
-773.191705264648
-725.976285048058
-671.603139679366
-619.374146000305
-574.743238288686
-539.704666896632
-514.704212895302
-499.26763166243
-490.7627158014
-483.296301772364
-469.145685914331
-442.853468595866
-405.202045885213
-363.549412710378
-327.514552087262
-302.843525788333
-288.052377578343
-276.327205685662
-260.878153240689
-239.31185213927
-213.911629069434
-188.537160302573
-165.46689847769
-144.707544914867
-125.429419142174
-107.390081172409
-90.9778812995466
-76.4181693367184
-63.4201932625052
-51.5893921463904
-40.8220552068067
-31.0551670787819
-21.7631805418758
-12.0081490890699
-1.12368401990515
10.7434299219236
22.8630763148053
34.6228151432924
45.8986250379352
56.8053360259788
67.3184359632126
77.2993187978603
86.7992267300748
96.1139869391351
105.440701178802
114.576604611349
123.06562957232
130.598109890295
137.146052978386
142.714366601088
147.140524413406
150.29810229651
152.450470405938
154.217980710681
156.099611655272
158.10994182743
159.996449533712
161.769501518923
163.861064370096
166.697954952182
170.235987895065
174.05432293863
177.874031827281
181.803437248672
185.97139249976
190.028527613781
193.202263509853
194.903583183933
195.186227656242
194.54782449959
193.381191641382
191.772061298944
189.820742250315
187.951186308346
186.703425936925
186.220796401271
186.08077336057
185.701125049645
184.837609381841
183.608921270528
182.117837728414
180.232234553022
177.811373893873
175.021575250349
172.256496866098
169.72204698711
167.214900002508
164.381768466182
161.124233977731
157.646285401074
154.138594168194
150.569445722139
146.867531929053
143.208340975301
139.954921248978
137.284050910617
134.989077668091
132.74327359568
130.494612204739
128.475957546656
126.824249124792
125.331019703874
123.67166422807
121.80221235527
119.960056872176
118.224686462122
116.210069098107
113.33590782949
109.39010994479
104.703112424753
99.7333102918104
94.6016166808817
89.1522621622891
83.4086967565744
77.770863317833
72.6506398018786
68.0015442710968
63.3629037585708
58.3879212682796
53.21117596683
48.2317348941416
43.6404802021797
39.3136791406957
35.1638549610952
31.413085143711
28.3711849431608
25.9922413728317
23.809257308751
21.3644729893915
18.605805490881
15.7719812691625
12.9663963096649
10.0134648721078
6.77984616988643
3.49126327810461
0.57053821554269
-1.8252989986572
-3.96474100885466
-6.18034374224086
-8.45765638775356
-10.5123071745618
-12.2401647500779
-13.9278465497081
-15.9405503022423
-18.3190556992324
-20.8468296525417
-23.5034635336631
-26.6685108525271
-30.7445972036003
-35.6481454864299
-40.8272142016699
-45.8003242187289
-50.5333132043064
-55.1889243622037
-59.6239912678844
-63.3572062948752
-66.1048106224784
-68.1958564124818
-70.2857534539591
-72.6771373377421
-75.0755991031071
-77.0634947076721
-78.6632513729004
-80.2672940337349
-82.0562782274946
-83.7027957332955
-84.7779615986863
-85.3434522589055
-85.9515956219439
-87.034481008123
-88.4474786827186
-89.7215571490436
-90.6597786874933
-91.4931224332482
-92.4233509376443
-93.1977257440619
-93.3025980308278
-92.5258796364573
-91.1469611685567
-89.5149753621435
-87.5900137026804
-85.058875138223
-81.8582648257564
-78.3949916274823
-75.1687940690855
-72.3081864004881
-69.6337316550702
-67.1300268125239
-65.1381429931583
-63.9577789918388
-63.3708913114309
-62.7456150618757
-61.6289159224157
-60.0852121617159
-58.3714804229027
-56.4261017076119
-53.8975638102698
-50.6976855480814
-47.3177009931511
-44.4160679527365
-42.1478264911341
-40.0829406684164
-37.8240619904576
-35.5298906928597
-33.6750450185978
-32.3841863040353
-31.2447849269934
-29.8702251600523
-28.4766280050597
-27.689704403041
-27.7939055643885
-28.3749777775481
-28.8108611415932
-28.9749834555657
-29.2561908701659
-29.9067886110539
-30.60688696286
-30.8282212810857
-30.5074305577997
-30.1240020099716
-30.0695469147076
-30.1379830753866
-29.8070379315769
-28.9341112383544
-27.9481704597046
-27.300366467851
-26.9241946923828
-26.4286759020099
-25.7456142021516
-25.3266474500746
-25.5887173219869
-26.3360994416595
-26.9517136020059
-27.1396726219791
-27.256117389522
-27.795796658157
-28.7190751518496
-29.5175880090694
-29.9250327247518
-30.2978641778566
-31.1128230710013
-32.217800718233
-32.8458565758781
-32.4314771435898
-31.2130135943989
-29.8668218468659
-28.6729270703932
-27.3114503367159
-25.5345829329008
-23.7750951365469
-22.8161654311052
-22.8937857364017
-23.3880261138682
-23.5257882080689
-23.2104249323372
-22.9325547232462
-22.9239376848645
-22.706622882293
-21.6534987366394
-19.8188630395812
-17.9189499506814
-16.457494784694
-15.1340484196183
-13.3226999348411
-11.0090747261873
-8.96216214470773
-7.90716686514769
-7.76194774756931
-7.90035304583193
-8.04595594062543
-8.57662767227075
-9.82112720481942
-11.2925387934568
-11.9216743546111
-11.0614798303213
-9.02883515015536
-6.55104521972339
-3.89190356664001
-0.794672784445268
2.7581132391073
6.07490248959603
8.28663690415385
9.23264644526692
9.55413366709057
9.87576004173094
10.1399440745951
9.92515804929901
9.2532453743476
8.75333327668754
8.94835155491349
9.64137295485308
10.2576608593732
10.6993406369577
11.5511949949272
13.3306109152033
15.7696627784428
18.0991663914947
19.9701084220737
21.7830276911788
23.9862920446093
26.3099957244926
28.0186812235283
28.8931933019725
29.6165973908176
30.973082679288
32.8491410826171
34.3456347458588
34.8864962377171
34.8939984880282
35.1566408125824
35.7499574106563
35.9894733145478
35.5348497149733
35.1891574176677
36.2537723413486
39.152900401798
43.022993033751
46.7568813614558
50.1434158998139
53.6616550279157
57.2853830523579
59.9711505469459
60.6031589420749
59.2287968079386
56.994237549859
54.8476305430237
52.6457494874913
49.7299853678178
46.1035847993548
42.6034292901313
39.8645867957672
37.5180338734691
34.7401408095056
31.4343562697252
28.4583690623321
26.5907458536961
25.6315446275221
24.841743992899
24.0885246148888
24.0759428361617
25.2822311657484
27.0395078118507
28.0800068077692
27.9054222876635
27.1519661391565
26.4045563736272
25.0272067542014
21.6618584006551
15.8722072001033
8.81455815075798
2.00062799872698
-4.2833504531975
-10.8292797374838
-17.8146934347654
-23.851945538948
-27.1853375236442
-27.6297694800536
-26.7765603119162
-26.1531096069769
-25.6546413874036
-24.20936650605
-21.7089338012701
-19.5649821117125
-19.0733139604542
-19.714747054627
-19.6871666247016
-18.068041089645
-15.8446153656509
-14.5076746881455
-14.0981093330811
-13.2964726313267
-11.3942503641575
-9.43074298047621
-8.86802702560978
-9.51202816972607
-9.5030093759968
-7.51057785849756
-4.29711331174211
-1.57178263313106
0.36146033154445
3.00476915012511
7.52310059964789
12.9028286519051
16.9447838811713
18.8673261737552
20.075569953125
22.0198268219903
23.9477390474568
23.5475296213181
19.6578074075349
13.5021166255644
6.99440880181915
0.70303394982016
-5.58509977525642
-10.6959765438863
-11.9622250742111
-8.12852709732278
-1.58368840189056
3.51851218335218
5.08191188388334
3.24844994979596
-4.13568585050039
-24.3348896193201
-64.468257968253
-121.563936705817
-179.409394122456
-218.469534383307
-230.461940134622
-222.18959526385
-204.072668457967
-176.365796759333
-129.263892860152
-56.5990552776747
34.5326038290141
132.245485489517
238.254585358818
373.311633151247
559.149567023941
793.630793692022
1046.14222883204
1279.45381319849
1474.34008983439
1629.03006930412
1733.94135037191
1752.27947490839
1634.08891529976
1356.36454667231
952.042728525525
498.628783409341
75.073176069917
-275.905053692988
-551.477962616525
-763.893340184261
-916.361190921779
-1001.04759569114
-1014.59169344363
-970.960707014908
-898.776157005002
-827.708389474528
-776.732292676929
-751.171624602641
-746.078358388302
-750.819833367139
-752.999550277624
-742.179542508113
-712.842454170916
-665.166424023072
-603.95132126602
-537.728955188211
-478.450660750684
-439.154759963012
-427.757187281105
-440.213787117683
-459.774773115058
-465.389900640846
-444.115834256824
-398.171845594364
-341.785288347658
-291.511912338317
-257.789811955282
-242.247443376689
-239.698580699603
-241.663634020453
-239.819867999774
-229.065057372959
-209.137259027913
-183.39874946677
-155.543526291751
-127.422047105076
-100.134750115945
-76.4620090265419
-60.5889982178432
-54.2236340625847
-53.2408797696885
-49.4984219956502
-37.091123800323
-17.0442558989619
4.31737480657264
21.4566909226628
33.8066880618223
44.3310634217287
55.1293250758173
65.3965188360009
73.4023868213262
79.2142397088153
84.6072098142505
90.6866719687434
96.6257644691626
101.121175796833
104.442945323259
108.273437842803
113.585056461061
119.40276096752
124.064769945397
127.301686859632
130.463799322166
134.721277895579
139.658911902355
144.026708989128
147.507719700258
151.101201049082
155.662470524362
160.607439265015
164.519877568916
166.842536406398
168.426184243264
170.269269756831
172.168760669392
173.056726493733
172.513433062638
171.398800344804
170.756895105239
170.461665620543
169.408309888006
167.000362667887
163.979793459837
161.528623736923
159.838444840062
158.008184110339
155.357349027904
152.398825009997
150.206207023466
149.038374670596
148.034315313321
146.354462632251
144.251744010778
142.680917568978
141.982409467724
141.356464868061
139.772690342786
137.101342553993
134.03629450079
131.016170174675
127.638697542332
123.342515903428
118.420612300734
114.00166189507
111.003213312774
109.375942005279
108.514988801909
108.17076831673
108.612417746888
109.889973309401
111.28278331716
111.753907213701
110.860204780153
108.957766513318
106.488906526364
103.340318022408
99.1136143419262
93.8854791787148
88.3765754030947
83.2674047732178
78.5653872305954
73.859947541885
69.1010570435831
64.8288619319418
61.5210546218285
58.9139507528972
56.197206215223
52.8289018140872
48.9166905188969
44.7250481001716
40.0560126468558
34.4079873730897
27.737778896646
20.7968119870485
14.5430590134324
9.34242659882928
4.94407511817893
1.17968684411492
-1.61637567593351
-3.06201386396835
-3.43406680309423
-3.61868738656607
-4.28507603922542
-5.31479574825221
-6.21786281065228
-6.98419959298712
-8.24486694588929
-10.5231778984247
-13.5584847703507
-16.5990167667242
-19.2910574401288
-22.0069745780573
-25.1890726159556
-28.5792126889138
-31.3610342750711
-33.0572386341652
-34.0454463371168
-35.0502753958006
-36.277565333867
-37.2780529353229
-37.646365797514
-37.5887879894236
-37.6194710396469
-37.8278298497535
-37.7216172227786
-36.8727280467579
