Value(bpm)
69.6598639455782
69.641967571364
69.6242886745048
69.6070351117522
69.5904143389871
69.5746334430303
69.5598991857475
69.5464180604025
69.5343963602241
69.5240402591687
69.5155559048776
69.5091495238534
69.5050275388985
69.5033966988941
69.5044642210212
69.5084379455662
69.515526503486
69.5259394969509
69.5398876931275
69.5575832315125
69.5792398451779
69.6050730963482
69.6353006267878
69.6701418492778
69.7097667467899
69.7542550103028
69.8036790724952
69.8581137782915
69.9176364845791
69.9823271642193
70.0522685146034
70.1275460710146
70.208248325079
70.2944668486041
70.3862964231198
70.4838351754625
70.587184719761
70.6963147822508
70.8097303424979
70.9250208516655
71.0397318674254
71.1513771703871
71.2574399168983
71.3553755727476
71.4426166781997
71.5165794835456
71.5746724773713
71.6143068069253
71.6329085613417
71.6279328543052
71.5969058222556
71.5397855905675
71.4608047786355
71.364639772983
71.2559475148694
71.1393464059503
71.0194033327447
70.9006266910268
70.787465238055
70.6843125797921
70.5955171101682
70.5253972581503
70.478261964415
70.4584364019836
70.470018729227
70.5138725324234
70.5887477840867
70.6934278004825
70.8267577059074
70.9876342656504
71.1749963836849
71.3878161620991
71.6250904341039
71.8858326955006
72.1690653711366
72.4738123634246
72.7990918397217
73.1438071325703
73.5044665370494
73.8750546900012
74.249208223398
74.6203020015304
74.9814454667093
75.3254914523231
75.6450586924848
75.9325691536921
76.1803010870362
76.3804583358084
76.5252559253917
76.6070213122259
76.6202727123395
76.5684818008367
76.4578017377512
76.2946073522845
76.0854044268143
75.8367484496821
75.5551739868039
75.2471353636148
74.9189588914473
74.5768064952402
74.2266503080142
73.8742575911029
73.5251852124215
73.1842016498071
72.8528435479978
72.531592147276
72.2209129198454
71.9212580121498
71.6330680576444
71.3567740089684
71.0927989900726
70.841560169878
70.6034706600505
70.3789414404862
70.1683833171091
69.9722089176196
69.7908336085571
69.6242301722326
69.4712595493922
69.3306422308631
69.2011313294552
69.0815083904867
68.9705797072327
68.8671731087647
68.7701351929675
68.6783289820264
68.5906319814478
68.505934626782
68.4231391047179
68.34115853715
68.2589170981824
68.1762657064303
68.0958234142461
68.0207050696612
67.9539997135102
67.8987769074857
67.8580958166711
67.8350170329433
67.8326171653999
67.8540062742947
67.9023482865646
67.980884605181
68.0929612132472
68.2420596798701
68.4318321869455
68.6640893437191
68.9339650798724
69.2351221222702
69.5610786034064
69.905151314362
70.2604103773836
70.6196462783036
70.9753505434928
71.3197115956017
71.6446274555808
71.9417369490805
72.2024708949308
72.4181243753725
72.5811736676861
72.6928929189078
72.7585782871719
72.7837719604829
72.7741807925104
72.7356171820037
72.6739482755421
72.595054184202
72.5047955982748
72.4089909347569
72.3134029657402
72.2237347540654
72.1456346648852
72.0845328630078
72.0417672499396
72.0146240100659
72.0002432516591
71.9957854148605
71.9984223288096
72.0053305257036
72.0136867819272
72.0206658748099
72.0234405546158
72.0191837351147
72.0050729025148
71.9782967316702
71.936068159689
71.8773451238293
71.8054340638726
71.7243024897676
71.637892105811
71.5501109612111
71.4648299305904
71.3858834280533
71.3170742524312
71.2621824742657
71.2249783062158
71.2092389473379
71.2187694580512
71.2574278071586
71.3288120409223
71.4329289789649
71.5676060989359
71.7306852197967
71.9200359074473
72.1335382361922
72.3690668512265
72.6244762385501
72.8975871480701
73.1861741519084
73.4879543536055
73.800577295336
74.1216161395065
74.4483689033287
74.7763570772889
75.1000697976729
75.4137993782704
75.711657149351
75.987591570682
76.2354162766999
76.4488485426562
76.6215584413648
76.7472286642161
76.8196246091425
76.8326738999787
76.7805839781196
76.6615202505182
76.4810027828633
76.2455659066549
75.9618526278821
75.6365292541044
75.2762112323847
74.8874008339466
74.4764368363006
74.0494559551158
73.6123654711105
73.1708262798368
72.7302454577667
72.2957773767894
71.8718986876269
71.4609932788089
71.0648258094162
70.6850860884037
70.3233983581547
69.9813310757317
69.6604071632116
69.3621147044695
69.0879180864984
68.839269604278
68.6176215695724
68.4244389862171
68.2612128778817
68.1294743795539
68.0304116391257
67.9629668163328
67.9253396468122
67.9158175515016
67.9327623764496
67.97459726013
68.0397946230886
68.1268651398281
68.2343475779204
68.3607994112152
68.5047881332961
68.6648832145169
68.8396486614209
69.0276361514142
69.2273450456209
69.4371006279528
69.6551528336054
69.8797113381303
70.1089413038285
70.3409600050704
70.5738343943332
70.8055796769637
71.0341589680151
71.2574841075257
71.4734177109928
71.6797765291859
71.8743361855006
72.0548834644697
72.219807614781
72.3679457059342
72.4981510863801
72.6092886427884
72.700240280522
72.7699106814359
72.8172332995101
72.8411765482438
72.840750127334
72.8150114300933
72.7630719675032
72.6841037399343
72.5774064604843
72.4446285252872
72.2903521978701
72.1193171894486
71.936205392512
71.745622865398
71.552087975998
71.3600254626811
71.1737661255324
70.9975518474253
70.835545659404
70.6918466055404
70.5705092264185
70.4755675659882
70.4105579080035
70.3750916084903
70.3669823610794
70.3841019711544
70.4243755916085
70.485767381124
70.5662675585311
70.6638807384169
70.7766154640997
70.9024748812294
71.0394485191948
71.1855051685784
71.3385868613547
71.4966223492594
71.6585339601319
71.8247830867311
71.9959700961493
72.1727078723462
72.3556227451647
72.545355540799
72.7425627611119
72.9479179000964
73.1621129068043
73.3858598052329
73.6198924829974
73.864968662137
74.1218201086845
74.388834873432
74.66104548398
74.9330932243337
75.1994620259137
75.4544814014939
75.692337899772
75.9070956357046
76.0927263553449
76.2431493333665
76.352281173271
76.4140952843174
76.4226904499214
76.3735598027139
76.2709108571501
76.1227836672716
75.9372952005535
75.7225383706957
75.4865130783249
75.2370747605978
74.9819000934706
74.7284691204595
74.4840628655399
74.2557754132733
74.0505394910609
73.875164751311
73.7352915428528
73.6287958080524
73.5503154800792
73.4945915316217
73.4564453257117
73.4307502351353
73.4124106876316
73.3963484128439
73.3774957692184
73.3507960887568
73.3112109960212
73.253734635711
73.173414681197
73.0660796016145
72.935182821728
72.7887513487192
72.6347793715798
72.4811377055995
72.3355666097322
72.2056853736852
72.0990179931141
72.0230344122674
71.9852071106874
71.9930832401705
72.0543730845115
72.1770563334982
72.3692841602789
72.6312751234473
72.9527152430582
73.3225005605195
73.7292594836627
74.1612101903126
74.6060514973815
75.050890462089
75.4822113175306
75.8858911918246
76.2472682880752
76.551267656871
76.7825882223813
76.9286746243953
76.9917853488446
76.9795284470118
76.8999796500248
76.7615304463709
76.5727525133726
76.3422786444481
76.0787022014764
75.7904961201481
75.4859516546281
75.1731363907548
74.8598705907072
74.5537206030633
74.260361932961
73.9793461787661
73.7088999487531
73.4473060738696
73.1928988139772
72.944059929625
72.699215555807
72.4568338215656
72.2154231650468
71.9735312978795
71.7297447757262
71.4826891336754
71.2310295459664
70.9735780615061
70.7112864298655
70.4470050657244
70.1835738412952
69.9237489828599
69.6702055859061
69.4255421703846
69.1922871214393
68.9729068805547
68.7698157765647
68.5853874147616
68.4219675750127
68.281888606187
68.1674853444141
68.0810343947522
68.0223941104249
67.9885998742669
67.9765915393827
67.9833592198366
68.0059253448995
68.0413294904373
68.0866158684776
68.138823407342
68.1949783959423
68.2520896974793
68.3071465600789
68.3571190648107
68.3989612548637
68.4296645087193
68.4480007202912
68.4550294133781
68.4519714154317
68.4400567980406
68.4205214760964
68.3946042393217
68.3635442259704
68.3285788443703
68.2909421444838
68.2518636388504
68.2125675701494
68.174272621181
68.1381920623007
68.1055268379113
68.0769493360567
68.0522715446717
68.0312277418904
68.0135540691179
67.9989882605398
67.9872693941645
67.9781376639133
67.9713341723558
67.9666007437566
67.9636797571638
67.9623139993255
67.9622465372742
67.9632206104571
67.96497997861
67.9673775093871
67.9705181981217
67.9745426333593
67.9795915323891
67.9858057807365
67.9933264775275
68.0022949867574
68.0128529945045
68.0251425721386
68.0393062455867
68.055487070727
68.0738287149972
68.0944755453169
68.1175729971862
68.1437029232583
68.1747688634334
68.2129318562474
68.2603662488442
68.3192649169158
68.3918459219037
68.4803606584694
68.5871035657204
68.7144235008901
68.8647369047225
69.0405429245323
69.2444407048949
69.4791491086237
69.747483522371
70.0491966293391
70.3787682814449
70.7300243643363
71.0965716741672
71.4717604084065
71.8486578550379
72.2200345557127
72.5783644070646
72.9158402506102
73.2244064618743
73.495809858963
73.7216698872788
73.8936344279435
74.0080597372584
74.0691341961807
74.0820267392867
74.0521164502849
73.9849264759985
73.8860646775023
73.7611719704522
73.615878968538
73.4557712464896
73.2863632915974
73.113081020269
72.9412526000928
72.7761052685439
72.6213527409593
72.4767411472873
72.3413606037415
72.2143209925064
72.0947498041804
71.9817902245319
71.8745994520754
71.7723472348831
71.6742146166805
71.5793928836654
71.4870827046476
71.3964934580603
71.3068427401485
71.2175151290896
71.1298175804774
71.0463124358483
70.9695616366241
70.9021078304675
70.8464802057228
70.8052021133302
70.7808004764514
70.7758170136657
70.7928213327362
70.8344259890518
70.9033036466211
71.0022065309842
71.133982419252
71.2991848286346
71.4923205335758
71.7068848802182
71.9362572080199
72.1736657590211
72.4121646406462
72.6446235890299
72.8637314227201
73.0620141148035
73.2318683311121
73.3656110695818
73.4555456805538
73.4940457629781
73.4763696401271
73.4062396720568
73.2891279703599
73.130633926665
72.9364183804245
72.7121458486941
72.4634354280277
72.1958206398829
71.9147182062597
71.6254055167482
71.3330063825531
71.0424845648969
70.7586445097917
70.4860435898297
70.2269316126427
69.9813438018376
69.7492307275379
69.5305543022933
69.3252879401845
69.1334167402763
68.9549376957814
68.7898599304195
68.6382049635976
68.5000070061854
68.3753132888283
68.2641844249226
68.1666948105834
68.0829120314742
68.0121319372596
67.9526675675601
67.9027904811132
67.860791278831
67.8249752120802
67.7936586704598
67.765166526333
67.7378303198843
67.7099872731622
67.6799801244922
67.6461577758491
67.6068767453001
67.5605034144928
67.505422756462
67.441458627528
67.3717231643023
67.2997682677296
67.2291169786103
67.1632630688376
67.1056742827641
67.0597991571599
67.0290773703128
67.0169536081055
67.0268949872985
67.0624121441533
67.1270841810489
67.2245877668574
67.3587308116512
67.5321552464101
67.7411937994102
67.9802302468631
68.2435675197445
68.5253798537367
68.8196736141176
69.12025767579
69.4207241061502
69.7144400953554
69.9945522001133
70.2540039991402
70.48556818482
70.6818939203799
70.8356703362657
70.9441664892574
71.011130735402
71.0409653295763
71.0382145209173
71.0075198228965
70.9535805307558
70.8811200190341
70.7948581547914
70.6994899935234
70.5996707889895
70.5000072474039
70.4050548911151
70.3193213662471
70.2470417793568
70.1901708463406
70.149404239571
70.1254416666591
70.1190042607715
70.1308381575797
70.1617183197876
70.212452639801
70.2838863555463
70.3769068195095
70.4924486668492
70.6314994350881
70.7951056955547
70.9843756865339
71.199464535535
71.4381931791391
71.698026975866
71.9763885884533
72.2706423339631
72.5780801850813
72.8959095017447
73.2212426154505
73.5510884276918
73.8823462182764
74.2118018878666
74.5361268806633
74.8518802749084
75.1555264731477
75.4434507820289
75.7119542131975
75.9572677622005
76.1755721990883
76.3630218532715
76.5157723633794
76.6300122564293
76.701998099013
76.7280928294074
76.7048067378073
76.6288404178324
76.4980367504236
76.3169153575566
76.0928876798483
75.8333755936719
75.5457268231867
75.237156287313
74.9147020786914
74.585195561801
74.2552447946853
73.9312303116024
73.6193122406604
73.3254477572682
73.0554179771053
72.8144257036665
72.6023299949724
72.4155824245394
72.2506958461521
72.1042851724287
71.9730485258047
71.8537518026026
71.7432164148039
71.638310028941
71.5359401631469
71.4330505332249
71.3266200576006
71.2136644399585
71.0912460111765
70.9587780630902
70.8214864464257
70.6854186585293
70.5565305429209
70.4406937727109
70.3437131096024
70.2713531523596
70.2293744431473
70.2235790183813
70.2598657742685
70.3442963722391
70.4831728480967
70.6831286307638
70.95065129725
71.2837252072924
71.6734378319814
72.1105409345505
72.5854890779668
73.0883139697276
73.6085217710512
74.1350162021654
74.656051439637
75.1592196939441
75.6314788778922
76.0592258038953
76.4284198312152
76.7280016617817
76.9588334361621
77.1249213942049
77.2307014268833
77.2809645013794
77.2807833627413
77.2354424508405
77.1503726504467
77.0310921519653
76.8831543624
76.7121034882842
76.5234381282166
76.322524832411
76.113089773517
75.8971187120442
75.6764756495521
75.4529854726625
75.2284324490215
75.0045596063302
74.7830689445819
74.5656224318
74.3538437352984
74.1493206435988
73.9536081384855
73.7682320821082
73.5946462734577
73.4328057982023
73.2809409092646
73.137219284553
72.9998422439415
72.86704109424
72.7370743832308
72.6082260234281
72.478804251165
72.3471413897684
72.2115943870668
72.0705460974071
71.9224072768544
71.7656195712543
71.6001920464527
71.4312063296251
71.2646969531268
71.10658720988
70.9626988065549
70.8387710247891
70.7404890461186
70.6735212608691
70.6435656051519
70.6564052544856
70.7179743530989
70.8344348860985
71.0122663262107
71.2578229809145
71.5683575604977
71.9331013996596
72.3408181528062
72.779896011539
73.2382170488454
73.7030622226765
74.1610564573002
74.5981594138722
74.9997081742747
75.3505179299217
75.635045711322
75.837620057453
75.9457576179386
75.9635351555518
75.9009971756236
75.7686789504541
75.5773974560526
75.3380715427481
75.061571826223
74.7586021999701
74.4396132748554
74.1147468377242
73.7938096009355
73.4862740688152
73.2013042365732
72.946819653393
72.7228895213118
72.526036864553
72.3528951428185
72.2002067111833
72.0648030709656
71.9435883493447
71.8335257574415
71.7316268338105
71.6349433253042
71.5405615915065
71.4455994434386
71.3472053427836
71.2425996544264
71.1318159896276
71.0194296488431
70.9103792311175
70.8095434583962
70.7217493460126
70.6517869317981
70.604430442818
70.5844658817515
70.5967251541971
70.6461270353776
70.7377254939225
70.8767661587696
71.0687520438491
71.3183264537835
71.621964764017
71.9725170358521
72.3627068429775
72.7850503052751
73.2317738665768
73.6947461543776
74.1654253952441
74.6348244612447
75.0934960995591
75.5315412108276
75.9386431416368
76.30415128379
76.6206470891714
76.8881161197882
77.1077143837017
77.2808262784562
77.4090455545331
77.4941548960268
77.5381045566356
77.5429904780525
77.5110322960402
77.4445516086944
77.3459508436462
77.2176930182737
77.0624287390649
76.8839715133071
76.6866516597649
76.4747508221934
76.2524808941257
76.0239710521315
75.7932594974573
75.564289679519
75.3409107501695
75.126881993107
74.925880986152
74.7415152833613
74.5773374473328
74.4359067973781
74.314719443121
74.2096701745446
74.1167224184364
74.0318938838943
73.9512456151433
73.8708753521641
73.7869150770291
73.6955326446819
73.5929373992373
73.4753896616029
73.3392139422528
73.1808156855081
72.9976432582819
72.7946020440618
72.5799858325438
72.3619367498618
72.1484089974461
71.9471713513944
71.7658265819836
71.6118468453865
71.492624353502
71.415537012921
71.3880292355538
71.4177087667275
71.5124611703226
71.6803994465149
71.9217590042092
72.2253999494395
72.5792615301301
72.9710167350303
73.3879121679483
73.8166479668701
74.2433014996036
74.6533001387628
75.0314493439796
75.3620223942596
75.628917228638
75.8158837919319
75.9084648699679
75.9086051884381
75.8278293007899
75.6782306999509
75.4721381553563
75.2219160436661
74.9398042416177
74.6377989433244
74.3275738800414
74.0204401039172
73.7273417371706
73.4588848369036
73.2253967191194
73.0364409552951
72.8927618189712
72.7884200491946
72.7174982278493
72.6742264934041
72.6529342923212
72.6480117238509
72.6538799370784
72.6649702649672
72.6757119446037
72.6805283799923
72.6738419553709
72.6500874035417
72.6038296284494
72.5340348918896
72.4457263435945
72.3443542625968
72.2353277976365
72.1239997364529
72.0156593618411
71.9155331755424
71.8287932522626
71.7605730149917
71.7159902968394
71.7001776721599
71.7183202006636
71.7757009345794
71.8760141641621
72.0161499654183
72.1913302480894
72.3967904585314
72.6277347010296
72.8792969858977
73.1465085476089
73.4242713801798
73.7073383098212
73.990300065527
74.2675799134257
74.5334364850886
74.7819785994981
75.008455883541
75.211274958933
75.3893625622955
75.5416785915006
75.6672224000067
75.7650391492967
75.8342261589633
75.8739391899153
75.8833985929132
75.8618952523489
75.8087962539626
75.7235502051605
75.6057779897625
75.457478495739
75.2831710469646
75.0874796663004
74.8749796070396
74.6501750512371
74.4174825163124
74.1812197790549
73.9456000593821
73.7147311677104
73.4926193071591
73.2831772323124
73.0902364972207
72.9175269975683
72.7661809314808
72.633174936488
72.5151726298664
72.4089005988341
72.3111362773775
72.2186988586382
72.1284431145552
72.0372560235769
71.9420561253597
71.8397955291314
71.7274645003703
71.6020985391633
71.460787843629
71.3018441323861
71.1303485366664
70.9537228521834
70.7792531505533
70.6140841508198
70.4652315901862
70.3396085211522
70.2440650125125
70.185441008872
70.170632486322
70.2066715339566
70.300821604726
70.4606899397535
70.6942870590542
71.0035804362704
71.3790250007764
71.8097674489018
72.2846572065285
72.7920763075142
73.3198009334132
73.8548981727101
74.3836633671691
74.8916047860238
75.3634831509857
75.7834135240906
76.1350360414366
76.4029549116016
76.5848349986696
76.6868250025758
76.7157928717062
76.6790749942207
76.5843432139874
76.4394821272632
76.2524796419032
76.0313328565163
75.7839704642682
75.5181921479599
75.2416248355254
74.9616952391863
74.6849274659134
74.4136530555455
74.1486980298508
73.8908635519365
73.6409297022802
73.3996573629667
73.1677902288392
72.946056938558
72.735173320472
72.5358447501684
72.3487686185729
72.1746369115361
72.014138903967
71.8679336672514
71.7360814623549
71.6181034950326
71.5135214888487
71.4218768777053
71.3427292089703
71.2756546508123
71.2202445944366
71.1761043428518
71.1428518786317
71.1201167038856
71.1075387463316
71.1047673259712
71.1114601839903
71.1275186471237
71.1537119057092
71.1910157319234
71.2404197640916
71.3029307115106
71.37957588286
71.4714070617847
71.5795047579703
71.7049828674017
71.8489937816216
72.0127339928035
72.19745024948
72.4044463270164
72.6345599016316
72.8844911688424
73.1488817472151
73.4222199926909
73.6988332667217
73.9728768930404
74.2383320389633
74.4890132363065
74.7185862481569
74.9205969082198
75.088511400933
75.215768206743
75.2958416686381
75.3245906724075
75.3063407013316
75.2474776444307
75.1544937843627
75.0339239292154
74.8922924839246
74.7360718834696
74.5716524686049
74.4053236261139
74.2432658410654
74.0915532158947
73.956165995384
73.8430126394644
73.7560817656862
73.6925385578389
73.6480611898775
73.6183827418231
73.5992716038821
73.5865168985831
73.5759187943195
73.5632836424906
73.5444239054764
73.5151628545483
73.4713440058008
73.4088452285594
73.3235974050523
73.2133097065008
73.0839553960023
72.9439201463893
72.8014798580595
72.6647858705303
72.5418692352706
72.4406628444625
72.3690408432153
72.3348750395819
72.3461084679148
72.4108468599296
72.5374695501516
72.7347623210771
73.0105327507183
73.3597186457903
73.7704241573036
74.2304530352927
74.7271661282572
75.2473194205262
75.7769427128304
76.3012645362139
76.8046905634737
77.2708437529841
77.6826744969906
78.022647891319
78.2734722572311
78.4303447234832
78.502488390782
78.5004683075895
78.4353114712975
78.3183145185088
78.1608796965226
77.9743824386669
77.7700721062591
77.5590060609867
77.3520162359847
77.159706786641
76.9924812030075
76.8580245691271
76.7537181599123
76.6744831312636
76.6153372585891
76.571365666549
76.5376982240496
76.5094933308576
76.4819279276034
76.4501936312917
76.4094989354105
76.3550774182903
76.2822018761208
76.1863117678997
76.0669468064558
75.9288112164166
75.7769081324525
75.6161821224426
75.4515049223077
75.287667648935
75.1293792479016
74.9812709095226
74.8479061963073
74.733796664622
74.6434228310054
74.5812604276764
74.5516122635252
74.5548601616159
74.5877964521758
74.6471409194624
74.7296532753359
74.8321113759612
74.9512923257181
75.0839563610011
75.2268334707437
75.3766127644552
75.5299346428177
75.6833858604557
75.833497595033
75.976789843517
76.1099864178142
76.2298646106265
76.3331743750077
76.4166506621379
76.4770287098398
76.5110621141773
76.5155435827224
76.4873281999943
76.4233589601378
76.3206942412758
76.1765368129266
75.9882908910772
75.7568126121339
75.4893597397802
75.1938316440044
74.8779728305854
74.5493261970704
74.2152025824314
73.8826656132423
73.5585306752817
73.249376792496
72.9615702572372
72.7012990091324
72.4746169898653
72.2874979965845
72.1440196880636
72.0401019576856
71.9695901676193
71.9264807138118
71.9048705645736
71.8989171897444
71.9028083755759
71.9107416015042
71.9169128291384
71.9155146621068
71.9007438796818
71.8668183278103
71.8080030685284
71.7191148741257
71.6022653760852
71.4652030080025
71.3157535732087
71.1616345929773
71.0104375171178
70.8696264820265
70.7465529240308
70.6484854197206
70.5826543234614
70.5563110977712
70.5768026830767
70.6516618367101
70.7887150083136
70.9926834831653
71.2558061624971
71.5674221421753
71.9166977626392
72.292488134035
72.6832299818312
73.0768680862599
73.4608188484778
73.8219753481441
74.146758564583
74.4212190969912
74.6311926164436
74.7625360176325
74.8077986530335
74.7749124873216
74.67439195086
74.5170467870776
74.313804816102
74.0755647505787
73.8130810276332
73.5368810345554
73.25721391028
72.984029313084
72.7269841385309
72.4954751134894
72.2986954383504
72.1438613970455
72.028386097475
71.9466131168816
71.8930383296152
71.8622648698892
71.8489649484549
71.8478500182299
71.8536489411153
71.8610939701341
71.8649144721898
71.8598383793688
71.840601371583
71.8019637606104
71.7390590776693
71.6535473909012
71.5530458854701
71.4453350771425
71.338111976972
71.2389831484592
71.1554741473949
71.0950548884544
71.065180639296
71.073348637648
71.1271707593857
71.2344632440924
71.4033552291838
71.6424121840958
71.9559656277356
72.3354230203092
72.7698336236556
73.247941072097
73.7580153288306
74.287716568352
74.8239946141028
75.3530293279736
75.8602186728611
76.3302218962363
76.7470652111989
77.0943162615824
77.3566360290198
77.5329530570665
77.6314239131434
77.6609276947925
77.6307745254954
77.5505511591777
77.4299862480385
77.2788381350382
77.1068067806885
76.9234703923479
76.7382465314004
76.5603769429878
76.3989315907323
76.2603208951636
76.1439514157228
76.048088279787
75.971047461254
75.9111872114864
75.8669003739328
75.8366075110792
75.8187507862177
75.8117885544774
75.8141906279033
75.8244341882709
75.8410003289424
75.8623673203043
75.8869080023228
75.912878934526
75.938526586518
75.9620927429488
75.9818150568604
75.9959284206195
76.0026671576132
76.0002680344102
75.9869740880228
75.9610392562528
75.9207337909333
75.8643504242668
75.7909810249694
75.7052003788787
75.6139124785284
75.5239703185157
75.4421628111894
75.3752234721325
75.3298511330353
75.3127425294173
75.3306368106451
75.3903723090512
75.4989562891127
75.6636488888164
75.892050630574
76.1871968934757
76.539700244765
76.9380623477072
77.3704577159092
77.8246006990275
78.2876472244105
78.7461350673835
79.1859675974294
79.5924465982743
79.9503597485594
80.2441275223698
80.4580531312905
80.5834419001158
80.6266534029312
80.5964672209032
80.5020711284099
80.3529053198303
80.1585250028959
79.9284840769421
79.6722413993332
79.3990901134866
79.1181097033624
78.8381398645742
78.5677749360614
78.3135682784872
78.0747218724587
77.8486823728085
77.632965237826
77.4251471073647
77.2228598480425
77.0237861609525
76.8256566617824
76.6262483534469
76.4233844177026
76.2149352551207
75.998820702569
75.7730535827419
75.537930978131
75.2970904936514
75.0543589000961
74.8134674475864
74.5780525840002
74.3516602564655
74.1377535630539
73.9397235486207
73.7609029775024
73.604582965244
73.4740324108981
73.3725202404859
73.303327653794
73.2682301548225
73.2660596370514
73.2953909190187
73.3548781002191
73.4432430625122
73.5592648603153
73.7017698720116
73.8696226035976
74.0617170517138
74.2769685473127
74.5143060137252
74.7726645841142
75.0509088320862
75.3456824793124
75.6509151325955
75.9601924960434
76.2668889783452
76.5641643335334
76.8449723478191
77.102082534393
77.3281156943673
77.5155939879707
77.6570058262113
77.744885435593
77.7719084068431
77.734216255904
77.6379969509019
77.4914868511058
77.3030200413574
77.0809314191614
76.8334775870184
76.5687759613422
76.2947618867549
76.0191630893059
75.7494905116645
75.4930444364673
75.2569348049014
75.0480626500389
74.8695841524952
74.7187234025793
74.5922608246861
74.487069015401
74.4000937729366
74.3283380024119
74.268848291313
74.2187040015904
74.1750087667353
74.1348843149662
74.0954665641073
74.053903950386
74.0074171144713
73.9565342598911
73.9067386654134
73.8638946964004
73.8338421345744
73.8224118380893
73.8354506118029
73.8788553924721
73.9586170509281
74.080874377363
74.2519791550257
74.4785736558049
74.767682429782
75.1263354377856
75.552364388937
76.0346693746801
76.5614468721221
77.1203461580066
77.698328815081
78.2815660107207
78.855379742651
79.4042356249423
79.911795508383
80.3610380645104
80.7344541647237
81.0154994712386
81.2020807633083
81.3022560320745
81.3249350186697
81.2795291772821
81.1757831179709
81.0236242810417
80.8330343000374
80.6139441502664
80.3761540027839
80.1292777602497
79.8827115637643
79.6452012201989
79.4195654608995
79.2044635423899
78.9984996245911
78.8003113313725
78.6085667363669
78.4219618519727
78.2392185927892
78.0590831881847
77.8803250214248
77.7017358748467
77.5221295620308
77.3403505121806
77.1567085558115
76.9745496375351
76.7975425957064
76.6292898807012
76.4733344864683
76.3331701065403
76.2122544039336
76.1140253304278
76.0419204878895
75.9993995927095
75.9899701847954
76.0172168163811
76.0845640504
76.1914268154995
76.334073853475
76.5087357723835
76.7116567091221
76.9390634452297
77.1871381214537
77.4519944842834
77.7296577057478
78.016047912444
78.3069676411104
78.598093505191
78.8849760711187
79.1631756782386
79.4283121548757
79.6759145289744
79.901425734205
80.1002240615091
80.2676501353272
80.3990394318889
80.4897602143622
80.5352565913488
80.5310962150187
80.4730219291424
80.3572272732092
80.1860722300169
79.9684658021954
79.7136335099014
79.4307016820001
79.1286257247044
78.8161397045081
78.5017263712757
78.1936063852859
77.8997453432378
77.6278772009696
77.3855428415459
77.1801427555062
77.0168664831
76.8931751508026
76.8049220053103
76.7481012715362
76.7188136409893
76.7132364927757
76.7275984231895
76.7581577812364
76.8011850074428
76.8529486549239
76.9097050368388
76.9676914941929
77.0233511357853
77.0770838933276
77.1326753426413
77.1940408766755
77.2651225885392
77.3498972269155
77.4523882827478
77.576682347528
77.7269499464717
77.9074711337903
78.1226662448351
78.3771323349505
78.6756199964721
79.0194358933299
79.4044127746278
79.8258545177775
80.278940415494
80.7586783978683
81.2598631689656
81.7770396878203
82.3044726501765
82.8361228350314
83.3656313627273
83.8863130596136
84.3919138197626
84.8799524348918
85.3492271094603
85.7985309883243
86.2266558023544
86.6323966299122
87.0145569305006
87.3719538264939
87.7034236040635
88.0078273996293
88.2840570292387
88.5308875642815
88.7465723371064
88.92927377029
89.077201307106
89.1886241438769
89.2618842905236
89.2954098153965
89.2877281152887
89.2374790384618
89.1434276781551
89.0044965419184
88.8221542646192
88.6026125257159
88.3526011073882
88.0787794377729
87.7876973991476
87.4857664120662
87.1792404365459
86.8742063885033
86.5765833894563
86.2921302442243
86.0264590066848
85.7825990717226
85.5561301547264
85.3413563110016
85.1327054142537
84.9247168684315
84.7120365757403
84.4894187878836
84.2517344800857
83.9939858648299
83.711326608329
83.3990872317615
83.0532739263696
82.6782154771875
82.2849884993126
81.8845207902749
81.4873399580246
81.1035729768893
80.742971576837
80.414960987039
80.1287099754246
79.8932207489945
79.717438077867
79.6103779705767
79.5808521864148
79.6282724185348
79.7426767948666
79.9139333447615
80.1320052558749
80.3868172709527
80.668147130751
80.965541768961
81.2682590027461
81.5652362476347
81.8450883032413
82.0961364728808
82.3074763894587
82.4752528454401
82.5987979425389
82.6775949871199
82.7112706811038
82.6995984754957
82.642500742801
82.5400497328025
82.3924672946206
82.2001233668897
81.9635332567788
81.6833540327096
81.3617706645584
81.0056261265244
80.6225877863012
80.2201225945862
79.8054581497773
79.3855579553607
78.9671098032878
78.5565261012661
78.1599549434189
77.7833007861887
77.4322537193866
77.1123265027446
76.8285429464716
76.5804304381096
76.3633924994819
76.1728961374123
76.0045527027162
75.8540898930977
75.7173291878243
75.5901683150032
75.46856844971
75.3485459132232
75.2261681929356
75.0975541311343
74.9588781402716
74.8072680580923
74.6468673879903
74.485030370188
74.3290064790881
74.1859256777944
74.0628170343043
73.9666405782542
73.904332093678
73.8828608492043
73.9093006744886
73.9909153083069
74.1352595872579
74.3502988448241
74.6421216801797
75.0031168257628
75.4205079301608
75.8811807349726
76.3715021337517
76.8771751688089
77.383141623598
77.8735388627792
78.3317188816613
78.7403379137244
79.0815241521178
79.3371289141469
79.4913227614556
79.5465279553138
79.5143268195354
79.4069438866457
79.236948341129
79.0170393461455
78.7598697281158
78.4779103810679
78.1833556902294
77.8880687570161
77.6035642470721
77.3410262482461
77.1112347793619
76.91790751627
76.7544688163869
76.6136781032134
76.4884466012801
76.3718017263718
76.2568647536584
76.1368411976563
76.0050234635359
75.854805358749
75.6797079936229
75.4734164559896
75.2298264265203
74.9436473396134
74.6193630380951
74.2694156996065
73.9061313434763
73.5414010640743
73.1866625369736
72.8529184935975
72.5507885990282
72.2905916763865
72.0824561013794
71.9364573889434
71.862783490897
71.8719301418682
71.9748912641286
72.1767511685171
72.4691477733281
72.8422978548221
73.2865447754586
73.7921378899997
74.3490359308562
74.946732973411
75.5741077732824
76.2192992757584
76.869612928804
77.5114640307751
78.1303655989532
78.7132513377659
79.2575866529143
79.7642912924139
80.2345108471336
80.6696043220959
81.0711310620831
81.4408367049984
81.7806385061018
82.0926103713164
82.3789679256706
82.6420539248724
82.8842910486817
83.1063383734415
83.3060835995828
83.4811780873297
83.6292793770461
83.7480650077708
83.8352475271246
83.8885905749999
83.9059258901138
83.8851710547348
83.8243477597545
83.7216003409524
83.5758584112612
83.3899437186844
83.1681024437013
82.9146003628231
82.6336879817796
82.3295719518622
82.0063909712115
81.668196147068
81.3189357046404
80.9624438579133
80.6024336067387
80.2424931915936
79.8857621929104
79.5335666528035
79.1866277266074
78.8456404754335
78.5112755665633
78.1841807004057
77.8649821160269
77.5542861669078
77.2526809598165
76.9607380509113
76.679014194411
76.4080531403758
76.14838187212
75.9001278071342
75.6627849298793
75.4358069332945
75.2186658672511
75.010850783
74.8118664787661
74.6212323388939
74.4384812597164
74.2631586560012
74.0948215424491
73.9330376852681
73.7773848193439
73.6274628724156
73.4840476771937
73.3499797820716
73.2282770143391
73.121926754392
73.0338975321627
72.9671529881044
72.9246682245486
72.9094486254635
72.9245512837427
72.9731092464373
73.058358871687
73.1836706891862
73.3525716724308
73.565628135575
73.8161952567535
74.0965166927844
74.3986708903161
74.7145124905488
75.0356301821665
75.3533222666136
75.6585915336369
75.9421612129053
76.1945137395308
76.4059538150784
76.5666967320729
76.6676726095772
76.7083224042809
76.6939045855333
76.6300218836264
76.5224463150005
76.3770499351177
76.1997435316851
75.9964240481088
75.7729311688544
75.5350131919333
75.2883020662549
75.038297285707
74.7903582065042
74.5492995210818
74.3169571305909
74.0938954456338
73.8806642640235
73.677805432335
73.4858545618251
73.3053428059906
73.1367987016131
72.9807500762834
72.8377260265917
72.7082589724066
72.5928867939718
72.4921550599252
72.4065458588771
72.3352754967281
72.2764989748749
72.2283627357805
72.1890334117905
72.1566928971337
72.1295343716625
72.1057592517965
72.083575051616
72.0611941425304
72.0368334035022
72.0087147554762
71.9750665734831
71.9341327894881
71.8853200430824
71.8304762298937
71.7717511986424
71.7112827127548
71.6511948043533
71.5935973983237
71.5405871852392
71.4942497225949
71.4566627475257
71.4299006908663
71.4160403920062
71.417168026511
71.4353872739907
71.4724602366169
71.5272859624657
71.5974125726389
71.6803823269694
71.7737299084248
71.8749742997331
71.9816123339048
72.091113939931
72.2009191214571
72.3084367179115
72.411045004184
72.5060941862155
72.5909108454628
72.6628527201046
72.7201132587505
72.7616092116501
72.7862950991885
72.7931451204019
72.7811579891243
72.7493619617312
72.6968200171282
72.6226351446713
72.5259556910255
72.405980712703
72.2619652773095
72.0932256534934
71.8991526998043
71.6806139059792
71.4414704587356
71.1859031046308
70.9180083662339
70.6417832754147
70.3611149496411
70.0797747358416
69.8014166123492
69.5295795269435
69.2676933553722
69.0190881872908
68.7870066828504
68.5746192911202
68.3850362178581
68.2198505747485
68.0772548044784
67.9550351623274
67.8510457959666
67.7631967196933
67.6894433320269
67.6277773549227
67.5762190990671
67.5328109815876
67.4956122405705
67.4626948054512
67.4321402939082
67.4020381145607
67.3704846606885
67.3358326666199
67.2976432249005
67.2558419140888
67.2103559457218
67.1611141723819
67.1080471698037
67.0510873189679
66.9901688880045
66.925228113724
66.8562032825886
66.7830348109354
66.7056653242571
66.6240397353456
66.5381053211015
66.447881430533
66.3549861741131
66.2626134251941
66.1739909422824
66.0923127446176
66.0207443943714
65.9624312923948
65.9205099440815
65.898122191373
65.8984324581493
65.9246481197449
65.9800431841728
66.0679855647172
66.1919683336515
66.3556454314877
66.5611560680114
66.8045373972035
67.0803890063056
67.3832197025614
67.7073950542215
68.047093261935
68.3962698625979
68.7486320661257
69.0976237689955
69.4364224656108
69.7579493740245
70.054894087575
70.3197549383797
70.5450181925426
70.7277155719114
70.870884202823
70.9781455902
71.0532871622739
71.1002254623625
71.1229726218173
71.1256066704524
71.1122460997545
71.0870289662481
71.0540967120427
71.0175827899159
70.9816061131325
70.950269306445
70.926942751326
70.9107953680927
70.8994837648399
70.890668207353
70.8820122958397
70.8711820884819
70.8558467635346
70.8336808145346
70.8023677692487
70.7596054148521
70.7031124995866
70.6306368649638
70.5399649427089
70.4289465273072
70.297180103604
70.1475718584779
69.9833847812861
69.8078449240696
69.6241299537075
69.4353607439816
69.2445959041308
69.0548291152763
68.8689891322413
68.6899423048525
68.5204974788101
68.3634131506833
68.2214067736579
68.0971643441822
67.9926374476635
67.9079747026295
67.8430757359861
67.7978745735903
67.7723394219245
67.7664725981563
67.7803106082907
67.8139243743272
67.8674196125475
67.9409373663075
68.034654698
68.1487855462091
68.2835817555228
68.439333218867
68.6155911949712
68.8097662739833
69.0188635205898
69.2398323671739
69.4695539278648
69.7048308918271
69.942380148866
70.1788283362102
70.4107105211604
70.6344722487272
70.8464751847514
71.0430065715318
71.2202926829321
71.3746803975293
71.5044846962686
71.609370465885
71.6890768032343
71.7433949877474
71.7721696546369
71.7752996914698
71.7527388488919
71.7044960590731
71.6306354583431
71.531276113435
71.4065914537251
71.2568084147877
71.0822085953981
70.8840397631772
70.6658730111841
70.4315911523204
70.1850069973959
69.9298490336578
69.6697513471386
69.4082475716337
69.1487686145589
68.8946438954144
68.6491058340427
68.4152973412359
68.1962820915457
67.9950573956947
67.8145695364238
67.6572856862427
67.5238904734762
67.4146605777347
67.3299175108522
67.2700303933244
67.2354190194322
67.2265572459741
67.2439767440382
67.2882711584819
67.3601007258776
67.460197408776
67.5893706124144
67.7485135596751
67.938610411439
68.1601730296125
68.4104437105517
68.6854228623366
68.9810264750397
69.2930584132811
69.617185519655
69.9489174906653
70.2835919568029
70.6163653014543
70.9422098306118
71.2559179511232
71.5521140226732
71.8252745104875
72.0699043444037
72.283388038252
72.4658753510002
72.6177112864815
72.7393317216913
72.8312590263846
72.8940971905409
72.9285265302915
72.9352980453848
72.9152275023395
72.86918931716
72.7981103099639
72.7029634012155
72.5847737688766
72.4454694427894
72.2884091877096
72.1170570049606
71.9348342876169
71.7451084050192
71.551184597465
71.3563010586096
71.1636270590058
70.9762639526624
70.7972489084415
70.6295612184236
70.4761310549816
70.3398505763352
70.2233580646974
70.1265244361173
70.0474261710518
69.9841521173196
69.9348274773738
69.897605885072
69.8706625578394
69.8521884695892
69.840385504047
69.8334625599527
69.8296325891778
69.8271105562361
69.8241123130615
69.8188543863346
69.8102551999489
69.8009513453591
69.7948047938285
69.7956761563258
69.8074295379684
69.8339424518746
69.8791200635175
69.9469138689339
70.0413449879945
70.1665323548992
70.3267262150703
70.5263474951244
70.7700338070327
71.0625664028992
71.4032605018252
71.7834460785963
72.1935910960697
72.6237823339837
73.0636484715704
73.5023097957683
73.9283580398269
74.3298703735685
74.6944616917379
75.0093789827004
75.2616406100351
75.4382217299991
75.5273051837637
75.529852573946
75.4555841913241
75.3147996090239
75.1180385045741
74.8759131552673
74.598969576121
74.2975788280968
73.9818585858038
73.6616239738746
73.3463659655898
73.0452552649313
72.7671695268563
72.5205664998562
72.3082414795091
72.1265725959309
71.9717182145792
71.8399622098629
71.7276884188172
71.6313593113511
71.5474985453124
71.4726771589025
71.4035032190531
71.3366147944038
71.2686761569786
71.1963771385702
71.1164355769138
71.0267287428176
70.930582633913
70.8329215933896
70.7386177388839
70.6524920563872
70.5793224273925
70.5238581000092
70.490840513921
70.4850304894833
70.5112419275965
70.5743823412087
70.6795007556565
70.8318437808908
71.0367620699377
71.29394135843
71.5955415910447
71.9331106873689
72.297976567314
72.6811646996427
73.0733355770282
73.4647440279454
73.8452228702461
74.2041937788272
74.5307083258788
74.8135218943085
75.0412025018644
75.2029459724105
75.2972159685459
75.3294093112728
75.3054146165607
75.2313752738286
75.1136033405448
74.9585019984779
74.7724978964819
74.5619842096548
74.3332748079218
74.0925695632623
73.8459305413349
73.5992686215427
73.3581839385421
73.1254285345085
72.9014053369064
72.6864385794882
72.4808486770154
72.2849532224383
72.0990680032538
71.9235080385864
71.7585886389408
71.604626490984
71.4619407701449
71.3308542842622
71.2116946519789
71.1047954614951
71.010210763891
70.9270562065854
70.8542702834507
70.7908094212165
70.7356450998139
70.687761305372
70.6461523005031
70.6098206994981
70.5777758386005
70.5490324336774
70.5226095193882
70.4975296653757
70.4728184660931
70.4475551042089
70.4224191209948
70.3999678997302
70.3828604840753
70.3737525652215
70.3753015239883
70.3901734831018
70.421052395451
70.4706512198918
70.541725268879
70.6370878524325
70.7596283916389
70.9123332333597
71.0983094679081
71.3192873582591
71.5697191916844
71.8417216533505
72.1272087481474
72.4178499555962
72.7050460292336
72.979924395749
73.2333558245941
73.4559940000337
73.6383393545529
73.7708279878371
73.8439456827643
73.8483659414239
73.7776053219971
73.637662395041
73.4384567054544
73.1900243046897
72.9023736901538
72.5853698622902
72.248646300806
71.9015442603413
71.5530779710433
71.2119238313301
70.8864314690481
70.5846545841478
70.314399730168
70.0832559692153
69.8944229626694
69.742868453953
69.6228186351395
69.528670325186
69.4549450103195
69.3962524201924
69.3472630066047
69.3026889064324
69.2572731236834
69.2057867626451
69.1430341880873
69.063865981381
68.9631995048431
68.8361026552494
68.6816699433181
68.5054353648858
68.3134597609099
68.1117016373033
67.9059959775886
67.7020434861944
67.5054097137355
67.3215334800643
67.155744043226
67.0132865552949
66.8993554932541
66.8191359506084
66.7778529223168
66.7808290147439
66.8320401316381
66.9283685260911
67.0646373937244
67.2357376713694
67.4365696775526
67.661992152369
67.9067788171821
68.1655824348735
68.4329066126224
68.7030858060086
68.9702741531998
69.2284438852916
69.4713941150574
69.6927756361885
69.8880727764519
70.0576889751027
70.2028739398572
70.3249561853897
70.4253336812715
70.5054646754138
70.5668588111775
70.6110686434535
70.6396816455166
70.6543127847597
70.6565977319132
70.6481867554149
70.6307393404962
70.6058811679776
70.5745700396958
70.5371968801022
70.4941362609434
70.4457638645488
70.3924559084136
70.3345886091911
70.2725376867813
70.2066779089758
70.1373826769064
70.0650236513528
69.9899704197893
69.9125902038961
69.8332476071234
69.7525347032074
69.6726700059263
69.5965563678637
69.5270748568923
69.4670862917655
69.4194379559565
69.3869726293047
69.3725399411439
69.3790100838197
69.409289969039
69.4663419620387
69.553205391245
69.6730211056343
69.8290591144423
70.0231397917871
70.2518561483322
70.5106880596489
70.7950544750901
71.1002746032342
71.4215346130797
71.7538600977746
72.0920947265345
72.430885661492
72.7646764350772
73.0877080635505
73.3940292051314
73.6775161779731
73.9330129906011
74.159355944032
74.3563624137629
74.5239247675191
74.6620103437365
74.7706609612274
74.8499919698675
74.9001908573149
74.9215154316353
74.9142916041623
74.8789108009024
74.8158270342432
74.725556978413
74.6094978681663
74.4709853123611
74.3136188531721
74.1409726812208
73.956579778111
73.7639195734435
73.5664090373503
73.367397088372
73.1701621693502
72.9779128300328
72.7937911532016
72.6208788701791
72.4622060304491
72.3199776211732
72.1926086038107
72.0774203926544
71.9717811481534
71.8730980202519
71.7788111306813
71.6863894487155
71.5933284972493
71.4971498359612
71.395402272755
71.285664753951
71.1655508780779
71.032714967918
70.8849429909841
70.7231866506514
70.5523550299719
70.37753169953
70.2037045326839
70.0357641531073
69.8785092965679
69.7366587485142
69.6148695719353
69.5177614282587
69.4499469155985
69.4160680028587
69.4208388264498
69.4690953426625
69.5654025231323
69.7076297024209
69.8883418801637
70.099941684492
70.3347352006058
70.5848701530568
70.842290567278
71.0987087810874
71.3455960391349
71.5741931020213
71.7755423134771
71.9405423668476
72.0600265716554
72.124921408305
72.1314471601732
72.0852344918433
71.9930761337591
71.86189048224
71.6986412729399
71.510270193011
71.3036430241974
71.0855094232693
70.8624760701759
70.6409926509466
70.4273499878959
70.2276895759595
70.0480238208673
69.8939846406504
69.7662549376929
69.6614172254279
69.5760107459959
69.5066437209975
69.4499761150647
69.4027058399713
69.3615582407373
69.3232787548131
69.2846286713743
69.2423839408704
69.1933369957923
69.1343015425069
69.0621202712745
68.9740617554782
68.8720939317483
68.7612565137413
68.6465905971307
68.5330739483383
68.4256193104093
68.3290798191156
68.248261303318
68.1879412977248
68.1528946898275
68.1479260550849
68.177908906212
68.2478322969256
68.3628554839786
68.5278065834004
68.7400872471041
68.9916227520815
69.274115299128
69.5790765849259
69.8977580565075
70.2211013701818
70.5397107537215
70.8438494178481
71.1234623727782
71.3682279314483
71.5676397737723
71.7111206632275
71.7882165558561
71.7946321899197
71.7379290924259
71.6272941160524
71.4720755516405
71.2816568134369
71.0653541319223
70.8323390713634
70.5915857136375
70.3518416496777
70.1216214930163
69.9092214584285
69.7227536065465
69.5701986152565
69.459268013947
69.3911569077604
69.3595043011057
69.3576592318449
69.3790615911937
69.4171918910461
69.4655336038797
69.5175477854075
69.5666599399113
69.6062592405711
69.6297102724546
69.6303774223493
69.6016618953899
69.5370510934906
69.4307937167972
69.2856462339897
69.1104111706568
68.9139458498764
68.7049654217559
68.4920018412148
68.2833848908609
68.087244064726
67.911530052706
67.7640546957956
67.6525485964694
67.5847360506507
67.5684276118101
67.6116314122649
67.7224382415496
67.9015996561502
68.1410151815626
68.4321525880031
68.7664235684402
69.1350566912578
69.528990579058
69.9387880023353
70.3545726660222
70.7659913586352
71.1622047907774
71.5319108105751
71.8634036690474
72.1446776813086
72.3673186535814
72.5334166241065
72.6471808491858
72.7131218370945
72.7359878937607
72.7207051755838
72.6723225654331
72.5959623946046
72.4967777490647
72.3799168366295
72.250494663097
72.1135720764937
71.9741420930772
71.8366912796002
71.7022583613923
71.5702764555886
71.4401778878699
71.3114033354412
71.1834015416461
71.0556291191432
70.9275504383861
70.7986375982673
70.6683704758576
70.5362368521848
70.4017326109695
70.2643620071551
70.1236386698173
69.9801388436093
69.8376057884319
69.7003184256573
69.5724897876295
69.4582762518058
69.3617916891224
69.2871264088753
69.2383708658639
69.2196442021696
69.2351278267978
69.2891043940912
69.3860027308762
69.5304494897057
69.7272644993272
69.9770676648056
70.2732425754926
70.6084269744312
70.9750953554412
71.3654774011575
71.7714913101426
72.1846932576029
72.5962448206757
72.9969006492252
73.3770189417752
73.7265973482975
74.0353367158872
74.2928559040077
74.4942226694662
74.6423562951274
74.7410410810682
74.7943147690912
74.8064163405241
74.7817365328008
74.7247720591845
74.6400843058319
74.5322630753639
74.405895755488
74.2655421219778
74.1157148422128
73.9608278620389
73.8038169876815
73.6457764354637
73.487665805888
73.3304284357523
73.1749915871432
73.0222668716855
72.8731508996091
72.7285261438489
72.5892620102575
72.4562161060724
72.3302357000277
72.2121593689115
72.1028187308128
72.0028886951168
71.9125846085308
71.8320404515074
71.7613963597717
71.700799058171
71.6504023133504
71.610367407104
71.5808636323917
71.5620688141657
71.5541698573234
71.5573633242863
71.5718560449165
71.5978657617089
71.6356388347928
71.6856179251778
71.7483726124729
71.8244911086282
71.9145807517427
72.0192702491353
72.1392120880339
72.2750851311083
72.4275974163233
72.5974891831401
72.7855361499823
72.9925530711707
73.2193976052769
73.4667077656246
73.731043647978
74.0056356945236
74.2834314976652
74.5571658986678
74.8193599348624
75.0623345916086
75.2782404030138
75.459103772076
75.5968905592085
75.683587009157
75.7112974504618
75.672357422059
75.5614805081736
75.384504279428
75.1510358484839
74.8707456685107
74.5532376117002
74.2079463860854
73.8440602190889
73.4704680384634
73.0957297197103
72.7280675734698
72.3753770889357
72.0452549954673
71.7450429189155
71.481647981301
71.2564336114159
71.0654373062573
70.904642192854
70.7701802896924
70.6583020497355
70.5653506538341
70.4877406268127
70.4219404567935
70.3644589845801
70.3118353971698
70.2606327097532
70.2074346553078
70.1488459210102
70.0822390936666
70.0102792192086
69.9378881196597
69.8699569899684
69.8113401493988
69.7668647050316
69.7413468756962
69.7396149542259
69.7665390003022
69.8270675101462
69.926271506165
70.0693967353227
70.2619249690691
70.5096299451497
70.8146842711954
71.1702628286401
71.5681367993882
71.9998358123112
72.4565483829293
72.9290407287179
73.4075959852214
73.881976661069
74.3414137900465
74.7746266042407
75.1698765859754
75.5150593712898
75.7982043285253
76.0157834416946
76.1730743655209
76.276135537013
76.3313486810936
76.3453324275879
76.324864712117
76.2768155891591
76.2080915750669
76.1255921884297
76.0361789836707
75.9466570922754
75.8637690992664
75.793307751194
75.7352927778219
75.6874859839378
75.6476641811205
75.6136195278003
75.5831555085888
75.5540842095392
75.5242248711738
75.4914037062276
75.4534549710646
75.408223278667
75.3535671370492
75.2873646377748
75.2090165466697
75.122463507845
75.0324682115319
74.9437504929659
74.8609860893767
74.7888112693378
74.7318332042039
74.694645990922
74.6818523042667
74.6980907542855
74.7480691523768
74.8366040493996
74.9686283561998
75.1457581088461
75.3634703753603
75.6166117340352
75.8999880250307
76.2083164300616
76.5361842536294
76.8780145818137
77.2280392256388
77.5802795517343
77.9285359591751
78.2663868708762
78.58719835236
78.885090201779
79.1572084150436
79.4013378854909
79.6152762429821
79.7968487078488
79.9439239558665
80.0544308501158
80.1263758633118
80.1578609826123
80.1471018592113
80.0924459383712
79.9923905574225
79.8469410748143
79.6606900735659
79.4391978923298
79.188013687308
78.9126320223332
78.6184573832583
78.3107765579696
77.9947386448036
77.6753423212139
77.3574299189348
77.0456878077992
76.744652583063
76.4585795490983
76.1887732603903
75.933920508948
75.6926588346097
75.4636704187654
75.2456775739834
75.0374387704494
74.8377451577766
74.6454175464314
74.4593038178292
74.2782767362156
74.1012321388232
73.9270874835777
73.7549430553796
73.5871386949544
73.4289301201173
73.2855973829648
73.1623510208608
73.0643575264069
72.9967719945959
72.964778006778
72.9736350282497
73.0287338605454
73.1356610090218
73.3002732140667
73.5287838695334
73.8274714646836
74.1940626505149
74.6173179995233
75.0853157628973
75.5856640275756
76.1053591725064
76.6306833430756
77.1471465154234
77.6394800756034
78.0916895168142
78.4871736504892
78.8089164071352
79.0399157154017
79.1723725376724
79.2126937434295
79.1691168396439
79.0504120815673
78.8657082231024
78.6243332322982
78.3356738491129
78.0090564833714
77.6536507042718
77.2783955198798
76.891947818205
76.5026517490255
76.1180395349377
75.741551054007
75.3747163127035
75.0189961554293
74.6757981070497
74.3464818136594
74.0323648607853
73.7347289386069
73.4548263336124
73.1938867360814
72.9531243629108
72.7337454056453
72.5369558242397
72.3638800399937
72.2138830445666
72.0847484233556
71.9742662115832
71.8802826994047
71.8006900128176
71.7334171136816
71.6764221257653
71.6276859148182
71.5852068680808
71.5469968327561
71.5110781840572
71.4754820017202
71.4382481258842
71.3986689844386
71.3598018145683
71.3253988679982
71.2991990417559
71.2849345394749
71.2863414378035
71.3071741794266
71.3512240695334
71.4223419259635
71.5244651262222
71.6616494095227
71.8381059327551
72.0582442512151
72.3255935861224
72.6350105615751
72.9770501636878
73.3419660213462
73.7196548410215
74.0996016034457
74.4708527126517
74.8220202337898
75.1413205525896
75.4166505723927
75.6357038592566
75.7861278910894
75.8557290748565
75.8380182117777
75.7417450697359
75.5785954221688
75.3604578403141
75.0992366755492
74.8067020113344
74.4943776935578
74.1734668455934
73.8548130827535
73.5488949474512
73.2658508470775
73.0155319324022
72.8075808459013
72.6492508179206
72.5368490562811
72.4635995537303
72.4229197554679
72.4083564000437
72.4135333205458
72.4321110611468
72.4577578347831
72.4841316059435
72.5048732556737
72.5136108769371
72.5039752578112
72.4696265370879
72.4050262393208
72.3126445034979
72.1998013465597
72.0738399250399
71.9420238158372
71.8115183574714
71.6893865447053
71.5825989685619
71.4980573207302
71.4426311209667
71.4232075726596
71.4467548037002
71.5203992120155
71.6514554184847
71.8418809150188
72.0836915730815
72.3678482314595
72.6851779749092
73.0262728924014
73.3814110886794
73.7405013611772
74.0930537312602
74.4281785456035
74.7346170908545
75.0008065304657
75.214981411956
75.3657533119825
75.4506531854715
75.4756526122623
75.4473492579176
75.3725664306732
75.2582634144402
75.1114570677728
74.9391558610609
74.7483069758077
74.5457566309138
74.3382234432634
74.1322843772253
73.9343726873616
73.7506233459328
73.5838060525258
73.4336715997697
73.2998836287807
73.1821304571447
73.0801238888183
72.9935981220719
72.922308748049
72.866031833242
72.8245630798457
72.7977170585392
72.7853265087837
72.7872417022078
72.8033202821472
72.8329017514737
72.8745322069778
72.9266970866833
72.9878830816034
73.0565740317733
73.1312474466708
73.2103716487531
73.2924035444101
73.3757870311313
73.4589520531047
73.5403143197768
73.6182757030637
73.6912508309527
73.7594342259534
73.8259640249476
73.8942749635772
73.9678274914238
74.0501111249787
74.1446511018014
74.2550184272014
74.3848434386383
74.5378330615664
74.7177919950534
74.9286481482218
75.1744827522788
75.4591981744527
75.7804514437218
76.1303702596303
76.5006689978613
76.8827621320926
77.2677235390164
77.646265085205
78.008736607962
78.3451495481206
78.6452264088389
78.8984778584299
79.0943086300867
79.2223993738864
79.2804078348795
79.2755096680459
79.2157258360817
79.1092805121196
78.9644966903466
78.7897081127408
78.5931885670408
78.3830989196745
78.1674517064077
77.9540927209774
77.7506988153726
77.564790607897
77.4016226416492
77.2593226362448
77.1346185967833
77.024305723712
76.9252331158675
76.8342932449632
76.7484140698126
76.6645536907987
76.57969746795
76.4908575401069
76.3950746885389
76.2894224863975
76.1710969994224
76.0395632258909
75.8967102894932
75.7445316516386
75.5849982171159
75.4200542001171
75.2516140391092
75.0815603274416
74.911742721337
74.7439777838951
74.5800497227889
74.4217119802927
74.270689636977
74.1286989541348
73.9977598762471
73.8801701769467
73.7782212754025
73.6941961968291
73.6303802038656
73.5890728510361
73.5726015257144
73.5833365732769
73.6237081433764
73.6962249394913
73.8034951063824
73.9482495515507
74.1330245721257
74.3545016244023
74.6042376755797
74.8734653460918
75.1531948016349
75.4341751262556
75.7068773934886
75.9615011441351
76.1880060562848
76.376170408432
76.5156774569129
76.5962300504377
76.6076927732204
76.5435401128362
76.4096200433035
76.2148012778087
75.9681015242302
75.6785586292157
75.3551226830927
75.0065699600151
74.6414386235288
74.2679854042154
73.8941619553568
73.5276093011746
73.1756686869698
72.8454071938764
72.5428050561597
72.2682449720461
72.0200076171025
71.7964622549837
71.5960613095027
71.4173305829655
71.2588604444713
71.1192978776964
70.9973392941046
70.8917240315828
70.8012284705938
70.7246607103748
70.6608557567449
70.608677254831
70.5677415636128
70.5391021274095
70.5239846050682
70.5236271529624
70.5392854119431
70.5722379909154
70.6237924849275
70.6952920748526
70.7881227662141
70.9037213366571
71.0435840753172
71.2092764132233
71.4024435623364
71.6243083139105
71.8725082384455
72.143064646513
72.4319083879823
72.7348612739104
73.0476155093468
73.3657177141816
73.6845579277711
73.9993640687711
74.3052023730191
74.5969843546411
74.8694808234166
75.1173434629381
75.3359916503316
75.5239478489671
75.6805036673558
75.8050226563383
75.8969447972134
75.9557905827785
75.9811646407293
75.9727588531809
75.9303549312872
75.8538264099815
75.7431400346206
75.5983565186843
75.4196625871687
75.2095630304957
74.974220995238
74.7200481304675
74.4533271126012
74.1801869411843
73.9065889087669
73.6383225973041
73.3810112005426
73.1401254854155
72.9210057768905
72.7288914722038
72.568957755887
72.4463589260223
72.363993570442
72.3172804422042
72.3002064036932
72.3068530542363
72.3313530635727
72.3678563898168
72.4105060754776
72.4534235135897
72.4907032086535
72.5164171251895
72.5246287198428
72.5094166900171
72.4649083424298
72.3864324377595
72.277304701652
72.1442746134399
71.9940659839341
71.8333257697452
71.6685991957587
71.5063171712171
71.3527955166956
71.2142454723254
71.096794997845
71.0065204954208
70.9494887812461
70.9318093993299
70.9596463629913
71.0346843385806
71.1504693670551
71.2997522027915
71.4752675623681
71.6696717449219
71.8754948179959
72.0851076797575
72.2907046658482
72.4843025996819
72.6577572769474
72.8027983126794
72.9110830462878
72.9742741912394
72.9873242193571
72.9541950922243
72.8805278355918
72.7720668170514
72.6346011710927
72.4739149850368
72.295746676072
72.1057576917748
71.9095104293482
71.712455094876
71.5199251121409
71.3371406375258
71.1692197383443
71.0209295348622
70.8933665422739
70.7850456078476
70.6944733047881
70.6201982647376
70.5608042998844
70.5149042277033
70.4811343438471
70.458149499015
70.4446187445571
70.4392215192978
70.4406443567284
70.4475780974201
70.4587155963303
70.4734004443198
70.49357987063
70.5218590507477
70.5608560836591
70.6132089773722
70.6815846409817
70.7686899558566
70.8772850307572
71.0101987855988
71.1703470571972
71.3607534791161
71.584573458635
71.845121659491
72.145358729765
72.4818108355775
72.8465164830885
73.2311656106885
73.6271166004222
74.0253540216548
74.4164668267425
74.7906494441299
75.1377283720552
75.4472167716904
75.7083991404645
75.9104473695968
76.0425684227625
76.0976260271647
76.0814267993139
76.0030388796609
75.8717923036078
75.6971396399411
75.4885384053676
75.2553568566094
75.0068036727636
74.7518811915392
74.4993612672571
74.2577824702671
74.0354672282407
73.8405575368837
73.6789810844724
73.5490593041175
73.4474970040186
73.3711032043198
73.3167681538947
73.2814434710188
73.2621251500949
73.2558392441325
73.2596300884046
73.2705509761464
73.2856572333608
73.3020016674118
73.3166323835083
73.3275651212792
73.3375076328204
73.3505859216926
73.3709327307964
73.4026931213598
73.4500350329926
73.5171646126723
73.6083464505277
73.7279289465682
73.880375145284
74.070299517865
74.3025113499475
74.5820649814659
74.9111876764324
75.2818532562978
75.6836425994085
76.1057534846267
76.5369194043962
76.9653587327426
77.3787579302672
77.7642929784585
78.1086932861946
78.3983517979802
78.619483858114
78.7583354791138
78.8040887440565
78.7619477213041
78.6432831725555
78.4598307216974
78.2234762298919
77.9460822037515
77.6393500948641
77.3147191267739
76.9833007969005
76.6558471843004
76.3427506306539
76.0540722071439
75.7995749577467
75.5851930895931
75.4091738983316
75.2689360282875
75.1620367008873
75.0861500102201
75.0390474982171
75.0185807116525
75.0226654969844
75.0492678346153
75.0963910530366
75.1620642967764
75.2443321510721
75.3413012096627
75.4525759001737
75.5794038086862
75.7231485167514
75.8852142581918
76.0670523196983
76.2701681454338
76.4961292214182
76.7465738291974
77.0232207742995
77.3278802137051
77.6624657285502
78.02900245635
78.4274755610296
78.8523785503114
79.2971277016323
79.7548538885877
80.2183690204477
80.6801441680056
81.1323009151638
81.5666176294763
81.9745523901957
82.3472842231209
82.6757740414703
82.951248253714
83.1719526120107
83.3423363787319
83.4673198138736
83.552048628287
83.6018405090879
83.6221369235552
83.6184610471661
83.5963824278065
83.5614887902771
83.519365210544
83.475580392692
83.433915912828
83.3922860593763
83.3474024529401
83.2959913820955
83.2347976253232
83.1605908066711
83.0701742298918
82.9603961112584
82.8281630992701
82.6704559307784
82.4843470287027
82.2671173626419
82.0198115350946
81.7481380726793
81.4580138897514
81.155228860428
80.845425376629
80.5340862541485
80.2265304647858
79.9279161326878
79.6432502372994
79.3774045077688
79.1351370688473
78.9211047918863
78.7381388581068
78.5856524187595
78.4627413088205
78.3685770852468
78.3024013485782
78.2635206037026
78.2513015999118
78.2651670975682
78.3045920149026
78.3690999138187
78.4582597882139
78.5716831158769
78.7087880541452
78.8681737222297
79.048258400379
79.2474624281304
79.464199700675
79.6968697679194
79.9438505186941
80.2034914457495
80.4741074994938
80.7539735499393
81.0413194870448
81.334324489542
81.6308580270734
81.9281785319861
82.2233933930381
82.5135269785646
82.7955225003091
83.0662461631877
83.3224937460675
83.5609997434433
83.7784491740681
83.9714921295381
84.1367610931613
84.2713259136338
84.3753815994193
84.4505362862045
84.4984780780609
84.5209582912763
84.5197804175373
84.4967895968965
84.4538627016784
84.392899115379
84.3158122738702
84.2245220202578
84.1209433349014
84.0068176835313
83.8836640940961
83.7529771708592
83.6162382469079
83.4749130763367
83.3304500611266
83.1842789996518
83.0378103416202
82.892434932912
82.7495242331721
82.6104309891019
82.4763585345151
82.3474639532962
82.2234179700469
82.1038937692141
81.9885695247958
81.8771280566095
81.7692565148538
81.6646460918416
81.5629917598906
81.4639920344481
81.3673487616114
81.2727669292777
81.1804254150081
81.0925661091179
81.0119781385929
80.9414313787652
80.8836824341449
80.8414824971006
80.8175870697562
80.8147675755527
80.8358249176705
80.8836050781595
80.9610168948696
81.0710486992491
81.2142444574735
81.3841588889171
81.5730801407968
81.7731842722933
81.9765052834381
82.1749201511432
82.3601496078507
82.5237754631652
82.6572751988482
82.7520743509566
82.7996168210192
82.7918240558902
82.7282201410786
82.615353357609
82.4601474972824
82.2695713837085
82.0505747921096
81.8100361737459
81.5547223173071
81.2912597568355
81.0261174993024
80.7656004927773
80.5158531826393
80.2825699663205
80.0667097859159
79.8656338800296
79.6766753149658
79.4972273240095
79.3247360552041
79.1566950849742
78.9906416049237
78.8241542023652
78.654852163748
78.4803962345376
78.2984907696178
78.1069269227773
77.9063161647181
77.7017811067339
77.4987580972678
77.3025712469853
77.1184388615115
76.9514869101252
76.8067692060184
76.6892940709996
76.6040573894057
76.5560821217393
76.5504645495514
76.5924277633991
76.6863619665871
76.8288506088866
77.0127969194622
77.2310899231921
77.4765544929638
77.7418918775329
78.0196331540597
78.302106116235
78.5814164374607
78.8494441735354
79.097856777181
79.3181397701558
79.5022061521177
79.6479769892711
79.757166525039
79.8316690287268
79.8734889527535
79.8847236740497
79.8675467132161
79.8241916546197
79.7569369585078
79.6680918233583
79.5599832241564
79.4349442210383
79.2952460494296
79.1422681057531
78.9766991338161
78.7992124524985
78.6104825334873
78.4111831880285
78.2019858670928
77.9835580780458
77.7565619197935
77.5216527373272
77.2794778956343
77.0306756720653
76.7758744570196
76.5159930426094
76.2528359119835
75.9883308879021
75.7243542269835
75.4627308560721
75.2052355049917
74.9535946717959
74.7094893605812
74.4745585373149
74.2504032557645
74.0385914133137
73.8406631050959
73.6581365072871
73.4922843707819
73.3436144599014
73.2124901068465
73.0992918922612
73.0044197556215
72.9282952141565
72.8713637059424
72.8340970744757
72.8169962139174
72.820593896343
72.845457804782
72.8921937986184
72.9614494411259
73.0536027829912
73.1674004919233
73.301056050598
73.4527888834903
73.6208150774064
73.8033386044751
73.9985433730274
74.2045861013551
74.4195900251944
74.6416394641219
74.8687752848923
75.0989913110175
75.3302309973829
75.5600878892943
75.7853379138838
76.0025634087193
76.2082740375235
76.3989151447832
76.5708795130018
76.7205226285827
76.8441815100889
76.938197085664
76.9989400250791
77.0228398372824
77.0064169385082
76.9467572842731
76.845838265346
76.7086328434857
76.5401994224579
76.3455971044142
76.1298489611892
75.8979120943315
75.6546544627915
75.4048383136876
75.1531099465747
74.9039954736362
74.6619022045023
74.4311252815871
74.2154669887124
74.0155899475733
73.8307181484772
73.660097615978
73.503002232272
73.358731124076
73.2266062532007
73.1059701931428
72.9961840761053
72.8966256967086
72.8066877603007
72.7257762652396
72.6533090098348
72.5887725915556
72.5326785026223
72.4864024985013
72.4513477841995
72.4289216125426
72.4205399523362
72.4276327300972
72.4516496724073
72.4940667853399
72.5563935181163
72.6401806703459
72.7470291161747
72.8785994347274
73.0365256896519
73.2188735626237
73.4190292825359
73.6299553008162
73.8444627384107
74.055196193075
74.2546327986477
74.4350963971416
74.5887876365322
74.7078306230561
74.7843364260617
74.8104832512111
74.7786124686723
74.6817564875422
74.5205833334283
74.302208474453
74.0340718803915
73.72363872434
73.3783115526598
73.0053577202622
72.6118522080641
72.2046354113765
71.7902850945243
71.3751014433804
70.9651040020537
70.5660392370161
70.1833975142506
69.8217060580078
69.4810868738572
69.1601580732256
68.8576052971155
68.5721770182243
68.302678380471
68.0479656596496
67.8069412816497
67.578549343224
67.3617715876211
67.1556237937349
66.9591525428739
66.7714323319717
66.5915630061231
66.4187063991024
66.2532631873362
66.0970570761391
65.9519641171707
65.8198356749372
65.7025055140432
65.6017978620296
65.5195364544075
65.4575545887742
65.4177062376162
65.4018782949048
65.412004060385
65.4500780982438
65.5181726445074
65.6184557812541
65.7526110145486
65.918161126722
66.1108026592933
66.3261911169012
66.5599138931506
66.8074612863799
67.064203110339
67.3253712057727
67.5860482825312
67.8411636135361
68.0854961568025
68.3136856935814
68.5202525327232
68.6996262368414
68.8469221532751
68.9620270312517
69.0468136757419
69.1032642843873
69.133448562178
69.1395071484532
69.1236359171085
69.088071343887
69.0350770976467
68.9669319766266
68.8859192770411
68.794317650623
68.6943934806273
68.5883947826981
68.478446753216
68.3660093734172
68.2522718452173
68.1384074360765
68.0255739333378
67.9149138608422
67.8075550804338
67.7046117653827
67.6071857339432
67.516368132929
67.433241463322
67.3588819425022
67.2943622006853
67.2407543125899
67.1991554491395
67.1710573324424
67.1582912103105
67.1627153819679
67.1862137302861
67.2307058930756
67.2981586663675
67.3905987554218
67.5101270205497
67.6589344014983
67.8393197472942
68.0537098295874
68.3046818785946
68.5949890541743
68.9272719121023
69.2994723352451
69.7056536955978
70.1395671648657
70.5946897028284
71.0641713323582
71.5407936493791
72.0169412337737
72.4845879701148
72.9353005270042
73.360261346155
73.7503134173493
74.0960288217336
74.3884069071886
74.6257492278809
74.8114781728968
74.9494148969814
75.0436405338973
75.0984452118607
75.1182798741761
75.1077118957672
75.0713852798609
75.013986018525
74.9402130153522
74.8547548053668
74.7622721710158
74.6669215910364
74.5695253601342
74.4694762987593
74.3661687002714
74.2590045228583
74.1473939437148
74.0307560015139
73.9085193229567
73.7801229287701
73.645017114056
73.5026643974042
73.3525405326564
73.1941355766754
73.0272893000216
72.8554409095025
72.6841494779939
72.5189020822583
72.365087814598
72.2280113544064
72.112914233301
72.02500357651
71.9694882579932
71.9516226056857
71.9767580386314
72.0504033155518
72.1782944350245
72.3663081807691
72.6143985348622
72.9146579993885
73.2586045435546
73.6375828678606
74.0426640116917
74.4645640656909
74.8935835209104
75.3195695694913
75.731904258497
76.1195217404917
76.4709578977392
76.7744352703762
77.0198440721615
77.2069881420352
77.3392370843453
77.4202636547848
77.4539897826972
77.4445358531047
77.3961723238199
77.3132746136489
77.2002820059594
77.0616611225924
76.901874344747
76.725353396586
76.5364493976841
76.3381497642588
76.1316020863674
75.9178062861064
75.6977466315995
75.4723901731746
75.2426854498282
75.0095614561017
74.7739268583742
74.5366694487438
74.2986558241207
74.0607312778626
73.8237198912171
73.5884268571298
73.3557501031444
73.1267345029062
72.9024129142819
72.6837932711514
72.4718602564635
72.267577219289
72.071888322009
71.8857209062463
71.7099880687995
71.5455914416547
71.3934241731338
71.254374110387
71.1293271867657
71.0191219087775
70.9242876495244
70.8452418997656
70.7824179192478
70.7362671416487
70.7072613831574
70.6958951826472
70.7026882902721
70.7281883232799
70.7729736100566
70.8376562459456
70.9228853872589
71.0293508131883
71.1577475493891
71.3066223990457
71.4712060127157
71.6463865735451
71.8269623095172
72.0076292111458
72.1829763415834
72.3474891382359
72.4955611128268
72.621514312298
72.7196288014951
72.7841812670145
72.8094926188535
72.7899911965878
72.7230777399537
72.6134197453038
72.4668865927197
72.2893818783838
72.0867896372442
71.8649302213447
71.629525936952
71.3861762804352
71.1403424178598
70.8973404248522
70.6623427370528
70.4403872513785
70.2363935577796
70.055060917362
69.8976956891487
69.7620252322231
69.6456717640977
69.5463213939043
69.4617121681811
69.3896238098108
69.3278690346219
69.2742863567565
69.2267343156556
69.1830870749287
69.1412313568506
69.0990646860036
69.054494921868
69.0056259905783
68.953792775201
68.9030534215978
68.8575291941219
68.8213211539241
68.7985188565895
68.7932139032962
68.8095183685827
68.851588207965
68.9236518543731
69.0300443460205
69.1752474938624
69.3639368003485
69.601036091586
69.8907334433059
70.2292536579225
70.6088911554144
71.0217062646254
71.4594559735454
71.9135182070419
72.3748341139134
72.8338707565866
73.2806071574851
73.7045470090426
74.0947614364317
74.4399649419982
74.7286269876665
74.9514026365711
75.1101318334802
75.2103813222637
75.2580779246436
75.2594191331504
75.2207912481528
75.1486962390315
75.0496886716167
74.9303235716903
74.7971156823303
74.65651023583
74.514865106618
74.3784439995721
74.2518946894759
74.1342669640033
74.0233714360047
73.9170487541152
73.8131662265875
73.7096157146579
73.60431275497
73.4951968744129
73.380233061622
73.2574143575129
73.1247655227303
72.9803477329933
72.8222642442086
72.6494121179736
72.4654989904779
72.2760523682225
72.0864963602639
71.9021433849503
71.7281986098712
71.569771953672
71.4318972872365
71.3195585687562
71.2377227841094
71.191379739495
71.18558896856
71.225534275492
71.3164637804343
71.458291018524
71.6433426034655
71.8633775194464
72.1100620290655
72.374895271457
72.6491536812027
72.9238551696413
73.1897444852256
73.4373014494643
73.6567738208618
73.8382363372816
73.971676994992
74.0472858389523
74.0619817939923
74.0213457814553
73.9317441251384
73.7996943927693
73.6317861785897
73.4346128116085
73.2147147391571
72.9785348759604
72.7323858347361
72.4824286713564
72.234662585468
71.9949249112104
71.7689006629478
71.5606543520189
71.3687875700022
71.190730762328
71.0239799040861
70.8660875376417
70.7146556658843
70.5673303908576
70.4217982063596
70.275783866648
70.1270497621287
69.9733967372587
69.8126662862091
69.6427440584438
69.4615733942069
69.2686297234424
69.0665246875731
68.8582148417824
68.6465929073396
68.4344843018531
68.2246460912833
68.019768219538
67.8224768734254
67.6353398500508
67.4608738095301
67.3015533174388
67.1598216081258
67.0381030315476
66.9388171824802
66.8641080454754
66.8144781752138
66.7898772288509
66.7903101376413
66.8158380856233
66.8665789675179
66.9427081690047
67.0444596782375
67.1721275410607
67.3260676762107
67.5067000708991
67.7145113816511
67.9500579702088
68.2139694097928
68.506406340399
68.8236760987871
69.1602798695396
69.5105180544031
69.8684663043646
70.22795400341
70.5825528768988
70.9255768843961
71.2500946229259
71.54895544012
71.8148303198614
72.0402683393324
72.2177690935723
72.3401840718975
72.4067657482239
72.4227913615232
72.3939912118725
72.3262587540031
72.2255828409772
72.0979889042698
71.9494898181425
71.7860468270627
71.6135406095669
71.4377523168541
71.2643542611276
71.0989098352256
70.9468822170901
70.8125086655942
70.6954264804226
70.5941655671806
70.5072937129618
70.4334105412011
70.3711421313447
70.3191362572243
70.2760582068061
70.2405871535238
70.2114130558439
70.1872340671597
70.1667544426514
70.1486829334435
70.1317547636111
70.116326279775
70.1054050812483
70.1022420252153
70.1100908069008
70.132216676342
70.171908217502
70.232492267203
70.3173521043335
70.4299491066029
70.5738481545636
70.7527471632725
70.9705112444884
71.2312121517259
71.5379293327245
71.8859107812804
72.2671067081558
72.6731918508409
73.0954994123412
73.5249653700075
73.9520931098103
74.366941026194
74.7591360429171
75.1179160650925
75.4322041048366
75.690716172165
75.8821218997172
75.9997075174688
76.0475150402583
76.0314778702324
75.9578618953386
75.8331659784427
75.6640304501847
75.4571554592823
75.2192304420053
74.9568754300953
74.6765944464998
74.3847408546402
74.0874942351444
73.7908445694558
73.4997023932047
73.2167803005357
72.9444232990284
72.6849104709358
72.4404631707713
72.2132544514394
72.0054196587762
71.8190681608701
71.6562962073041
71.5192009446219
71.4098956481915
71.3305262677604
71.2832894251302
71.2702384340992
71.2914500064824
71.3459384883605
71.4327943236253
71.5511881154603
71.7003626383303
71.879625495444
72.0883423262299
72.3259304794984
72.5918530773767
72.8856134030798
73.2067495523581
73.5548292942345
73.929151215842
74.3258163612712
74.7388036046229
75.1618020596086
75.5882117708436
76.011127666878
76.4233354531689
76.8173209088983
77.1852940606374
77.5192295964025
77.8109246345129
78.0520745552901
78.2345053807402
78.3553493574424
78.4186516271269
78.4291874613091
78.3919644294381
78.3121582092112
78.1950534418208
78.0459906440882
77.8703198918873
77.6733617151962
77.460375404539
77.2365347279097
77.0069108996395
76.7758221346212
76.5444131258305
76.3128813377484
76.0814195225748
75.8502159426659
75.6194544115362
75.3893143437407
75.1599708130766
74.9315946185636
74.7043523576814
74.4784065063586
74.2539155052341
74.0310338517288
73.810051749215
73.5918618295899
73.3775019931861
73.1679861936214
72.9643058338969
72.76743141829
72.5783144413213
72.3978895019481
72.2270766335004
72.0667838424112
71.9179098515161
71.7813470465772
71.657984627762
71.548735484326
71.4549248548942
71.3782283734128
71.3203404513905
71.2829718952909
71.2678594983481
71.2767765790897
71.3115445573474
71.3740456830659
71.4662370613921
71.5901661501856
71.7479879442744
71.9419841057862
72.1745579172475
72.4450609999475
72.746619572153
73.0714731046239
73.4116213697703
73.7587782316704
74.1043427098741
74.4393890387328
74.7546776632362
75.0406891391679
75.2876827032766
75.4857808132436
75.6250802013707
75.6962712948738
75.6987256641301
75.6393191922063
75.5254371043611
75.3646352670013
75.1645408291511
74.9327673512615
74.6768453440639
74.4041684974605
74.1219553656963
73.8372258973323
73.5567919540635
73.2872608417283
73.0349432166919
72.8026234855887
72.5890978315684
72.3929894529684
72.2129722898194
72.0477650462694
71.8961258243635
71.7568473146171
71.6287524969878
71.510690812898
71.4015347750307
71.3001769868526
71.2055275483034
71.1165118279276
71.0320388875649
70.9508868875474
70.8718031393692
70.7935465224942
70.7148869554533
70.6346052909458
70.5514936336774
70.4643560707422
70.3720098036512
70.2732866698385
70.1670350396688
70.052122072668
69.9274363139429
69.7918980291387
69.6463024907622
69.4956934976886
69.3456295688597
69.2015746931805
69.0689039647976
68.9529175803087
68.8588628950022
68.7919643539482
68.7574612819769
68.7606537343679
68.8069568807843
68.9019647261268
69.0515243763481
69.2617402290966
69.5333388998223
69.8577503885391
70.2254173809723
70.626525561702
71.050887039645
71.4878495734049
71.9262342839171
72.3543055672541
72.7597776087621
73.1298621558586
73.4513619167364
73.7108129995282
73.894779708199
73.9971379470286
74.0239353017027
73.9828133629216
73.8817827278329
73.7290859315415
73.5330752880062
73.3021080755905
73.0444604736885
72.7682607684751
72.4814416307215
72.1917107400797
71.9065386862731
71.6331629056333
71.3776470060029
71.1408394807988
70.9219262109135
70.7201329634419
70.5347229526594
70.364993615643
70.2102736437269
70.0699202445612
69.9433166124135
69.8298695868858
69.7290074824493
69.6401780731715
69.562846718764
69.4964943515926
69.4401922374743
69.3917455967989
69.348737051352
69.308764564412
69.2694384896335
69.2283802841034
69.1832228632662
69.1316125768255
69.0712127814416
68.999708978193
68.9148154705244
68.8142834820034
68.6959106530119
68.5575528534214
68.3987769866247
68.2241404440788
68.0390649830991
67.8488721588258
67.6587719588401
67.473859709575
67.2991208082702
67.1394428437816
66.9996347263847
66.8844525461512
66.7986320181655
66.7469275493692
66.7341581772174
66.7652608887418
66.8446864018045
66.9706597874749
67.1379327147532
67.3412717172885
67.5754351623793
67.8351185214833
68.1149074504034
68.4092387351757
68.7123694531973
69.0183549460089
69.3210363965899
69.6140389421629
69.8907813222066
70.1444980885675
70.3697688248564
70.5665770450049
70.7362365101409
70.8801586567847
70.9998415435863
71.0968589056768
71.1728494745797
71.2295067059185
71.2685690401813
71.2918108042224
71.3010338435634
71.2980599584403
71.2847242003643
71.2628275964564
71.2334514294228
71.1970656177199
71.1541230831128
71.1050784263146
71.050387131917
70.9905048302666
70.9258866174174
70.8569864339124
70.7842565028042
70.7081468270052
70.6291047457776
70.5475745499233
70.4639971550152
70.3788668635681
70.2929481784595
70.207080869906
70.1220965767635
70.038818924619
69.958063854462
69.8806401402572
69.8073500911121
69.7389904343483
69.6763533765669
69.6202278407464
69.5714008785193
69.5306592580465
69.4987914336499
69.4767373170305
69.4658510251233
69.4675649187495
69.4833243734239
69.5145933248366
69.5628604809101
69.6296462452644
69.716510409184
69.8250606832819
69.9569621563231
70.113947787515
70.2978300605232
70.5105139531689
70.7538063344968
71.0255086355114
71.3195826900681
71.6296820800764
71.9492549467218
72.2715178718849
72.5894417266437
72.8957506513842
73.1829354127931
73.4432823507854
73.6689189641386
73.8518768700829
73.9841723983475
74.0583382685734
74.0746698003706
74.0401563021322
73.9621942730736
73.8482901301795
73.70598060055
73.542768119412
73.3660716793852
73.1831930946571
73.0012982946167
72.827413045118
72.6684324055161
72.5311432562984
72.4221976884099
72.3439087673214
72.2915815192611
72.2599564963917
72.2438346192721
72.2380511440062
72.2374571855347
72.236908645881
72.2312624851202
72.215380317213
72.1841393132689
72.1324503515487
72.0552832672019
71.9476989269778
71.8063361179037
71.6343108355037
71.4364975472054
71.2177330138713
70.9827859388228
70.7363333890081
70.4829437680595
70.2270660597938
69.9730249885924
69.725021705991
69.487139607086
69.2633549021656
69.0575516145992
68.8735407145517
68.7140909060903
68.5783625875491
68.464758541514
68.3717446080337
68.2978403683403
68.2416107315593
68.2016583318625
68.1766166593282
68.1651438614295
68.1659171639397
68.1776278703688
68.1989769080642
68.2286708969844
68.2654187240074
68.3085063040128
68.3597614385698
68.4217269935515
68.4969727829171
68.5881045571443
68.6977750755019
68.8286973625256
68.9836603089454
69.1655468268479
69.3773548289847
69.6222213749572
69.9034504153253
70.2245446721767
70.5891590115514
70.9965246011679
71.4387812492144
71.9071456626193
72.3924002365035
72.8848283898843
73.3741731030884
73.8496222579244
74.2998248029107
74.7129418526084
75.076736489716
75.3787051800941
75.6062522621052
75.747882411366
75.8042815578347
75.7845465737196
75.6983930166956
75.5558337583931
75.3670188782056
75.1421006825184
74.8911257967085
74.6239549326107
74.3502098887321
74.0792466117704
73.8201527275166
73.5817678120606
73.3722885030882
73.1931137902152
73.0404899400674
72.9106454784415
72.7999064637607
72.7046754682624
72.6214144894046
72.5466315522539
72.4768708281319
72.4087061430988
72.3387377833726
72.2635925244864
72.1799268175751
72.0844634068506
71.9767092063792
71.861059278582
71.7423625129219
71.6254066669112
71.5149177297399
71.4155655732082
71.3319756940551
71.2687469006353
71.2304748779367
71.2217816774701
71.2473513233014
71.3119719049851
71.4205847472836
71.5771914452445
71.7786007649528
72.0187505754269
72.2915353899433
72.5907497416572
72.9100341103081
73.2428309112646
73.582351155391
73.9215526917747
74.2531311754477
74.5695250452549
74.8629358352
75.1253654153285
75.3504451611377
75.5376869482457
75.6879487758731
75.8022204222816
75.8816129740762
75.9273477632631
75.9407448926742
75.9232115256515
75.8762301077347
75.8013466770244
75.7001594064711
75.5743075061512
75.4254751142058
75.2561719233273
75.0701103671253
74.8710588323148
74.6627259755172
74.4487503153992
74.2326935537908
74.0180374528353
73.808184077222
73.6064592068551
73.4161187344915
73.2403578835383
73.0823231121225
72.945118761145
72.8298757429691
72.7332375272268
72.6512801440328
72.5801352848026
72.5159766961858
72.4550107472439
72.3934710468028
72.3276170211085
72.2537363771724
72.1681513752584
72.0672288154695
71.9473936091078
71.8051457564533
71.6380805015523
71.4509529708944
71.2515032380432
71.0473352385924
70.8458874050992
70.6544316853239
70.4800877017659
70.3298512232745
70.2106363086476
70.1293307839082
70.0928651240097
70.1082953284539
70.1829010212531
70.3242887786138
70.5356890928406
70.8084608998648
71.1320884277332
71.4958899618617
71.8888720542979
72.2996141179862
72.7161855804259
73.1260991429356
73.5163046611899
73.8732286335134
74.1828641304409
74.4309150880938
74.6030767737264
74.6924436310589
74.7054740873199
74.6504646964454
74.5360663567802
74.3711383246719
74.1646201291151
73.9254237635302
73.6623473849266
73.3840107897585
73.0988121901915
72.8149052926113
72.5401953738571
72.2823529411765
72.0470468779822
71.8326821121505
71.63595563867
71.4536601354019
71.2826694470034
71.1199271121436
70.9624377311664
70.8072610098552
70.6515083424721
70.4923418148974
70.3269755173914
70.1526790570225
69.9667831528554
69.7667121661924
69.5529721508082
69.3318751114
69.1102474536791
68.8947451051565
68.6918601722792
68.507939897732
68.3492171980546
68.2218522626733
68.1319849782799
68.085798304241
68.0895931688145
68.1498759939481
68.2734606099731
68.4675568128054
68.7347776344366
69.0672177715121
69.4556060491026
69.8905025387928
70.3621456895909
70.8603225840237
71.3742640773247
71.8925680724744
72.4031554361366
72.893263992695
73.3494865283409
73.7578586476125
74.1040498233329
74.3794085335169
74.5869528682331
74.7315094706141
74.8183324282675
74.8530161873626
74.8414123173796
74.7895522897686
74.7035779744838
74.5896811018597
74.4540525103558
74.3028416234218
74.1421262845587
73.9778928359368
73.8160261550355
73.6623092642765
73.5224320967254
73.4020090316704
73.3066049023369
73.2417693202943
73.2130793553813
73.2261908571554
73.2868990086275
73.4012090747419
