Value(μV)
1.16193367764512
39.9683077823341
47.1529441975893
31.198318989389
12.3684588037416
3.19981765200757
0.703678419786399
-4.84108534528629
-17.1851841462118
-31.4499411790268
-41.7264556646688
-47.9408448105855
-54.2737997321946
-62.8437329514284
-71.2810442633551
-76.553059554478
-79.266856930579
-82.8636360181516
-89.2408086742483
-96.660546409695
-102.279383656632
-105.601296584439
-108.477100536806
-112.186077688581
-115.78350745597
-117.759997454716
-118.478161250518
-119.998028120209
-123.571981614765
-128.142535113797
-131.681402213314
-133.451143934059
-134.301065939384
-134.955624867097
-134.880985189676
-133.279538865248
-130.703146926835
-128.922219094131
-129.090979182111
-130.552895038033
-131.75606971161
-131.982095342857
-131.674152589713
-131.190130195921
-129.926307190774
-127.110667883819
-123.147929021923
-119.565628260145
-117.477822688751
-116.482456846636
-115.341093422864
-113.461025584339
-111.254508830884
-109.092025842206
-106.493013314931
-102.788632428988
-98.3591034187974
-94.6505158722811
-92.7656885202787
-92.3536278638115
-92.1730359742929
-91.5359164678077
-90.7558099546257
-90.156894346471
-89.1768364831059
-86.9326265136196
-83.5451182341264
-80.3662260476466
-78.6258981621863
-78.1103445008378
-77.4962768472681
-75.8573216691855
-73.4120272853699
-70.6891933322575
-67.4292625909702
-62.843487643236
-56.9323075940184
-51.0298099686725
-46.6831459792055
-44.1601418238635
-42.3973276450877
-40.3607613359989
-38.0332271195365
-35.869604260916
-33.6804961988329
-30.6432668928388
-26.5198408364231
-22.3997324940927
-19.8045473664503
-19.1373340989973
-19.3700647069706
-19.294193586942
-18.6785791104083
-17.9091749527204
-16.7946965819228
-14.3619118265085
-10.083924870515
-4.93360130167624
-0.724703491020312
1.62017061179623
2.80558218917612
4.06668796165187
5.71156993949974
7.13966732294829
8.14015299201788
9.55458461111816
12.269803707339
15.813563407228
18.4728210445402
18.9451635994481
17.5578444119352
15.6379723296893
13.9634929303321
12.2944228602081
10.4238210286048
9.12607539105363
9.56632401757216
11.8845192374482
14.8688404711434
17.2531824444838
19.0422029915991
21.2280900455508
24.3692215245507
27.9444414960999
31.2665960951293
34.5810421932321
38.7180544267917
43.6800158962605
48.1072894976917
50.513315220341
50.8422996223078
50.3949693814604
50.2301268944662
50.1013940554073
49.2437214192299
47.8460587622147
47.1205419605516
47.767361692395
48.8593636082891
48.7490144944386
47.0087186038966
45.0218343399856
44.5006673610483
45.7970830240879
48.0436133807197
50.7241329420716
54.4351050696354
59.7602813648535
65.7835850763472
70.3508325389527
71.9637921949242
71.0604690486689
69.1907542271516
67.2423257350699
64.9576641154546
62.1452770984758
59.7122521693107
58.947687544181
59.9263369602403
61.1935933864
61.2858398487441
60.2457982825233
59.2811720815583
59.1085796208708
59.1692718056479
58.6514512567574
57.8057712466886
57.6699980108562
58.5137468687333
59.1253322388926
58.0339484901005
55.2169049650198
52.1521678829854
50.1799273568802
49.2766205310994
48.7111794292858
48.5118108306943
49.6170271747961
52.4241780464543
55.7149713120998
57.5626271812015
57.2461621494946
55.8184217263123
54.6597007974625
53.9136590119428
52.7727550986769
51.067267864409
49.8582588261581
50.094182632163
51.0749620479965
50.8779649292858
48.4088919141031
44.5835497670921
41.1903550876124
38.9158003500279
37.021459536013
34.9311321550435
33.4597935471497
33.9271506517525
36.2752595075131
38.7376249505579
39.6584010479909
39.2616112308858
39.1983778605639
40.5345888621536
42.7754165300994
45.0427501272231
47.6224374123228
51.6421616087704
57.2305483539781
62.6711341529711
65.8619701207121
66.3599822374825
65.4534346689727
64.234550810102
62.2353164723387
58.3989914800056
52.9990988519582
47.786677450599
43.9829557769338
40.6978789858331
35.9687131078469
29.2557993023562
22.261613605726
17.01100242025
13.6330582415809
10.6606576383956
7.37529264347277
5.03984681342218
5.31787351054404
7.91347791464892
10.5853468777509
11.6604188410374
11.901013886292
13.3530430144221
16.66601795293
20.3150076258097
22.6354631081951
23.898192139023
25.6445393328146
28.1918724028718
29.7299273989515
28.3846318070561
24.6619240122605
21.0529147973539
19.2174925484766
18.3363271803311
16.7003506448912
14.315322440775
12.9165233262282
13.2644327380127
13.4017111307912
10.523518629576
4.35986175807659
-2.30274137249774
-6.89505231900631
-10.1598153804124
-15.1517871547518
-23.4224825362874
-33.3467003503462
-42.7570315476419
-52.2620624774327
-64.5489944660479
-80.4080091895898
-97.122503655537
-112.20389424587
-127.887923768117
-149.321955359134
-176.580454758885
-199.662716400814
-204.574691174757
-186.618040900519
-157.160721508692
-135.001948913548
-129.402817578153
-131.607917146874
-123.394132212748
-92.9474855941448
-40.3397365018854
33.2130301470073
138.774600785144
297.209565288463
518.379255845993
780.588758942203
1032.03118569379
1216.69281088382
1304.21726604944
1299.436736364
1226.23639220282
1103.27400037842
934.069328462669
717.797244442204
466.780463868098
211.58839816326
-11.9876735652552
-182.331378774301
-300.986704676558
-385.063220672283
-451.671799197546
-508.153302526784
-554.145082117842
-589.797002559844
-619.982500377478
-650.238134504044
-679.487202999769
-698.012232435657
-693.83949634632
-662.413890984849
-611.265342057872
-555.938770028272
-510.974837114953
-483.143004477469
-470.972530332865
-468.768642077287
-470.459898601318
-470.676338984074
-464.268681019407
-446.834207824856
-416.837030132972
-377.376059643024
-335.486615590877
-299.025722896019
-273.207617448938
-258.817123870036
-252.560452685995
-248.764428805928
-241.574537808308
-227.165964462796
-205.338575773324
-179.529755224108
-154.798298234024
-134.817687816498
-119.993371607213
-108.100206535375
-96.709387849373
-85.1528415051029
-74.4033265835514
-65.3832750896038
-57.6553464819517
-49.7897058136861
-40.8025987464794
-31.0128567667812
-21.4866734592703
-12.8566335506086
-4.86547963370627
3.01443379115855
10.8096984612507
18.1012170319886
24.7576900315669
31.3242366299585
38.4850335891687
46.2029261491658
53.5899942211169
59.7173133560172
64.4598810533156
68.4485530976779
72.2816475673587
75.999618452315
79.4134412614478
82.7474889300566
86.6486756931519
91.4480050722689
96.5790432783258
100.947002603701
103.904114018344
105.736205679089
107.153529034717
108.478533067824
109.531375346039
110.25615639595
111.147054348102
112.799827765939
115.097407950782
117.102707329458
117.909129212001
117.504156731353
116.658298633905
116.037023139501
115.653461333454
115.273367036775
115.118374443783
115.832709988545
117.678458261728
120.000795253233
121.735190995097
122.428956782179
122.584914272074
122.969481235053
123.795282488052
124.76780415721
125.802643338212
127.339857595032
129.758738610871
132.656626350709
135.012682013341
136.13997985757
136.290629485524
136.196783231909
136.179200889862
135.973042383042
135.427219702694
135.045937158854
135.549627827431
136.982751361719
138.587942277005
139.726885898625
140.743297886856
142.663857122541
146.077488188777
150.573528222162
155.389394393262
160.348560059372
165.809930782121
171.690226563553
176.913842804534
180.164505781938
181.135446485706
180.770437649134
180.204204483031
179.707854732311
178.871732115959
177.62079417065
176.594322132591
176.31750044259
176.261784997722
175.120720107471
172.082305101413
167.563026095443
162.516845944991
157.227135791732
151.108540755861
143.69166600991
135.413182377479
127.118640730971
118.926400196048
109.99876040005
99.6158483040619
88.2342339352924
77.1802575147364
67.341556830368
58.4666017908221
49.8566352380736
41.4327603919409
33.7367959839266
26.9063783380456
20.0754658190324
12.1186531496679
2.87902034468829
-6.6599893453593
-15.4750756067398
-23.4940370261975
-31.3020704719594
-39.0989708472989
-46.3867424183318
-52.8127626768797
-58.9717414211389
-65.9654425877131
-74.1614737504554
-82.7036199492626
-90.4087693224461
-96.9234644883344
-102.72085751721
-108.076520480242
-112.500818755275
-115.446636988242
-117.334392862735
-119.427989459567
-122.574141244996
-126.348167274137
-129.685254981702
-132.186711986838
-134.444834685542
-137.045023745593
-139.649283577215
-141.430831956625
-142.287007907591
-143.158501624741
-144.921247091529
-147.22307994817
-148.78405329949
-148.826196784087
-147.848925787975
-146.826439776144
-145.957000145003
-144.644505554899
-142.711035940414
-141.145703991049
-141.251347636639
-143.162496247616
-145.605618773917
-147.242876571543
-147.946270533838
-148.479380946453
-149.141882184067
-149.238875400709
-148.075767058438
-146.101268488742
-144.581810798399
-144.118097850014
-143.871368230324
-142.491992186826
-139.571701733874
-135.813856427911
-131.837382982258
-127.310643379809
-121.600525622979
-115.019835650505
-108.885914623454
-104.157762913394
-100.352191479129
-96.1614774190263
-91.0211936364646
-85.6525731251819
-80.9573308892295
-76.8074066178642
-72.3876022679665
-67.6440978228524
-63.8457319082503
-62.3594202840748
-63.086401254113
-64.5255750311678
-65.3996588341414
-65.8128123652248
-66.5582357384905
-67.6084997359415
-67.8477094224696
-66.4164524457825
-63.8727598354455
-61.5831977480659
-60.0733245517627
-58.4424325802427
-55.5751905732768
-51.5647914872582
-47.5336603162515
-44.172468816033
-40.9829665605548
-37.2164669619739
-33.1924615697721
-30.1463817618928
-28.7186847073525
-28.0525346532155
-26.7276674440323
-24.3702745820375
-21.8929787682843
-20.1197443435573
-18.6673163271082
-16.5828483205173
-13.8609905842824
-11.7402778376685
-11.2639462183402
-11.9169566093978
-12.1304236534578
-11.0564331361717
-9.37447849219611
-8.15883734923168
-7.36054429342839
-5.92351906489458
-3.35181341918619
-0.586984104152014
1.05651075177789
1.56892852883298
2.3425985334372
4.51615927703542
7.66358066756333
10.465298816396
12.410654071763
14.2696522603762
16.7564915744369
19.2470152326044
20.3635809769843
19.7514904804809
18.7338126748953
18.9362317764783
20.5962376484028
22.6632601162384
24.4403049901433
26.5219818309952
29.7802161865388
33.8046239055448
36.9790658776411
38.2180904377215
38.1500986498633
38.2064725347183
38.8013716385496
38.9680162159458
37.8777934597284
36.1690084347357
35.2765400045767
35.645690195018
36.2473575416785
36.105951450226
35.8370061372417
37.0967595399298
40.5657079537689
45.0553776001113
48.9037507960173
51.8377054567648
54.872258105317
58.4303167531309
61.269630581868
61.7799713411492
60.0534936566766
58.0026594634728
57.2619360955476
57.487510181779
57.1751506898559
55.8522706455947
54.7301338968789
54.9663797437247
55.8859641859108
55.6107791805174
53.3774986100248
50.5419051624139
48.920272094083
48.581322306593
47.9276059952352
45.9091285562794
43.4199522852649
42.0321969603973
41.7840453821098
41.0393565358663
38.7044471031573
35.9009762403146
34.8059241098132
36.0558929935024
38.0396670847171
38.9768081610544
39.0380916616621
39.7137106326569
41.3003084716308
41.943364878251
39.6876975979709
34.9870311761782
30.3824461678961
27.6562496528146
26.0553088471141
23.815909582418
20.9232819538024
19.4188644271251
20.7980975939391
23.9226970298907
26.2779775121346
27.042553034704
28.0056722527031
31.1143585612235
35.8234477070331
39.6993979456384
41.4791472253314
42.5584615966278
44.9467382858092
48.4050436454694
50.6101924714918
50.2114927270948
48.7673786559091
48.928826018324
51.148991340411
53.1934027549648
53.1000593205163
51.6982103636297
51.3463886634638
52.5523733556535
53.0169309234008
50.5115245203467
45.8890421407344
42.2060883728903
40.9680338582193
40.3431451848649
37.7001897022343
33.1562438451698
29.4315683082927
28.1481971258288
27.4862670168065
24.4466201236475
18.8902118366843
14.0164256115993
12.4771033866017
13.0935388230428
12.5035207693511
9.65679188727617
7.24504990495097
8.08200128289417
11.1518814680811
12.6637979091784
10.9358242235867
8.72906554643077
9.77523856219921
13.8580765663586
16.9230332523567
16.2442484112333
13.9293029704787
14.010656909509
16.8097886115151
18.1381748447245
14.7590220152469
9.086409296293
6.59245386695568
8.73533252567796
10.4503348896674
5.83467907758779
-4.90276748148023
-16.1349873392306
-24.3765843273871
-32.868676297259
-47.0450819532327
-66.9073467648884
-86.9452824049373
-104.334781117851
-124.091097849189
-152.334234050406
-184.50090391663
-204.48575581619
-199.519986574418
-175.560650089164
-154.029928245574
-150.53641477697
-158.030827984738
-153.823622128083
-123.116029075851
-71.5705956130428
-10.9454822263694
66.2901155599969
191.676585173232
393.493213324568
661.754498342974
941.213991576446
1161.9362138631
1280.701138938
1297.9296174518
1240.84320690503
1134.80371034326
989.854556273458
808.174481661066
597.09603165209
372.483408642567
152.632550665802
-47.38566578024
-216.082013531127
-345.097780374157
-432.588359312124
-487.182334839854
-525.585370783207
-563.291465334252
-606.117085591201
-649.631129340143
-684.998921732456
-704.224172272238
-701.439785940182
-673.505896778447
-623.179726141931
-561.897919178944
-506.401914067245
-469.425662489293
-452.504391896212
-448.003907789377
-447.691008514622
-448.152059745058
-447.941827113263
-442.034168119006
-422.598410088025
-386.822765527887
-342.696051613412
-304.764910497406
-283.010849624316
-275.902210566782
-274.009243301356
-269.112813012177
-258.988354557203
-244.720647665069
-226.383369809042
-203.287108021668
-177.485720166505
-154.346889014313
-138.067535787082
-127.301639739731
-116.665937758625
-102.767371199267
-87.6662557864632
-75.7579788646128
-68.1044532630228
-61.1752392135828
-51.249571210415
-38.7411811165523
-27.1489588390281
-18.3182594551637
-10.195937330525
0.236089947155705
12.8695068381814
24.5279070400014
32.9542842430966
39.4831181368767
47.0259661164887
56.1266435794479
64.2323167406617
69.0365192192907
71.4879867934517
74.6064875843922
79.7324679173148
85.0776996633367
88.3412382287379
89.873509501213
92.2645642001049
96.9610223195278
102.355539400466
105.813135503835
106.979998819781
108.123373942224
111.152234892964
115.224367696814
117.977634871989
118.675600399
119.137015759472
121.285700930764
124.55870454301
126.536542724165
125.94374781672
124.143084583331
123.279784870329
123.577124963135
123.28288190349
121.221476293881
118.524126636895
117.268979039577
117.852370171111
118.548076842134
117.809354313908
116.290136810739
115.981696950836
117.665269446549
120.050928800679
121.696595288163
123.115623836181
126.235990661597
131.870782853912
138.4958989282
143.951259921597
147.887502596466
151.825271243983
156.811336131004
161.771189689559
164.724138195736
165.283193904598
165.185334313228
166.146935405554
167.783302081066
168.21810896175
166.533548377064
163.899231331672
162.011496989811
160.969295934578
159.365191897397
156.413890511382
153.293881307509
151.961930223708
153.012803414431
155.335074536565
157.880585743533
161.094858708814
166.093807936726
172.741530238769
179.275361315235
184.062650467395
187.216285772211
189.955752476431
192.581734670687
193.78144114209
192.222499866928
188.326985770479
183.812109815172
179.497588685457
174.206984429946
166.239228769075
155.566579524379
143.948350559607
132.827427806448
121.740871380715
109.302115973929
95.464717280603
82.0993121715024
71.0853119949495
62.3217722340888
54.1529059263394
45.5876639986723
37.422985379112
30.8746264870993
25.5902399629992
19.7020448419444
11.8887700501797
2.79680459320216
-5.9743734678192
-13.9430365415434
-22.1610047059875
-31.4847130830402
-41.0424920542304
-48.9708809727711
-54.5055127142168
-58.7378049451859
-63.0989362623591
-67.5896332195328
-71.062596795999
-73.1336635665059
-75.1506243510019
-78.8917405196216
-84.643813047849
-91.1110271770938
-97.2044474609786
-103.332405438731
-110.529999740471
-118.647821247341
-126.056229668111
-131.305862834964
-134.603051020817
-137.215386543436
-139.65373916506
-141.060090150954
-140.587223588748
-138.886057354827
-137.665123322721
-137.848251807069
-138.725633343044
-139.185749173759
-139.363028215017
-140.492428455795
-143.157146836765
-146.277188106189
-148.236881203131
-148.727089439904
-148.915744781905
-149.748015865702
-150.63732247164
-150.285812787398
-148.545516634689
-146.832648572753
-146.498876949784
-147.259892610322
-147.719417184706
-147.27496122674
-146.87810965005
-147.647925030707
-149.190869768637
-149.8848021192
-148.789268069157
-146.677743969807
-144.832200165203
-143.202924646394
-140.394861997858
-135.532083669354
-129.541809128598
-124.126092933701
-119.730628691409
-115.168602541621
-109.400359273474
-103.119459613334
-98.0203793464395
-94.6677626626032
-91.7621694095522
-87.8080335528906
-83.0481664877052
-79.1556667150624
-77.0851162393664
-75.8833217471676
-73.9981894336117
-71.345862874837
-69.3986264345987
-69.1553419804693
-69.648027478999
-68.9572113907876
-66.4419817528833
-63.318337028999
-60.8960491650567
-58.8423771861175
-55.7647243804307
-51.3103129371149
-46.9574134994627
-44.3896421321256
-43.5361759157349
-42.8147408309421
-41.2301364201866
-39.5619007488827
-39.1077852460698
-39.6983365935884
-39.6636787172801
-37.8384574073232
-34.9712148767447
-32.6693004138211
-31.2608374174885
-29.3930443717659
-25.8977015814528
-21.4557309084429
-17.8522529058564
-15.7972424286868
-14.1846230532835
-11.7538529035916
-8.92236899647333
-7.31501573219454
-7.56937480362382
-8.31019883248201
-7.68111962323188
-5.46505032076966
-3.05263231511905
-1.36389178123402
0.468428253086586
3.87339593404
8.70231738729711
13.0658942758136
15.4519515466165
16.3984841158773
17.553423234136
19.3883999356887
20.6061124338795
20.0218808789722
18.3883681088925
17.6766081274526
18.7035517078042
20.2336472034358
20.770529792455
20.6840156369872
21.8297865308036
25.1159612251299
29.21721525972
32.164681228906
33.7447100396723
35.5406318915603
38.5538264639682
41.576873797897
42.5510691401964
41.2012072229414
39.4900150663011
39.2380644776594
39.9706250942355
39.7766920857611
38.01607716328
36.2732873735575
36.2710732065029
37.5004977176733
37.7507913069356
35.9212867786232
33.4592283482718
32.5279703954849
33.2920342824316
33.8682368465368
32.9740647154175
31.7322683801921
32.2021962629497
34.5663667328762
36.7383501860892
36.9949695530455
36.2142598292737
36.75927786073
39.4400129946619
42.5316438637054
44.1291227343497
44.7024096973022
46.4317287477615
50.1718407772273
54.087913404608
55.8515128025619
55.5733735140597
55.6151064666506
57.4959427499228
59.9489704844358
60.6816683455772
59.4895181091743
58.5496523205922
59.4526914496482
60.9131668479674
60.2825637159806
56.9662796685455
53.2465208264456
51.3604786912225
50.634913582626
48.4679527643084
43.8958205998988
39.0216123721082
36.3541096013819
35.5335865014928
33.8253216812004
29.8413119153503
25.6333882520697
24.3378841455401
26.3627576186069
29.0604182075278
30.2853643126583
31.128805346844
34.2097343302821
39.805158426002
45.0266032297685
47.2598540299827
47.3985320856615
48.5792135457812
52.02636870772
55.4610502060799
56.1566317348568
54.5348374243789
53.4328059569721
53.9620604922685
53.5657615247669
49.1026541281844
41.067680464676
33.3401087360917
28.6201724836003
25.4681479503099
20.8667497856793
14.9138915649722
11.2725683522266
12.5193587770273
16.4356652908657
18.3412496018301
16.7245765894165
14.9108150148232
16.4885565051065
20.3998362751986
22.1987583172091
19.9511255561181
16.9963874657348
17.7119683348531
21.6291387865993
23.6619863238651
20.3862649330961
14.3082484738527
10.5086124150858
9.99460334152747
8.54317409127981
2.6960185573746
-4.96606214793911
-8.43015992203402
-5.57304839777885
-0.608996606340952
1.68424232214568
2.33719694798992
6.4561311872406
15.4050934317038
23.4586356608869
24.0599784163876
17.9427976227487
12.1192456553602
10.2949901949027
7.08695244954595
-5.5837850300413
-27.3837925129605
-48.5597491723918
-61.9565066880799
-73.7570429638998
-98.3092111790931
-141.042058925123
-188.830800722327
-219.707237736569
-221.712227560854
-200.605856975306
-170.198892816436
-139.387475478588
-111.113711288354
-89.8667339068066
-81.3079267131977
-78.6752181845644
-52.4195255368528
37.5713521114709
211.4890499598
448.851741464054
699.303445675159
915.198499867349
1074.59995370809
1176.36524435917
1220.75208245872
1201.95513808356
1119.37589027147
988.324072259126
831.484350268823
658.883084040122
462.216682279794
234.580036360808
-4.95500024404445
-212.34214700582
-349.554037766775
-416.306133297803
-450.237974442422
-494.856746268534
-566.138556733721
-647.09826782062
-709.484422926305
-737.272815697383
-731.602842302287
-700.408233565294
-649.793824122187
-585.998896672698
-520.97718673283
-470.997022680885
-447.867624257107
-451.654588862517
-471.40769951432
-491.665471713462
-498.740451770503
-484.423593529343
-448.350425770588
-398.788254467372
-349.208662684785
-310.693740838161
-285.773512474391
-269.584260555143
-256.981153355979
-247.551213566835
-243.044264366621
-241.102564497351
-233.957486108299
-214.814480596615
-185.049126016242
-153.835453812032
-130.297657867484
-116.506384658651
-108.048972111738
-100.044102242488
-91.2153351729436
-82.5125527917244
-73.8531650128524
-63.8733350959405
-52.4601762241371
-41.803682274752
-34.0281732395145
-28.4985825567731
-22.5574141961257
-14.8593539869943
-6.92387667006192
-0.843188561775449
3.82604598119779
9.86692341905088
19.1108446324557
30.2749029202278
40.6212927276889
49.1633154109071
57.2744299497397
66.1185896174536
74.5061880447804
80.1083149184315
82.4433657572357
83.6946450585818
86.2612483729061
90.1678798300615
93.5461064161407
95.359716168531
96.7391062223405
99.2941771381792
102.803164566575
105.409236303442
106.056427528262
105.940614577912
107.090083773296
109.949072290331
113.049637325343
115.040786809923
116.311821288034
118.146065892848
120.697582690741
122.590581054351
122.685410257033
121.636923963465
121.166028600815
122.000871732721
123.152588795374
123.367983123512
122.75144059412
122.443810015594
122.921979415047
123.304809686358
122.625433862085
121.339255997903
121.000631878993
122.473725616514
124.971889619544
127.101937659537
128.465731146447
129.736753959832
131.259672598791
132.206834178012
131.519849744338
129.401454808912
127.338332505354
126.574854548954
127.003662373467
127.848981479553
129.097090451012
131.634066108625
135.829960119405
140.49249156202
143.767032468882
145.079175710192
145.815671236957
147.935808488056
152.171800274864
157.801950063002
163.892757649353
170.195715928361
176.664515284916
182.581076129994
186.764073277643
188.719112198092
189.176439401638
189.212107490369
189.034375533666
187.96494292317
185.545143579857
182.217540199883
178.66629970861
174.769064597068
169.670488144875
162.965887854022
155.437106701227
148.316739892288
141.982583767388
135.733087427907
128.864197874335
121.569153768935
114.479504620583
107.542095583853
99.8489389563161
90.7546220029598
80.8444404014081
71.4426212409014
63.2326783031677
55.7101081348343
48.0811551511957
40.3374078074922
33.0751344837361
26.3794688407061
19.3912525740967
11.2671237464814
2.3386214758042
-6.07036343284503
-13.0060634423017
-18.7517419559496
-24.192026311
-29.622826062947
-34.6110440352658
-39.0256046500072
-43.7448307568099
-49.9586661288215
-57.8719520961261
-66.4569010493441
-74.5757399489152
-82.054269525639
-89.4187051388971
-96.7965521941481
-103.533621135937
-109.028568197167
-113.592402423925
-118.095410754774
-122.815304430277
-127.0092413059
-129.797743949738
-131.221712249112
-132.126672828277
-133.104678456956
-133.954422863862
-134.35621995972
-134.753298671748
-136.113089545852
-138.765516052917
-141.829398305064
-144.043032197065
-145.001517014979
-145.282830658943
-145.418117190128
-145.164774779591
-144.066898044917
-142.483722783893
-141.576178898255
-142.120807981659
-143.632991856977
-144.945957906934
-145.519239369697
-145.821604527969
-146.387999212211
-146.911200751513
-146.636630365603
-145.509822424106
-144.443178575566
-144.217229079834
-144.400257772754
-143.733398383655
-141.543312097878
-138.393417881629
-135.183710339598
-131.955555634772
-128.026476810363
-123.259097426888
-118.682996652703
-115.492340583189
-113.61827046163
-111.733493683864
-108.756642196538
-104.99653747156
-101.546363769999
-98.8051166755701
-96.0964144875482
-92.8416295032895
-89.6346906486162
-87.6638202667616
-87.1192970911566
-86.6244355750499
-84.4720514415154
-80.171416964203
-74.4780046652397
-68.0864780269767
-60.8466520410384
-52.5276991763579
-43.9813618540957
-36.9702394594458
-32.7040984985607
-30.87333944104
-30.34721649403
-30.5549439455695
-31.7612248324022
-34.0282914213878
-36.4562166944074
-37.8720317687827
-38.0851300555896
-37.9637975334922
-38.1372225439686
-38.0169864706423
-36.4700151890627
-33.2835555754259
-29.47549957084
-26.0285455867947
-22.7561079474749
-18.8569641925158
-14.4237811608602
-10.7997812035894
-9.14038374603708
-8.96182126833714
-8.60019373380387
-7.07883230080957
-5.04211088834301
-3.6181340359633
-2.77987574331278
-1.41434162496047
0.993310333375565
3.36342286872476
4.16911163185806
3.34608002010221
2.50233971980532
3.11652219024239
5.00409213460345
6.94986697242903
8.54679041492901
10.7233897689652
14.2521913216561
18.2984790227522
21.0835918541842
21.935384676021
22.0926592250762
23.1928305361982
25.37956954154
27.4415564853083
28.6883048531978
29.9697514604698
32.4259494473316
35.6557927214638
37.8615056154525
37.9397166983915
36.8541363459348
36.4794261517298
37.384599108768
38.4029299933577
38.4616190643888
38.1485245143032
38.8698607847929
40.726873756606
42.0402086498373
41.3160361521291
39.1651351946025
37.6464011519339
37.841182908461
38.7868945719434
39.0959007003319
39.0137701494316
40.0898578691053
42.865625421304
45.7395270886201
46.7017353714636
45.8049833723742
45.1395509606357
46.2716560168787
48.43330741544
49.7811812399937
49.9850984163565
50.6269700790176
52.8134390660903
55.2044087187242
55.243610727477
52.1813296496421
48.0167052385974
45.0972203105942
43.4496767407816
41.2636918707319
37.7873935615402
34.6931713300829
34.0040998675142
35.300869476301
36.0014607512058
34.5064407030878
32.1686504826055
31.5022125979929
32.9584572300456
34.4885522024245
34.4241456761309
33.7823106817907
34.8453319284035
37.8654215473621
40.3590948414556
40.1057943219169
38.0028816833221
36.9826363036117
38.3304452606083
40.210464149121
40.3292675666744
39.1626819838553
39.3617931451194
42.0379183207871
44.908236472846
44.9634044889353
42.3122506290348
40.1320373059487
40.6672394434734
42.463371435496
42.4823251488112
40.2996063636891
38.7391552239964
39.9753474899086
42.2588705910786
41.797424865684
37.5522907156571
32.6866580242005
30.6254980069878
30.7814923136995
29.5647460260864
25.3746876872579
20.9156068938602
19.6139613549856
20.8035280506382
20.2155364488535
15.4243865757515
9.19523338609528
6.18362767099512
7.13824242297301
8.21050539067164
6.36145788309989
3.6999903947501
4.79710052862958
10.3181776635065
15.4812627914025
15.7378901700591
12.4411182917791
10.9480877959748
13.4402667696502
15.9230598197364
13.5942107005907
7.61624898965687
4.10884110101529
6.32338633858319
10.3146021437894
10.2099147900757
6.36952235350316
5.30491318924771
10.7890290647654
17.7231540433334
17.5159780195114
8.67246663223864
-1.38646311542948
-6.44813641592299
-10.6873962150314
-24.1902983774269
-49.7124350244413
-78.0729153807476
-99.3495650408561
-115.815621870193
-138.419117305112
-169.34345452159
-193.373460056441
-192.458312654661
-168.188970666515
-143.095823111404
-134.944953371085
-133.27485942559
-109.542992194776
-53.3250044893049
8.88001914695492
41.7982569290784
51.8918981473876
102.171293097831
264.063372871188
546.192338175324
870.47682009503
1123.30961287959
1236.418235542
1224.63805198651
1152.93746067266
1072.57245434895
987.063250388565
868.906476074509
697.215346479296
477.025339526766
231.967701084719
-9.79463297750187
-220.597421863923
-374.935183229628
-459.230738452562
-484.929982995182
-487.251552157553
-503.335188686249
-547.046985678661
-603.742348092219
-648.144760992487
-665.521230654296
-656.691467658667
-628.327197939457
-584.987543139368
-531.965219892058
-480.854629802065
-446.031769226587
-433.682170895888
-436.54644692008
-441.408753988852
-440.631701116975
-434.455178037013
-423.258029947504
-402.079508898482
-366.216566849093
-321.128994240662
-282.583409575316
-263.975501325407
-263.769906310576
-267.038223572517
-259.54493397328
-239.274491580734
-214.378236420395
-192.34016725116
-173.56638767477
-154.942208582804
-136.320559803402
-120.977173015503
-110.498827993056
-102.001516138802
-91.7159493664786
-79.9489677580589
-70.5810362272307
-65.7124891269376
-62.5692535641258
-56.7373302452814
-47.467737709611
-38.217169682769
-31.9420474349903
-27.4071731858948
-21.162723242629
-12.2911870453696
-3.55499139304266
2.45734173907661
6.95414076164049
13.5137621830489
23.5080941979246
34.3608809551636
42.8186589248014
48.8748370869949
55.289282589743
63.5282744094587
71.5820697372322
76.5110299107813
78.3108274765711
80.0132453122778
83.9186310525059
88.8625605504082
91.9631868564618
92.4363263917166
92.5040986313174
94.3654893750513
97.3332484008974
98.8801170126468
98.1223476940705
97.1229476112571
98.3498552284734
101.661815316362
104.709756149084
106.096821514297
107.093789074421
109.741132741359
113.965917659638
117.55914518537
119.000862551753
119.366022203513
120.815134116793
123.700403215476
126.101283077338
126.356408020002
125.227266280915
124.873997954388
126.050504501906
127.232950617678
126.792631885948
125.302225729673
124.918357016938
126.652115796166
129.103789710275
130.296712194328
130.19715215909
130.661541277317
132.954951766341
136.126474362147
138.323247032171
139.236646352495
140.435906945495
143.19196668939
146.716963754788
149.162884614891
150.041140482607
150.82279038443
152.871043476138
155.404986854654
156.237470825129
154.483130856374
151.874345943224
151.039011440845
152.856681677522
156.027045106192
159.082235382362
162.082769718695
165.927439756026
170.476340394431
174.177349244101
175.74792168137
175.654268058822
175.389960746214
175.482658020992
174.834453632332
172.225297295167
167.961420212042
163.492580727053
159.527006621503
155.148379663715
149.0958015886
141.507912829392
133.830677728057
127.014230920353
120.366472342937
112.552372016679
103.41002363236
94.2044243150669
86.010175233396
78.3623695344444
69.9388560943235
60.364141002009
50.7735209235886
42.4208130617929
35.1637553662181
27.7811063480404
19.6522852171961
11.5693160461638
4.63586305767367
-1.26425969993316
-7.40583109506844
-14.6633914277807
-22.5076099727923
-29.8431250474097
-36.5332492444933
-43.5740400373269
-51.6954815438053
-60.2568706206271
-67.9086727353697
-74.1559752410514
-79.7772694863088
-85.5781579500823
-91.1633536362342
-95.3783164420112
-97.8523718277379
-99.6037095897598
-101.887500163433
-104.773915228948
-107.296592761376
-108.947627928373
-110.527108852829
-113.207308707037
-117.024486173823
-120.775980669814
-123.47348514047
-125.478538467586
-127.870982451467
-130.911249595774
-133.627142570973
-135.064885021424
-135.557292191237
-136.341461120593
-138.018391010333
-139.85207310781
-140.795062022197
-140.871962713454
-141.107281280261
-142.114916003683
-143.225408207142
-143.309392174128
-142.217555761331
-140.94463498472
-140.301001571839
-139.834155955869
-138.41299771344
-135.707177970517
-132.625438509832
-130.149341287347
-128.10550230522
-125.494893533803
-121.945644931737
-118.370616944131
-115.942031380961
-114.693182306158
-113.545742004449
-111.705495687615
-109.600851639131
-108.164821572719
-107.447714042462
-106.421901427399
-104.260604187476
-101.420399497518
-99.0986251727786
-97.7566770747547
-96.6178393099577
-94.7676887519977
-92.3880583384685
-90.4937845890055
-89.5249710975701
-88.6673862982047
-86.8257070997911
-83.9947030524487
-81.2254732614969
-79.2033889167456
-77.2733444414941
-74.1843175838507
-69.6025121918423
-64.4533921834593
-59.6851194567599
-55.098992131889
-49.788875747481
-43.610471992912
-37.7337348427897
-33.5030939029638
-31.0152901003505
-29.1850742733877
-27.1520398283875
-25.1922944928171
-24.015960781189
-23.4779580578263
-22.48059393045
-20.2393625468969
-17.2568970690913
-14.7121678153435
-13.0362674033265
-11.490960518712
-9.22885905069873
-6.37654699341766
-3.70368228004716
-1.37369595561149
1.47040078580913
5.63786870266371
10.7031591717919
15.2912218218755
18.5285595511728
20.8186581880388
22.9751990267732
24.9049837769871
25.6266870883482
24.6301693580488
22.7597234566652
21.3742400514461
20.7957638929776
20.043022026649
18.2201413842163
15.7813575260009
14.0374275958285
13.5507942700463
13.5150547931182
12.9212422496186
11.9567314773101
11.759766835188
12.815817060912
14.1076585460404
14.1991053837858
12.9220375042027
11.5235271393681
11.1036468405256
11.3785096629215
11.3534835366088
10.9631667633333
11.4401385240851
13.8349982919302
17.5732657394716
20.9617874116882
23.0704710101006
24.635841336744
26.8893606077593
29.8826788396721
32.4896210366014
34.0255120301507
35.2801543604157
37.5320745791957
40.7914928579046
43.5812053749147
44.5922785271975
44.1169610595073
43.4591997493628
43.1663830712688
42.4396134934656
40.4724835379234
37.8700546859534
36.1652384620435
35.9842094170251
36.2651097425314
35.612563104333
34.0713610856239
33.0213839292838
33.3435020194655
34.2830683992338
34.5192379819917
34.0096733285423
34.1062041179008
35.7020779996318
37.8276575642229
38.6193513702937
37.512182388133
35.8615223716166
35.1933163325875
35.3556257565338
34.9651583833358
33.5133041984008
32.2819288377996
32.7683739335771
34.6401546370071
35.9521403389424
35.4560214271795
34.0787740121261
33.6827214886435
34.7396400817646
35.9503174168446
36.2544892779412
36.4890746913193
38.3926648971581
42.1936072445081
45.9925416931419
47.8816311755546
48.146499602525
48.7205853207948
50.6141308949502
52.6886295140516
53.3702932403864
52.9823667747211
53.4999019406953
55.9266614430114
58.7269460607204
59.4869030708911
57.7766279361576
55.5431659432099
54.525304247533
54.0640008387437
52.1649241156373
48.3671878688007
44.5402094000081
42.4469608617117
41.2591239576362
38.4073767240496
32.814012475858
26.3488184610061
21.5819663743288
18.7464591481997
15.8850413768879
11.9410022446347
8.57765087941385
8.12572585339393
10.2632080839459
11.9279783071722
10.8497435746116
8.24618673054624
7.13495980553728
8.39164951099633
9.72235952258586
8.95173921630982
7.24509282743276
7.77672806819709
11.3248478905085
14.5741661737275
13.670634234916
8.7419540711123
3.60568720114406
0.962427161721735
-0.720262147742972
-4.51817463746892
-10.0561288106225
-12.9473508083252
-9.78939762648571
-2.47878389453865
3.8002675965347
6.49603933864279
7.97545018056195
11.3094522094289
15.2467843390201
15.2172706094385
9.18228066997253
0.441204478974925
-6.72207778295828
-13.016116552642
-23.5635420984358
-41.0919302847088
-61.9889296283874
-81.1789897175667
-99.8377264937372
-124.826141295284
-158.497191941154
-190.933960691353
-206.041348599316
-196.975379947693
-173.818740813776
-153.639751192216
-143.069789488827
-132.737124455358
-109.469261462986
-71.3085214517347
-26.9046786142654
20.6093913149407
86.17297321924
195.571710553563
363.606562841098
578.249120457032
804.403559297767
1001.38421970179
1138.44630864565
1200.3692943021
1186.75888570894
1109.81156836222
988.786783943671
839.202667039286
663.789328691014
456.714887001007
221.234865183568
-16.3862507485857
-214.950909692454
-345.51115454164
-412.766393868635
-448.978694698367
-485.991343342278
-532.901682052563
-579.103120303484
-614.086139039897
-639.095650041974
-659.093058772129
-668.940142878015
-654.366141149227
-608.884112441065
-546.750507115845
-495.125481825762
-472.08239804803
-473.087611821684
-478.780590046426
-473.760940780823
-456.471458298124
-433.271051411018
-407.870740838386
-379.341422212098
-348.27888911911
-320.27831393052
-301.037371979666
-289.65770407547
-279.379112834455
-265.098807306056
-248.166012761519
-232.716830328114
-218.933964275943
-202.398920845135
-180.407543157307
-156.785504281862
-138.530198451669
-128.10667341136
-120.865839428236
-110.695963635658
-96.8839374794364
-84.0067318125398
-75.5844590712066
-69.7118040052303
-61.7972836578247
-50.3802323299121
-38.5401131820325
-29.5550080395065
-22.8101005681184
-15.1491480665197
-5.48141593971832
3.64012320127617
9.47966474218572
12.9283421712603
17.6314053140955
25.6039474720788
34.9825525622802
42.6104679017564
47.8874299079256
52.9368895449242
59.1962556456388
65.1895513298102
68.4733975934595
69.1131470724436
70.0391688073256
73.7687083135359
79.6930759596097
85.2811191342256
89.4184353730996
93.4829081097968
98.9478655367678
104.931127036158
109.071641340013
110.599625549932
111.518675285828
114.288151667386
118.95322553123
123.33046078785
125.846488685494
127.268842112656
129.193858047948
131.49460893617
132.239981851165
130.239204330037
126.848839020637
124.621189191813
124.476262794786
124.949928288441
124.332878920186
122.826708156982
121.991375065334
122.413749883413
122.819581650996
121.83390385196
120.028135002765
119.492713302754
121.411236929532
124.697307406602
127.344430655083
128.659807403421
129.557595670019
130.765967947224
131.536758376515
130.665304372396
128.461789854033
126.989643102077
128.119036721482
131.760784340252
136.376671609828
140.935314491387
145.754213365742
151.309834245472
156.830873651496
160.704865876068
162.234058695095
162.43967536292
162.842573944527
163.766583466878
164.268782625571
163.638562564775
162.428578534015
161.740777140222
161.866365143141
162.17277791914
162.352253826709
163.251309987145
166.039981056962
170.706940570086
175.792732688049
179.680185738473
181.788962634795
182.270821196188
180.87604231526
176.746520536701
169.545534976188
160.39841760883
151.22679475955
143.109712823735
135.593075217598
127.684804017442
119.166556667998
110.571271563199
102.037655128648
92.7587309224769
81.9050249011844
69.8644283630937
58.1268375345826
47.8475495453899
38.8118543833307
29.9944851392478
20.8829704099441
11.8641554154632
3.3341759011903
-5.08541870346212
-14.0479022810555
-23.3342243267036
-31.6591519250729
-37.8404189289772
-41.9638737756705
-45.1597938921192
-48.3628028664413
-51.6501413272922
-54.8709857281207
-58.5141963753872
-63.470864872133
-69.897409014081
-76.6898334290397
-82.3848362621319
-86.5006335936524
-89.7685184568469
-93.1011291210754
-96.6679566983642
-100.157656592332
-103.664004613937
-107.835978480195
-112.995737301902
-118.38834945588
-122.630922968316
-124.911658558197
-125.550280795174
-125.370443293206
-124.808144636483
-123.868318197804
-122.7843141422
-122.273404707863
-122.891476139232
-124.302066336398
-125.488157854768
-125.746267241676
-125.293161708746
-124.820931172501
-124.671568083785
-124.702405978664
-124.891877311591
-125.702854707465
-127.572506250416
-130.145547923416
-132.313829177225
-133.14289052568
-132.63669152504
-131.495057373516
-130.275468719467
-129.034999227041
-127.774372999411
-126.893103007634
-126.887215110868
-127.617408327166
-128.143159483218
-127.444898091472
-125.231469566447
-121.938319251406
-118.062419651965
-113.761023636691
-109.158320204615
-104.765353569715
-101.257328355577
-98.7823861970983
-96.7124025801436
-94.2539146136035
-91.2401363296439
-88.1798535798421
-85.5821367283628
-83.4663310188948
-81.6397009115707
-80.2427684405758
-79.6907269749328
-79.9846360832659
-80.2947255978486
-79.4659281184718
-76.9561645898149
-73.1645051133076
-68.854570218052
-64.4542975640466
-60.0449730884788
-55.8604722495215
-52.4456228037475
-50.1411810761747
-48.5430186798305
-46.7010644283023
-43.9207720246044
-40.292291385138
-36.4390975271723
-32.9258924688456
-30.0568200348486
-28.1269395871475
-27.5376135343125
-28.4358335851727
-30.2992598971557
-32.076535076036
-32.8281764629741
-32.1947524847225
-30.2750443913928
-27.2576279889525
-23.372986813613
-19.1472247717665
-15.4050163847844
-12.7755992982764
-11.2001672464483
-10.0663868821036
-8.86230394776526
-7.59559832145602
-6.54046551941252
-5.74955768012195
-5.03404641549129
-4.41348891177773
-4.3275452717495
-5.17697804594881
-6.68802655291517
-7.92533356861872
-8.02378383877524
-6.8238435420908
-4.73298666921327
-2.11527439358836
0.954084423821229
4.32388558852178
7.4373774342389
9.65488235883112
10.9296605511779
11.9795720784848
13.6755022817328
16.3374986346303
19.7118781468282
23.5005153749427
27.6417515134488
31.9875035192317
35.9447621156893
38.7585314406486
40.2285016825196
40.9746703893486
41.8577378818272
43.2110207080997
44.7624615324606
46.214711064287
47.6204333005877
49.0478784453814
50.0808267671012
49.9902615808095
48.5173414854976
46.3145359047568
44.438493392558
43.4627712252339
43.2379286304458
43.457767600008
44.1533266828554
45.4195634464477
46.8229394283331
47.4631963705843
46.8089583223508
45.3192411727142
44.0280803280975
43.5561892773297
43.7371194573803
44.2248677456864
45.1577828152972
46.9196247280046
49.3245733803351
51.4256335577571
52.380800266447
52.3751570534469
52.4131821640166
53.1775215084258
54.3271942598874
55.0337527588318
54.969067009404
54.4394031775446
53.5762066850412
51.8093162609729
48.4918960588705
43.9769491390777
39.7549253578512
37.3914570861317
37.481519372973
39.7328615080305
43.7881903541538
49.5202554476472
56.4255331468769
63.1272604005203
67.9409311759397
70.0093059142587
69.6662372824717
67.6409918912921
64.2045682750462
59.3526538000251
53.6125158399327
48.1389136221993
43.7540562674755
40.1645755423655
36.518914691259
32.7089906688612
29.7195817977162
28.4880466674092
28.7190653746437
29.2279844313633
29.3752404913126
29.6485127460651
30.552289416111
31.3061943643882
30.2686978285968
26.7790096131199
22.1172968971412
18.2615459525921
15.9285558054228
14.3416382998544
12.9083635395412
12.4402339060372
14.142108032664
17.6523212382582
20.8548232059422
21.9506632773768
21.227467729556
20.22703183151
19.4029111429599
17.417647230171
13.0813264282195
7.31673409666809
2.35532698910373
-0.921189303557668
-3.87646528848506
-7.79500770292094
-11.3088044400884
-11.2832956338007
-6.53189371019397
0.216297673369127
4.81307627535656
5.72912848212911
4.5668758225774
2.42601585609978
-3.01844096642637
-15.6321347633951
-36.3613326975247
-62.0531360435166
-89.2082862164622
-117.501305914925
-147.744267771885
-176.443733345166
-194.703215731321
-194.842006087886
-178.204064610959
-154.707786747003
-133.534219513729
-114.959618485569
-92.4549040705286
-62.013498425007
-26.6437966559999
10.5170345116662
56.9046488761773
131.520044466184
252.347936525763
420.790609246111
616.827718537562
807.88765113197
962.751688402182
1061.01606829812
1096.05413478331
1073.94219042705
1008.7255474941
913.191487756001
789.715372466324
630.960646587366
434.099398957354
216.890444590819
16.861437584699
-131.40772149542
-222.35660164142
-283.014188839411
-348.417855228129
-431.546140860558
-516.22455973363
-577.588274557874
-606.811581385972
-615.033792599432
-616.266178895637
-611.567434513352
-592.262658627676
-555.903015486243
-514.205420008117
-483.302982052722
-468.337742821125
-460.457620227002
-448.657868545594
-431.612777069778
-416.166512138315
-406.159015138336
-396.317954386806
-378.429922631947
-351.493139856999
-323.307497544254
-302.094267787653
-288.562412506246
-277.175653316796
-263.615886704175
-248.771904037299
-235.387087391892
-223.129615606759
-208.923141362446
-191.554245027618
-173.827362468847
-159.197564866618
-147.428756802425
-135.097943316348
-120.240816571253
-104.974635515205
-92.701790381601
-83.6531119770653
-74.6170436347643
-63.138457912176
-50.6885719673071
-40.7899578728103
-34.6769542635113
-30.1009409094848
-24.5841081619637
-18.6246880605053
-14.620566051657
-13.0481303786962
-11.0341396720041
-5.27395134294665
4.40178258196595
15.2528755594368
25.1263509204395
34.6201169657557
45.3121600295656
56.6993338538801
66.0625473862179
71.4827013869999
74.0668716450673
76.5284461250783
80.017649858396
83.2403456043015
84.7690488476694
85.3113469370931
86.9553953545586
90.5296782233028
94.6574226178805
97.7226955940942
100.073346920802
103.536758520181
108.936538783705
114.907300413228
119.509985655311
122.444045219019
124.969514373176
127.797149954211
129.902706650831
129.89722212661
128.086407879504
126.390525026353
126.138469547725
126.582092351795
126.03217561669
124.075300111879
121.966079771614
120.776934006654
119.883263248222
117.883566186169
114.761678678041
112.381943128374
112.551599379862
115.060478967114
118.14054172385
120.658005586595
123.178714517041
126.639257038807
130.549288670316
133.227174341197
133.822309868456
133.473470437194
134.054946376768
136.085052750873
138.407473025486
139.901912552166
140.885863360515
142.415920877653
144.56526338209
146.098362847899
146.041848073026
145.075145479353
144.871417049701
146.208493327517
148.258873344992
149.877709920507
151.088115138181
152.788681270042
155.16074240571
157.025327594679
157.125692757276
155.702003308416
154.267956262524
153.817473296004
153.725132494908
152.679893777207
150.343391326073
147.540585013162
144.800094478007
141.273854040677
135.558334735111
127.407835930677
118.129288146212
109.146968501066
100.569848642437
91.5205702708599
81.6496821997619
71.7684374749688
62.8066857769057
54.5768298287799
46.0618848878143
36.8714027114956
27.9249825146351
20.4389299165567
14.5324277963623
9.24717282484234
3.87811494149215
-1.20590954343007
-5.33005299680423
-8.76745468109334
-12.698045785073
-17.8311635945123
-23.4828314518652
-28.3604290279275
-32.0905958536859
-35.5597777885162
-39.6970580412716
-44.3487385614368
-48.7112138206844
-52.671815499597
-57.1836121497806
-63.094664359635
-69.9386326422608
-76.295805680962
-81.3082126625906
-85.4496304903825
-89.6527723229752
-94.0373925773953
-97.9357716803739
-101.111262744833
-104.434396037042
-108.995486005768
-114.737691810602
-120.386130615507
-124.798821949132
-128.044269647546
-130.90592457653
-133.580952213491
-135.346814470839
-135.615630858889
-134.912125824193
-134.401453478139
-134.523313003425
-134.489883323484
-133.293216841949
-130.923114719713
-128.274494062403
-125.973884301539
-123.733625147461
-121.050592828662
-118.215937658958
-116.187366487522
-115.432182071825
-115.267642165073
-114.596565102699
-113.104305498528
-111.397359293717
-109.992693635241
-108.580766370466
-106.556488475535
-104.037983903426
-101.887257607876
-100.588046160326
-99.4330873626553
-97.1547968096135
-93.2743745635649
-88.4993819497948
-83.7395227679093
-79.1059492346696
-74.2277170589412
-69.3974507230143
-65.8786368828519
-64.7728604898494
-65.7797197395663
-67.421707469742
-68.4922350436524
-68.9631769913592
-69.3368665702905
-69.4553138095076
-68.4303404610957
-65.8028773880447
-62.353203887415
-59.3997467833526
-57.3942290265438
-55.5533385591839
-52.9447909397125
-49.6107817593199
-46.3485553061632
-43.5727792260245
-40.8489170405562
-37.7053749340323
-34.566349736807
-32.4710202274251
-31.8782029893303
-32.0998263374069
-32.0977433475667
-31.6017105265353
-31.1285566373589
-30.985881388882
-30.695109309442
-29.6550235457796
-28.1266024686999
-27.1173109862652
-27.1889914989884
-27.6911144706752
-27.4338124389685
-25.9675014816713
-23.8591227074772
-21.6840688225973
-19.1373985779483
-15.4797985473498
-10.7223421769939
-5.92582508727152
-2.12477579205403
0.797932925265592
3.85550461486841
7.64546943634739
11.631645595653
14.8540559535633
17.0484432710598
18.7015612453922
20.0609475235403
20.536132903073
19.3888573878757
16.8566713997317
14.2347829871989
12.7715492636228
12.7362219945601
13.7167944125633
15.5513052639169
18.5237454218379
22.5721460672303
26.7052828127256
29.6098990014347
30.8227406868401
31.0182514147924
31.0655798285645
31.0849697144883
30.6753580372011
29.8714566381751
29.399153248129
29.7829516030959
30.4973477961782
30.4045091274314
29.050864427088
27.2114260534921
25.9884363841938
25.6216889212808
25.5105621611273
25.3179734079658
25.5870274231457
26.9805305814666
29.1572479952704
30.8698306947047
31.2972371707306
30.9659060697491
31.0880638185273
32.1673751299615
33.6391545779489
34.9118027228308
36.3146730426897
38.6146611147192
41.7378509281193
44.4821902668309
45.7571101713948
45.8535059215878
46.1314521537503
47.5096795433946
49.6482147178617
51.7574712856973
53.8164887023974
56.4886244247412
59.8328907006791
62.6018129101994
63.2137417354172
61.2935250816344
57.8936346454794
54.1856445053113
50.3396125916779
45.9518776537499
41.2527340962909
37.2939397953146
34.7630218534969
33.0286260291619
30.8093366009938
27.7112283582357
24.6740793103575
22.7673420353389
21.9508510617788
21.4390191355317
21.1098594204641
21.9296890941073
24.6614074308534
28.5146864665622
31.6421748605374
33.0317643465515
33.4484423091819
34.2161066752153
35.4066017454889
35.7856233434785
34.5644445532334
32.6045236261535
31.4055023063653
31.1330695014323
30.2727963491521
27.4331986495847
23.031307545371
18.7391191267291
15.4724585218822
12.5515300241148
9.03776130076062
5.34568033296421
2.92631229996431
2.49730851735973
3.29905945424352
4.42151828829569
6.29861920536123
10.0938527084294
15.572529808116
20.3377939964607
21.7386385461064
19.2098012114505
14.0201396749114
6.66950514979013
-4.66730816298423
-22.4564128166973
-46.8590774804495
-75.1933671160209
-104.35649014264
-132.911699650058
-160.154612916963
-183.798193248225
-200.006554905683
-206.2285443587
-202.972106753189
-191.644555360183
-171.245629985307
-139.329829788763
-97.436813929811
-53.7570804759871
-16.4485749645685
18.6106693947175
72.8270074132781
173.976529321451
335.766725141661
544.819687094119
766.206202025613
962.029643091174
1107.23150164287
1192.42286457682
1217.23252314322
1184.1743413501
1097.5302229035
963.747471966079
789.822066506888
582.276783125481
351.105438849071
116.206896832002
-92.9378432592411
-249.549943558824
-346.156224557416
-400.407166872181
-442.903935695099
-496.206479932896
-562.16222023236
-626.162190954943
-671.406981339843
-689.675896382124
-682.209224715903
-655.07124485852
-615.989220286045
-573.890613398714
-537.523151233229
-511.732672284209
-494.988420112678
-481.807408036821
-468.201719113391
-454.368286526612
-441.943764950582
-429.651193844808
-413.015976370172
-388.736154183833
-358.55516286383
-328.054780418325
-301.754601130419
-279.9450060769
-260.209952314181
-241.067051724488
-223.294355082066
-208.015314454898
-194.620374751859
-181.261378803088
-166.991182878479
-152.616861787881
-139.314793862441
-127.055499768716
-114.930335531217
-102.752513365152
-91.5977442490961
-82.4603110935016
-74.7852209618097
-66.8377581320461
-57.4919861877842
-47.2341736688327
-37.2619643405425
-27.9902417958872
-18.8740057033848
-9.57748899314809
-0.741045771551839
6.76748202942473
13.1291837943629
19.6465133488375
27.4364728052484
36.336044500401
45.2964971677153
53.6318179564437
61.4990869859426
69.1359741352869
76.0582265901198
81.4140148704143
85.0803559383716
88.0449968237228
91.505964808574
95.7448021178692
100.077765617748
103.799676579264
106.854627625866
109.478323706485
111.48475350234
112.300542417945
111.769896575958
110.654586250788
110.10162799471
110.66500010149
112.015083014055
113.569684834017
115.150127786723
116.862661542672
118.523758810423
119.559699174141
119.622396273036
119.133618016883
118.991871799975
119.726166957357
121.077921450021
122.43905867484
123.516715800642
124.40401558147
125.105509102586
125.301620239238
124.767876902338
123.913621486218
123.66148500305
124.693482730895
126.895320201423
129.592631415989
132.210419612141
134.541950663314
136.422151245354
137.42177011607
137.125167719421
135.715369218835
134.089048966858
133.238418486362
133.521792701538
134.580629286603
135.891213473236
137.241238423583
138.63664898212
139.931820713249
140.805873769468
141.193208399743
141.624145422488
142.988160578526
145.908778183976
150.356850431206
155.816822427252
161.699546272353
167.530696941139
172.853265109442
177.166040298175
180.096663482979
181.612215590431
181.970116915824
181.431121789212
180.047211594526
177.718737520915
174.374118615838
170.027115978489
164.71003418094
158.487153012206
151.613886258488
144.623313838544
138.121421996991
132.407398228444
127.282611458762
122.230018900888
116.743197727826
110.4637511205
103.089996365201
94.3395714141459
84.1551280710786
72.9525566910343
61.5465081280848
50.7005115658123
40.682188209532
31.2280178328645
21.8954016935345
12.403542342894
2.66592891015239
-7.36420250109061
-17.7067619182
-28.1401593484772
-38.037962617481
-46.5522382735385
-53.0740726733398
-57.5852473036529
-60.61088830536
-62.8682112820536
-64.9469436183531
-67.2259207265601
-69.9368810668597
-73.1806699381929
-76.8576443611409
-80.6513143203538
-84.1749171360148
-87.2072527031243
-89.8371623183591
-92.418460492635
-95.3935337621827
-99.1057784247147
-103.669845804579
-108.914045653313
-114.41233802692
-119.623393974699
-124.088449687786
-127.566866506466
-130.023231371638
-131.518376295896
-132.143985205397
-132.057971863682
-131.518095483392
-130.788357042675
-129.966359612441
-128.94298424474
-127.618070266506
-126.205907297983
-125.302987604639
-125.589201555868
-127.410586528267
-130.621506204158
-134.778495530057
-139.398846321174
-143.977264141388
-147.822697157497
-150.074431515622
-150.081399339868
-147.857788623006
-144.138009793095
-139.921050439836
-135.921221540276
-132.410462754832
-129.463224265686
-127.17299133273
-125.534037857711
-124.19685981243
-122.535650707804
-120.092253289998
-116.946030307345
-113.57715159835
-110.359328445721
-107.245026994531
-103.954235676998
-100.359889863232
-96.5609259443297
-92.5984826066747
-88.285354302051
-83.4878841380533
-78.5670987013996
-74.3806938530853
-71.7150404436658
-70.7072018775108
-70.8559703797834
-71.5337913507358
-72.3507459758932
-72.9916721475667
-72.8904003025075
-71.3460193601971
-68.0924390548421
-63.6654598037502
-59.0588494681203
-54.9788073647648
-51.4771890116901
-48.2729176507247
-45.2551055241717
-42.5266998266554
-40.0303679474252
-37.380419563232
-34.2383590894569
-30.8024718565828
-27.7624270925646
-25.7094035318725
-24.6675433087659
-24.2461682185693
-24.128625972114
-24.2413888160837
-24.4556925583934
-24.3540175303446
-23.5105983463225
-21.9922221977066
-20.3995961203448
-19.304020368743
-18.7135651954638
-18.1877748488641
-17.4026739768755
-16.4162088812112
-15.3322322376893
-13.9103460571302
-11.763260872816
-8.96396419111709
-6.24408789345101
-4.40757230920315
-3.5844991690095
-3.19620667906996
-2.63091449138279
-1.75266120873223
-0.63838038035227
0.991279061325919
3.74174943507218
7.82091469746072
12.5365664777686
16.7618070110318
19.9187416389431
22.3429218789715
24.6415229192229
26.909198072881
28.7958022891184
30.2531339599508
31.8583519301153
34.1663951134097
36.8755719060228
38.9318908294543
39.5478190907283
38.9373437390687
37.9112295853364
36.9118748014171
35.73479099094
34.2186156056895
32.8708781075671
32.4834766888149
33.1759082236569
34.1410348910081
34.5098844028521
34.2968248787302
34.2563142375852
34.8752008770283
35.8210705148964
36.5222914583815
37.0264080122266
37.9129176892186
39.3346174522113
40.4991803126444
40.3947419827785
38.9372800662979
37.1203512196308
35.9985814290826
35.8055637385164
36.2568788291808
37.4618439618105
40.051458541447
44.2356555164943
49.0461582637832
52.8881814538358
54.8339092904307
55.0929455154142
54.1656147111355
51.9245892055579
47.9287341319217
42.531556912916
37.1578935024864
33.171462903308
30.7058547537323
29.0171152530816
27.9511706879391
28.5647594874216
31.9605554889484
37.772695498517
44.3192128273415
50.3228489193605
55.9959810337809
62.0393733321689
67.8648443892342
71.5061450633547
71.5752303638795
68.8868862721692
65.6305136870603
63.0295032861199
60.3804493303411
56.603780293684
52.1750990824671
48.8036751178116
47.2109739931241
45.960538708827
43.0267312504888
38.2219884068032
33.3989402325183
30.167745312758
28.0832187293079
25.6194609458623
22.5449742695705
20.4262689650276
20.4867850139145
21.6724463321293
21.6514207525767
19.6253266415315
17.3129979485209
16.7456619578845
17.7105422999319
18.2165331276345
17.365506737845
16.7142127884668
18.114672060595
20.7897067089158
21.6867905279456
18.9944211808811
14.4116829024076
11.1302527077364
10.0051335499061
8.8802712216152
6.01076305428268
3.055551771258
3.46042284140705
8.03757121090129
13.4434286407079
15.7539252459401
14.7558813350477
13.5189584554212
13.8727545068135
13.7653852353965
9.99048740624349
2.57752933477147
-5.18823859804874
-11.3050124170068
-18.0381642252458
-29.1729260541109
-45.2675544216285
-63.6952414128053
-83.6244104707175
-108.335151584483
-139.747384072213
-171.012669801985
-188.157475344174
-182.29887789865
-159.864615574017
-137.730790781071
-126.469038516981
-119.711770106515
-102.066099214542
-66.6221434907277
-20.7978682882684
27.9543687629056
90.658603446587
196.229414466872
368.087695320085
599.464112882531
851.229417469297
1073.31443110784
1228.87095854677
1302.48712900798
1293.95607224177
1211.66486647947
1071.87302293854
896.450878614767
702.76978158368
494.047627981486
264.624462519261
19.6662761988541
-211.388904129016
-386.941726118978
-484.110435357003
-518.774452104574
-533.217116258895
-562.155933057928
-609.566036209733
-655.909275470619
-683.205629528264
-689.814508118736
-683.140312144644
-665.094076518109
-630.686970417785
-580.52230272734
-529.115393570923
-495.985831627493
-488.127951707451
-493.658921074652
-493.822311483356
-479.844592311329
-456.932029734786
-433.675862973966
-411.258292783996
-384.681386615537
-352.385579679315
-321.112450487945
-300.034395443149
-291.563614198652
-289.364991980045
-284.673941675384
-272.903875217031
-254.257400405366
-230.4863369191
-203.498703850721
-176.733293437728
-155.102771174056
-141.362470151505
-132.806258298036
-123.213562487606
-108.836238766819
-91.7997126484245
-76.9939434642576
-66.2745570908964
-56.8636800677891
-45.4242915908878
-32.3344971897215
-20.8880486660165
-12.8645469272605
-6.35794648873463
1.54036008502021
10.9965574927312
19.5594042041045
25.7833511699811
31.3978852069737
39.1379629174482
49.1328075997084
58.5936666362519
65.1643333439484
69.5730196450777
74.2859326444752
80.1398943621831
85.4362344590303
88.558652536848
90.4915982038846
93.8261545585147
99.5400937776199
105.765512240871
110.121270898442
112.551671511407
115.060119469586
118.865070355458
122.817198091084
125.110940839716
125.90486801377
127.293478883467
130.622055013723
134.660883332394
137.028500478735
137.017646395282
136.209459703349
136.212090918366
136.585594945148
135.651440251999
133.010505323685
130.354652114526
129.451946065454
129.926371501108
129.720266324766
127.629810569113
124.661920395976
122.580961386469
121.678939862062
120.697486618714
118.880700129097
117.31762573346
117.739522029657
120.356006234329
123.589636173378
126.053027830304
128.178046731294
131.418390514875
136.169248147667
141.189579489411
145.239280123996
148.662448960512
152.735209739122
157.620450079517
161.694582543786
163.256977953451
162.498749278434
161.227456258365
160.732595276891
160.552112701304
159.659831699096
158.382738282498
158.396982836328
160.701050474812
164.180569509812
166.699118668936
167.439605846358
167.631186349561
168.859023830657
171.179488493034
173.375783122067
174.833835736561
176.448031562802
179.320363813831
182.950977903521
185.299470719291
184.696771274788
181.267671643083
176.244219931425
170.266563861891
162.918850870146
153.942029157415
144.296840379845
135.510590169604
128.098432334108
121.123757137503
113.480556843606
105.243163131217
97.3922140136036
90.3903322978203
83.5519701519527
76.0130635381248
67.928782869043
60.2301652591956
53.2310659388073
45.961689737985
37.1909845099021
26.889620155355
16.2963852440128
6.5520590999573
-2.3229516829865
-10.8731061956803
-18.975653990573
-25.7135642287548
-30.6066289106645
-34.5685945049201
-39.2367634284625
-45.4129317687634
-52.50939222809
-59.5958943459991
-66.6046509002492
-74.1386636910226
-82.2529670181003
-89.9673433453345
-96.281347726483
-101.415599177523
-106.623278177165
-112.731988556595
-119.21871607069
-124.937966911968
-129.507807317441
-133.56863688556
-137.669634047763
-141.358021589681
-143.752016138323
-144.873022509058
-145.950926240641
-148.207629577196
-151.587363120183
-154.979284482101
-157.579276906133
-159.639514638572
-161.745140332151
-163.720824492268
-164.717221992589
-164.401145517816
-163.649763316774
-163.749740909969
-165.038657994953
-166.656525682152
-167.651963346326
-167.984117330958
-168.190713606664
-168.306358523163
-167.594268753839
-165.515567191978
-162.638365464617
-160.192361353875
-158.725761595791
-157.521015418034
-155.484277292143
-152.359035687717
-148.756465842994
-145.093603177722
-140.967937676998
-135.876697720971
-130.333182447362
-125.805965974013
-123.374833082706
-122.671490313753
-122.367138265877
-121.556807175666
-120.328857064356
-118.944940378464
-116.885970826481
-113.157163621639
-107.529670827624
-101.087603323096
-95.2721157476223
-90.5145940589102
-86.0753989117152
-81.1867163021907
-76.0030850021657
-71.2193684107616
-67.0002689678272
-62.7303359468172
-57.9429789015083
-53.175107730044
-49.5527610508495
-47.5593057959952
-46.50839895744
-45.3458167137167
-43.725083818984
-42.0278148108642
-40.4475060154746
-38.4853359442018
-35.5981622918491
-32.1239263868251
-29.1585286112099
-27.401455390523
-26.369627931526
-24.9642382133553
-22.6739517830668
-19.916645254113
-17.1776786623037
-14.1814708270641
-10.2634535376809
-5.4783325979946
-0.933709678730366
2.22067812262294
3.97768903206691
5.378635615818
7.25628336250567
9.35641788955606
10.8489620951619
11.4581474651734
11.707065753553
12.0022267217367
11.8474112852312
10.3299252869047
7.36004655575768
4.12667429933283
2.17472339489342
2.19375089294754
3.8833441061534
6.82976842440072
11.0846983316159
16.670257687744
22.7777213835157
27.9084888159039
30.9861879513925
32.1636095750416
32.3833578349662
32.2930479515986
31.8557472271301
30.9973404244168
30.2463332533834
30.3844260558444
31.5293839002006
32.9174233413268
33.7819893893015
34.2715774318675
35.2460280273019
37.2074327288433
39.7153023966961
41.9733542521294
43.7351140503957
45.297178861261
46.632226778612
46.9385383976494
45.3804211198786
42.1867450015436
38.6950853323804
36.2016369935942
34.9805651891618
34.5978929247727
34.9536643924909
36.5597078690417
39.6393207292919
43.3080898921281
46.1126128162506
47.4600854724793
48.2193383577735
49.7089797704844
52.2801847280221
55.1926768099258
57.8099884826019
60.4511212373572
63.7313971862804
67.2759870811841
69.609103892454
69.5580176232535
67.521896623983
65.0355714030397
63.1551720044525
61.6308018020304
59.765184686757
57.6789730566379
56.2447409312214
55.7907982342082
55.374888226536
53.7259662848452
50.7503127444487
47.6978941694989
45.7713689760945
44.9433289354756
44.422914549886
44.0089380993253
44.4084375399295
46.0423215921432
47.986227901232
48.6219167554079
47.316623191112
44.9874210344858
42.7697259772939
40.4883939908836
36.9408085577761
31.6380209091769
25.6806558456719
20.535726740416
16.2901706793037
11.769256743013
6.51603891035387
2.07711863601372
0.752276759377537
3.1809408449368
7.72727866706634
12.4218314917582
16.9705461129045
22.2740351759094
28.1843094967817
32.620946343043
33.4722675627805
31.0233530461116
27.7862295187762
25.8085570207363
24.7420875015713
22.9801417742869
20.2218775363054
18.0164071201461
17.5703450210818
17.8100839998503
16.4528654872802
12.8749273714272
9.06943445509114
7.35194364015308
7.70211284857913
8.14982139890157
7.62999698855197
7.44492818776408
9.30909864363224
12.5931688475063
14.6437591434915
14.0620096886172
12.7344417427402
13.77414548972
17.8160810233516
22.412438097105
25.3449750349463
27.4784391227141
31.2416086207085
36.6040661595092
39.998293078603
38.0466401287556
31.5930326304389
24.7919236008048
20.2099124330947
16.1631169964068
9.7867794968157
1.85140190105437
-3.16260079911795
-2.1792769871312
2.64194731003371
6.43837144445967
7.40343838702583
8.28250475985518
11.6095419590463
15.0625130226097
13.3844492956645
4.59596882752873
-7.82448848690246
-20.0039404518584
-33.2474522919072
-52.1360735859592
-77.1890692619832
-102.411502566986
-122.495429931776
-140.923333945772
-166.738349030851
-201.107148843212
-229.580910141667
-232.22779036021
-203.28497843309
-158.711572735911
-121.80495137994
-101.795542800365
-88.6131471968258
-67.7978231604438
-35.3987959066812
6.45120586855025
66.8680012200425
171.110246745591
340.587232076102
566.45401887267
806.577036267302
1011.68910266211
1154.38204743286
1232.48965463457
1249.16322143112
1198.42474659662
1075.07331192631
894.217601977725
690.995034909215
494.983241610887
307.583636728625
111.144579408798
-97.8790972394658
-290.205532973685
-424.394525996092
-487.185744987017
-509.350104381379
-538.151952817027
-594.607860534213
-659.433121825631
-699.012463936356
-700.048235690672
-676.439505186257
-646.931708981365
-614.306091791038
-570.255303301347
-516.215895906916
-471.431563871964
-456.624582923629
-471.985111398756
-494.999892666146
-500.456508297479
-480.69307768431
-446.401092207285
-411.491069935087
-381.036875311588
-353.190177772659
-327.695316367833
-308.169007768969
-296.516082386403
-288.819797225333
-278.890260082461
-264.484172100706
-247.839676685034
-230.510687184199
-210.398301750256
-185.468039414169
-158.865287651734
-137.599082420629
-125.354964783563
-118.19032988836
-108.804869818296
-94.4704009214936
-79.1687855633749
-67.8006510768055
-60.0614808446906
-51.4586532459761
-39.5505754140961
-27.0887533184212
-18.2368143616369
-13.1186497088827
-7.78880535367701
0.646801041357136
10.6568959013923
18.9195965593696
25.171739822722
32.7143642602521
43.9564063538394
56.9642836413233
67.5737798487784
74.2760340285261
79.5639222888205
86.2096925123806
93.5587842989717
98.6852734225638
100.678854780491
102.217368899132
106.273750664463
112.290502263248
116.847523615287
117.933702758633
117.270548151872
117.798137381499
119.789033598403
120.720801238982
118.944994663028
116.166677292289
115.393107249729
117.047172487948
118.36379575974
116.859617249429
113.354724398082
110.695217538299
109.996090668504
109.389244815781
106.833644219686
103.147686597408
101.181231976467
102.195972541563
104.220065814966
104.543698350499
103.109701479393
102.445160388947
104.350421375988
107.740337184823
110.37873694895
112.058055553681
114.930086513613
120.547668681519
127.557205761287
133.111625773129
136.17333196605
138.444420929262
141.844063808523
145.966404797319
148.842941656017
149.845424488301
150.718893347342
153.287162293354
156.874980662752
158.929516310796
158.11665178247
155.902343274774
154.627253851343
154.683180227806
154.513145250483
153.336559078904
152.835951264744
155.40110106062
161.116227603284
167.421594837079
171.956077441003
174.979289742741
178.361701244741
182.619521686979
185.961013141591
186.575308563506
185.083337546482
183.860050826063
184.067450810972
184.249382462311
182.289386233316
178.151172702283
173.859354289419
170.840469868832
168.169411308257
163.979697690021
158.071574760311
152.194845880602
147.611847375827
143.180549431547
136.533538900133
126.868350715369
115.772712314614
105.108483395547
94.8022140465543
83.4102255130309
70.582767964089
58.0353405904513
47.6526545439668
39.1878250092035
30.5860716133847
20.5301153882404
9.92381167284104
0.479061767102337
-7.61431990489491
-15.8252669830731
-25.1095093496342
-34.411075829931
-41.9073251259614
-47.3889596097344
-52.6259233687658
-59.2096297231739
-66.6738174777581
-73.3009628755908
-78.4683298563884
-83.3959226233236
-89.3428077635582
-95.7236690000847
-100.72411994655
-103.651179281716
-105.9167160935
-109.327885459907
-113.89680206667
-117.998773516925
-120.601476868286
-122.582192198272
-125.417382881658
-129.057867469853
-131.89163843541
-132.900182829543
-133.156481096733
-134.635419047315
-137.835488896675
-141.276797626491
-143.471692159335
-144.72855943292
-146.4232913258
-148.777751145437
-150.193543727691
-149.129803490738
-146.110448873768
-143.214810718341
-141.672053661213
-140.644512989361
-138.703518445257
-135.967841531832
-134.048544447407
-133.89359946126
-134.431865097594
-133.864634277343
-131.942026717144
-130.24035563191
-130.073832793416
-130.773221962029
-130.561068743155
-128.828526563273
-126.801604018874
-125.75807471389
-125.220323764928
-123.575123799673
-120.330585235139
-117.012729420069
-115.460546272427
-115.686655597292
-116.036729054083
-115.366146366426
-114.338172639633
-114.168461535169
-114.557672006205
-113.641229290101
-110.113239381018
-104.790057519133
-99.586005434379
-95.2398479479887
-90.7215710585269
-84.9960374854736
-78.7245964094713
-73.6241097128687
-70.3481167947007
-67.7181792322702
-64.3296313506581
-60.4039228075873
-57.4430923860214
-56.1613738930895
-55.4395421877214
-53.6711254121128
-50.6980198971312
-47.7819400788658
-45.703025260187
-43.5782237220811
-40.0184734795467
-35.0995293365514
-30.5005152935002
-27.567860707091
-25.8034126741597
-23.7163832295291
-20.8623569811613
-18.3522075451972
-17.1832305307083
-16.6632712414667
-15.0842961876374
-11.8082240554466
-8.03488117467263
-5.24645564994308
-3.37779288453676
-1.09843956426549
2.22351281277744
5.52555573204415
7.35420681398391
7.71455660214561
7.98088880024271
8.98057154642841
9.82071559480318
9.05324663955843
6.65218229285624
4.17033691898065
2.84749391108784
2.17118815909525
0.799179948367808
-1.39792340804832
-2.93479548015643
-2.54575829607112
-0.847529843589275
0.415625913808697
0.626330368706599
1.12473228184791
3.51920857506562
7.66688308297185
11.9377460255891
15.3701865210606
18.842372350284
23.695220064971
29.6225184914903
34.6378841631496
37.2246100690206
37.9289828787648
38.4021134599706
39.2267770806148
39.3925177870499
38.0276062113289
35.9828029637195
35.0814705586641
35.9821203698746
37.4646079659533
38.0763114777791
37.9639360016778
38.5045234078915
40.3001966858506
42.2712079309973
43.0813079763042
42.9738074682527
43.5156964978947
45.5350588447651
47.9772269997562
49.2199036720631
49.1270571981221
49.1263969016711
50.2150720736723
51.5632571277706
51.6022983697331
50.1679596073885
48.829445917315
48.9182736992219
49.8385409239167
49.9047328460059
48.6217601704052
47.3977417212199
47.7358959814273
49.2884523512203
50.3480198405075
50.1228330643296
49.7634224407604
50.7528846801341
52.7847097965264
53.9704937922721
53.1601228461776
51.3515344985524
50.3454833050463
50.4295053709599
50.1549113864897
48.4881886556261
46.4460637196829
45.9789231136319
47.5118365890481
49.3669807660922
49.8474104486601
49.2650648674403
49.2706670332759
50.4084421653035
51.1673225396528
49.8174295945282
46.6210412583834
43.4921926896501
41.5432583618759
39.7504361795772
36.4858736867709
31.862543310558
27.7620353600246
25.4992683391394
24.2270253704616
22.2028032330928
19.2239460571699
16.9684542637494
16.7694535573532
17.7978210490924
18.1161740423857
17.2394086891949
16.7863141907188
18.3109005673661
21.171105473351
23.2922313313838
23.8514990640282
24.3176187566099
26.4190219402639
29.7042382574627
31.9596065031192
31.9962638886764
31.1473445325313
31.4685489941231
32.9846055306575
33.6174594010862
31.9076432725301
28.9315854145181
26.8613720672923
26.0709771022718
24.6552194325087
21.0435884055245
16.2517740252785
12.7446317248582
11.3733055216318
10.442267048713
8.15450305905145
5.1594005314101
3.74229660568175
4.68099296844299
5.99971383435093
5.4102155948537
3.28629463175837
2.18089319480573
3.42369725510373
5.28794561868483
5.23665555998157
3.32311488302729
2.14693038179059
3.25428340475872
4.7009065080022
3.16942035618447
-1.91871965244773
-7.63264666080008
-11.2020478260866
-13.3799076500329
-17.0356339593779
-22.7561538490344
-27.3049744680323
-27.1991711583999
-22.9454771216622
-18.458365513473
-16.3676635361649
-15.2875068387146
-12.5400990999756
-8.59410646463337
-7.15731232242684
-10.6647692896618
-17.195197534374
-23.113211244102
-28.0595116476774
-35.5577252734163
-48.2795259005517
-64.4068688274949
-80.3524954261265
-96.3513861772709
-116.778846210618
-143.53624395699
-170.687696353662
-188.345068704538
-192.431329427289
-188.458940529041
-183.758484084015
-177.147916650642
-159.494634491575
-125.838347984314
-84.3694953417826
-49.2546573397574
-22.9002931489835
12.8208609847977
85.134159303573
209.392513559616
379.316186677655
575.543613827209
778.827413476982
971.520633946606
1129.20528715152
1219.91352846099
1220.40347414496
1135.7156793377
998.656411581129
844.445875367073
683.46540553068
499.897899393602
278.477441752911
32.2655358000773
-197.045112959496
-366.965382669317
-463.51899789149
-506.122982992318
-527.453292805814
-549.643264493341
-576.22945162184
-600.292677419895
-615.495983410222
-619.848634905371
-613.462591077807
-596.732160505452
-571.137813845578
-539.876953763399
-506.563964381523
-474.110506962878
-445.801336191594
-426.486169895947
-420.250322381704
-425.277839461877
-431.684059759035
-426.619395747816
-403.468083530732
-366.886190887405
-328.934288389891
-300.047621171999
-282.897483508114
-273.286851514945
-265.220480074981
-254.749530343424
-240.471567330745
-222.539293804959
-202.235596542409
-181.804220614518
-163.340612595894
-147.229295479619
-131.97480701116
-115.957941972842
-99.2465260464249
-83.3907886793394
-69.5571147525104
-57.3272638168139
-45.5201682189911
-33.810667160201
-23.0498851126166
-14.014758653557
-6.3331772337117
1.03599985538327
8.50055092475615
15.4596077943955
21.2836737328801
26.2786751451712
31.3553187660949
36.885679690756
42.275178844145
46.7823657307141
50.478225982303
54.1140951327691
58.1421075780844
62.2073109609317
65.7351632169872
68.7731153708604
71.9563422788132
75.6686342712105
79.5208616477775
82.8125230571703
85.34713811305
87.5595953179931
89.8645208808734
92.1379961408016
93.9992144008956
95.4602129440361
97.0419374986794
99.1929201767721
101.768072716719
104.222399560416
106.235127227643
107.961603799277
109.650152483331
111.192044769983
112.207476917304
112.525747952035
112.413364475816
112.271079782644
112.217557282744
112.081082357655
111.75277056479
111.40886462409
111.344399220643
111.694280810552
112.419124574122
113.519470494226
115.128940713517
117.346367006137
120.065172534162
123.066482150239
126.258303958327
129.724683575647
133.513090937524
137.463273739445
141.330310188349
145.035860384505
148.676858858705
152.23396812379
155.346688068771
157.480004256207
158.331573436257
158.029695307398
156.934574279782
155.334082915388
153.408877617888
151.4487595791
149.962702340699
149.469619623344
150.172692923143
151.86590443691
154.13996996926
156.634542961439
159.110117336139
161.385633819477
163.318601601519
164.863401577203
166.086656478824
167.078576191603
167.859246554758
168.381539680876
168.578852990558
168.346242193365
167.482325118415
165.738167054881
163.000086940178
159.414019852747
155.271662986687
150.761182548489
145.874156858633
140.571408349403
134.965229741205
129.243551065897
123.416431050348
117.240264553644
110.470742984453
103.148532390319
95.5328256826432
87.7295616598063
79.4745067803621
70.3678098876865
60.2938259557965
49.51950812512
38.3758163153032
26.9691258000997
15.3299994928904
3.81707429393305
-6.78507421031634
-15.6939027073067
-22.6566310668837
-28.0184300981465
-32.318479298956
-35.9328304761406
-39.1424810987287
-42.4101812579469
-46.3838981113232
-51.5312853330854
-57.8155215592598
-64.7882191195949
-71.9711011100979
-79.0936256803125
-86.0101590468016
-92.5444365913858
-98.5298731643771
-103.958673465676
-108.963602035215
-113.604921214262
-117.74439692576
-121.187839452033
-123.894075252892
-125.940957549079
-127.294019662249
-127.74891179945
-127.215259382832
-126.007844094592
-124.713998924156
-123.720729752196
-122.966487451384
-122.252032231737
-121.735965795286
-121.965498758086
-123.356685315701
-125.751818086549
-128.612835005069
-131.610566877654
-134.856351643068
-138.475236596403
-142.077660327802
-144.845010553129
-146.183956501447
-146.18898993733
-145.392546125228
-144.160278716911
-142.479797279686
-140.321761372449
-137.996728465413
-135.974397293704
-134.383238433384
-132.853204474737
-130.92292913517
-128.511751505559
-125.910868373638
-123.403649628283
-121.076457771999
-119.035618185579
-117.618922409594
-117.175561544129
-117.61634400844
-118.32389170257
-118.588125341382
-118.048964697386
-116.62825374299
-114.142076142122
-110.236396775123
-104.832752400213
-98.5000582394485
-92.1605251286933
-86.3760731073376
-81.0540931567895
-75.9226583267321
-71.1418506125835
-67.2332665299242
-64.4082109367171
-62.1970734316954
-59.9203172815109
-57.4313451953016
-55.1618524603753
-53.3793976303068
-51.6088588654091
-48.9993148811524
-45.2180219032276
-40.7668140450735
-36.3465129224451
-32.1058315761916
-27.7303421585828
-23.2014221716382
-19.1619080835101
-16.3402182136658
-14.7354061219558
-13.6092999915364
-12.3132384530804
-10.9258028881126
-9.95836357445279
-9.60554473778491
-9.56315312414227
-9.61086564507096
-10.0927866595387
-11.5610932072689
-13.9954420803016
-16.6232837848944
-18.6065067162482
-19.7341634042575
-20.2757077663552
-20.2851018243862
-19.3729155448435
-17.2934072824627
-14.5266783102973
-11.9692825469147
-10.0161522553213
-8.17431876487542
-5.71569696807281
-2.5474854823738
0.794218133690833
3.96014714461859
7.27761074797418
11.2296840905184
15.6206873009796
19.5910325257484
22.5449243669526
24.8274471338467
27.2725772458082
30.1923516781031
33.087847006976
35.3937923504913
37.2041668429282
38.9823974669667
40.6639388485139
41.4275999086189
40.5561064096948
38.3397766561155
35.8593160092503
33.905884909883
32.3960038150747
30.9580527423022
29.8052194195484
29.6470920370764
30.7199097411144
32.2592897504096
33.2109592017324
33.3433261305402
33.3586840538134
33.8813974053025
34.6565181623925
34.9898090325823
34.79217932276
34.7790759682031
35.5170356014568
36.5923065605309
37.0674015751967
36.6946678503659
36.3151493954523
36.8988082132863
38.4503612106564
40.1736877527259
41.6178067031026
43.2302689358289
45.5568329513789
48.1795238393536
49.8945241446091
50.0102440653771
49.1272741926503
48.3866915619429
48.1526418244703
47.8170596899836
46.9079638699892
45.9410014041902
45.8075708324245
46.490795603503
46.87105733696
45.9853194577589
44.1597155081474
42.5443335982849
41.6487196044684
40.7861417942992
39.1284187658074
36.9270729905945
35.2280243366122
34.431302557275
33.6429221159964
31.7724568982937
29.014398345332
26.7823869695131
26.1436099856487
26.7467150770971
27.5736912868028
28.4339127290408
30.1524902193165
33.1829376555195
36.5389460075204
38.5845121256923
38.7733506885188
38.128858650576
37.8640742183215
37.9569904321976
37.5150755252757
36.3471428966848
35.5312841924039
36.1239679896865
37.7051912973931
38.7626778631513
38.5092789397433
37.7886781044194
37.8834070808125
38.8078647901972
39.3576524731576
38.8305286638779
38.0574102806082
38.2722418932201
39.2816330027894
39.4392526968069
37.5948128157181
34.517279400232
31.8917946491651
30.1675408373687
28.0935587745393
24.5714160105876
20.3399044769045
17.1623510905806
15.5097695557458
13.8397171734214
10.5634968802565
6.2195693753332
2.98041368322828
2.05533954252431
2.34370058268167
2.09201596701733
1.33536327569622
1.81551216495349
4.40588039921718
7.47958626016381
8.54472521222478
7.17664350798589
5.45634486941688
5.30127666385181
6.15617373934226
6.06864334828734
4.6815395257366
4.05339042342329
6.05288541059362
9.71503226068391
12.1821580765097
12.1854448024831
11.5530921652263
12.6887598064472
15.280420329213
16.6323670042343
15.2701433044879
13.0082168986158
12.5359593032324
13.5456139272465
12.6264250592882
7.40025585183945
-0.309635632076422
-6.52295840215952
-9.93736475965081
-13.3629061257587
-19.8360626475843
-28.4733663660347
-35.6537344564032
-40.2240867494203
-45.9461349002246
-57.6644848794461
-75.7245785639287
-95.5940452774885
-113.099888900744
-128.53048140554
-144.414514457659
-160.129844078529
-170.700956294472
-171.62005173116
-163.54325301153
-150.930983022071
-136.863116500404
-121.211097162035
-103.995786975409
-87.2610686042871
-69.6151910726304
-38.278544876357
29.7387865611573
153.612115410693
333.123868318898
546.619187756787
763.98899916
960.479339396078
1118.2871454415
1219.60723309949
1245.96466323699
1189.50028429246
1063.48319421499
896.061045754527
709.83440771549
508.740300896951
288.219699255091
58.2209464372087
-148.513490932845
-296.307727311055
-376.515963116777
-416.153761718884
-454.737462484256
-511.772946169363
-576.134732251716
-624.457620819501
-646.169917712549
-649.609917577181
-647.371200267296
-641.030456028332
-622.32803308555
-586.761588356407
-542.331120210377
-504.148992447217
-482.381916337771
-476.394117536579
-478.404356104361
-479.626679194048
-472.738198458687
-452.336161166302
-417.544795162961
-375.225030780015
-337.862078403003
-314.972531604396
-305.483080427825
-299.308844029259
-286.978562867745
-267.400995011513
-246.292423893589
-228.435904611264
-213.095970786196
-196.846585324256
-178.856757722893
-161.675353823467
-147.276367259203
-134.251356754611
-119.925152658996
-104.292996600356
-90.3308387951568
-80.2257004834074
-72.5116970867897
-63.8332328181052
-52.9776360245003
-41.9952339784391
-33.1838331514105
-26.0629022773232
-18.2366233671532
-8.787992305134
0.406333171561485
7.15452121551654
11.8981699035299
17.2695692007338
24.9032695548815
33.6657207197674
41.4629204868438
48.0690794900056
55.2251596140022
64.0086879381121
73.09504765806
80.2730760482526
85.2253828276107
89.9238001489312
96.1409029226877
103.318031687574
109.47386884862
113.824461848968
117.630571715278
122.237094454659
126.99546404782
129.866121483823
129.936783608012
128.593699847074
127.870058834511
128.138789816285
128.055718288923
126.646698195477
124.701333925968
123.699789569412
123.814965521335
123.692118324871
122.279672255907
120.271845542843
119.287607074277
119.908646156488
121.132464542813
121.846840076396
122.271776398201
123.460376946924
125.615095913073
127.560052526021
128.134018964687
127.682111045879
127.674893654278
128.939512122607
130.778144395118
132.038584589444
132.641233528609
133.540433151952
135.240952420145
136.916848891048
137.354701245236
136.50646673866
135.627073891199
135.825611133223
136.899156315283
137.880956095411
138.463652707374
139.375606142698
141.268582413467
143.686231734624
145.549990818993
146.545672395249
147.579998372174
149.699228662567
152.870484511467
156.163582249084
158.99935748453
161.760424458697
164.983703319
168.292069287108
170.576634852395
171.257271595104
170.986423520419
170.863691142795
171.156690093213
171.133023676705
170.125411822321
168.362198154904
166.480987587375
164.44356235718
161.373558923066
156.596277557221
150.54540084976
144.35459020416
138.651509806089
133.068355419178
126.995424273375
120.481312633932
114.069033710887
107.850500694743
101.094722955575
93.0320387410582
83.8120788076176
74.3914684922862
65.4895739757749
56.9371387918946
48.1792344542448
39.1617204265551
30.3730507055429
22.0102917017391
13.4601903958742
3.8899138470854
-6.74301471676399
-17.5452540175894
-27.5989958234202
-36.7839176527435
-45.5283353681141
-53.9313416613489
-61.4893812132262
-67.7977527965755
-73.2553612918892
-78.7689459033762
-84.7658238110159
-90.7413667385437
-95.8885798699076
-99.9887202420876
-103.46992200612
-106.67644925548
-109.403493890849
-111.324940026748
-112.693379810732
-114.307693413799
-116.721335962773
-119.682697599902
-122.504511621968
-124.859892545296
-126.992557267262
-129.156205561961
-131.127728095564
-132.495970600418
-133.330596573443
-134.278729207654
-135.878112982394
-137.926974683672
-139.707119428208
-140.768787679478
-141.286322848089
-141.5921004252
-141.583301144494
-140.83290759578
-139.260233701915
-137.438405088478
-136.071802753659
-135.262521237578
-134.472581395818
-133.208630109753
-131.563160033561
-129.983872769128
-128.658358262009
-127.352976297097
-125.87927774215
-124.502609842484
-123.693490325069
-123.507898877264
-123.378922301015
-122.57415372636
-120.748147555106
-117.973920487285
-114.370808482737
-109.937704548042
-104.817630641646
-99.5431313756829
-94.8002395204566
-90.9155962211125
-87.6847361682509
-84.7366734922929
-81.9423831608305
-79.3635041479799
-76.9149443376031
-74.3362119211811
-71.6238951368044
-69.3592201525077
-68.381413418059
-69.0596297129892
-70.9708664873316
-73.3352212349069
-75.6419909097261
-77.7012176524436
-79.1438453182064
-79.1494292675155
-76.9078612739087
-72.3536192131372
-66.2947569946642
-59.7489951312696
-53.2382888580191
-46.8067097763644
-40.6154483097792
-35.286987642866
-31.5455137784778
-29.6114874854169
-29.0959809833207
-29.4857628722279
-30.5848946146329
-32.3866584687888
-34.599379434306
-36.4691990241802
-37.1447992984799
-36.1726485646199
-33.6150445680747
-29.7899094087963
-25.0430775254675
-19.7961354232289
-14.6711068250976
-10.3856190741145
-7.43783559378072
-5.88730889737361
-5.42167248476049
-5.57790073850887
-5.88827931084319
-5.91512184754066
-5.30278972762801
-3.89138347662021
-1.77371896721627
0.797012965964541
3.5639780621882
6.33978736874013
8.98537556586501
11.4049574479488
13.5897288092376
15.6035416209112
17.4502476570427
18.957759328991
19.8582943918817
20.0188252341039
19.5635569987283
18.747150692773
17.7604740484305
16.7397788845815
15.9528578365888
15.8430584694993
16.756012811937
18.6108097042363
20.9267022085732
23.2307921376821
25.4125047957355
27.65460773977
30.0939772465286
32.6766537142667
35.3675509286837
38.3653103440211
41.9462261595017
46.0641576186226
50.1961301456726
53.6516945370352
56.0064937063905
57.2053734910652
57.3394002337876
56.499297012027
54.9147013786875
53.1028319845252
51.6789219825597
50.947082737245
50.7439050478817
50.7246110028423
50.7198930644014
50.7240975049762
50.6137400978169
50.0954552419605
49.0572043800258
47.8665721761595
47.1245522584833
47.0696957790638
47.3407728238853
47.4059417849672
47.1211730238854
46.7112388888945
46.2412479759976
45.3535863781106
43.7061941549226
41.5697146259279
39.7398985422249
38.7681057822601
38.4308852613115
38.1060240498794
37.5726851787653
37.2075863049795
37.3570626158768
37.7770131877851
37.9508572434918
37.8908087857615
38.3084691521335
39.8236335369399
42.1739746735121
44.4534311399301
46.0938409632939
47.3287481569243
48.5689099496689
49.59296535745
49.7303874087713
48.8629597298787
47.8803644726793
47.8504678910178
48.8589951143149
49.9858594391189
50.455626444057
50.4651963732685
50.614676253382
50.7458559171453
49.8321417347574
47.1802556874787
43.3902609165929
39.7370946852705
36.6919506102834
33.4911915844214
29.3314140088836
24.6143824246405
20.5683427853839
17.7383240209193
15.4015148363314
12.7614520056554
10.3329638906989
9.55047052493634
10.9562253109998
13.3137715689889
14.8952091812042
15.3331371502907
15.6187920883519
16.2786020716691
16.2775719403659
14.3118411158038
10.8787765140926
8.23511165287988
8.00344307856025
9.40565598894587
10.4870184059745
10.7920166518296
11.8800746405966
14.8258981978637
18.0211076898363
18.527313800208
15.6194710465896
11.9269916907155
10.3121484483209
10.1761385188558
7.98035293194489
1.53507426168407
-7.43297105455511
-15.9546565879475
-24.3671155516248
-36.4930195343243
-54.6285979130667
-75.6625030445534
-93.9385610541906
-107.975357124404
-122.455110680489
-142.004734036104
-163.7106550086
-177.933330345402
-177.565035576435
-165.337727864922
-150.411883414817
-138.039155916292
-124.444535764768
-102.551805073126
-70.4056596833515
-30.3847447776706
20.9378567093544
99.0946084709751
223.095612244095
397.300718410703
601.334449937047
798.760630686375
956.672021940232
1058.66187726866
1102.71474587794
1091.66705414258
1028.6372055918
919.94327531151
777.666218135489
615.945299958902
445.119520168869
271.556519714788
103.215950455507
-47.644905701575
-170.443516116451
-265.238104765877
-343.493375493533
-417.876004840041
-491.114531555687
-555.503962213416
-602.654798698015
-631.778017786167
-647.539606164576
-651.609021424743
-639.456836540357
-607.03296543159
-559.510472340684
-511.396675868353
-477.055464444313
-461.141836169567
-457.756563859701
-457.276421946011
-452.886057432343
-441.768609942087
-423.189191400672
-397.888824033804
-369.016944028233
-341.398027993864
-318.254165971544
-298.86778723956
-280.352094584758
-261.611756415536
-244.537087031045
-230.887997751171
-218.98833130375
-204.815171773405
-186.500693566606
-166.740793588712
-150.002246564405
-137.782718009741
-127.488421974597
-115.932747012585
-102.894085649796
-90.5258573623019
-79.9051946162147
-69.4584651777777
-57.2020893032037
-43.6396876602021
-31.4313581962397
-22.3090230622154
-15.2715832629495
-8.26968647276156
-0.977045587348222
5.03922415465954
8.84730683078481
11.888328853288
16.5545377980069
23.4600681098248
30.9480487119729
37.3873573113696
43.1841671180003
49.9347068463311
57.9936049927742
65.7730873927419
71.6873043551727
76.1016182073447
80.6743575901083
85.9866620461812
90.634346243591
92.9963431431173
93.3435091999565
93.5258241262167
94.6972061936921
96.1012984708106
96.4715147684479
96.0945707292238
96.715415085064
99.3558755277653
102.917674797392
105.437004135041
106.393609599051
107.124683886032
108.903580011386
111.275189235429
112.816526230719
113.231410209005
113.92714179682
116.258004146355
119.724426029946
122.48739292635
123.5338513737
123.711225758268
124.388520577829
125.611516144539
126.198833797044
125.576107076672
124.824940510424
125.489142000806
127.674539915064
129.921903245852
131.006257220808
131.321868329676
132.12079207877
133.720193049565
135.094421074929
135.351739569504
135.06497994704
135.641057501388
137.544070894617
139.709098398185
140.898422147469
141.201282776936
141.745764760996
143.102191630155
144.566348955415
145.262805449752
145.522161791764
146.612238040975
149.13330513096
152.215330703633
154.616458167466
156.294092949597
158.380590992495
161.608350075317
165.284587695146
168.172660243576
170.078187623732
171.974930057879
174.44026635124
176.452807878672
176.199287524841
172.947169302865
167.655404245503
161.632068779887
155.054151567864
147.264366737436
138.354172869273
129.816798827244
123.272891839491
118.815728418138
115.049632999871
110.731632052921
105.916869472724
101.249811909052
96.5028580616943
90.3981973447562
81.9838710435562
71.7534401760936
61.0408722258994
50.4887463355724
39.5667539389181
27.6910712956275
15.3958354148397
3.99934854905286
-5.76389138177466
-14.3354785566421
-22.43095985021
-29.9297361353436
-36.0769177854069
-40.7094732258062
-44.8232894730319
-49.673401345316
-55.5475903155926
-61.7642153731887
-67.7984295717742
-73.967223475124
-80.7657000538725
-87.8198423114606
-93.9658409158886
-98.4507761588933
-101.719168869681
-104.766906637081
-107.920153766242
-110.625273895211
-112.454829176595
-113.907227754434
-115.882820292785
-118.532340944018
-121.046243799988
-122.705863556597
-123.821503546525
-125.317515690318
-127.517176951303
-129.73494607181
-131.191955819737
-131.999149095097
-132.877832532301
-134.008251235573
-134.597082827279
-133.808110141166
-131.860477980382
-129.834144633114
-128.409692953462
-127.173439932695
-125.364793007032
-123.027834054215
-121.003858250558
-119.77022009357
-118.701508195897
-116.794985571254
-113.956550266281
-111.171307210452
-109.325255028783
-108.203885132178
-106.944156006888
-105.291407460476
-103.963688196946
-103.637283951097
-103.922160533799
-103.726763600348
-102.575352422392
-101.172427325164
-100.486869096809
-100.555578166638
-100.539942105357
-99.8907538524292
-99.0294969379611
-98.6448412091887
-98.5836751256544
-97.8669671173042
-95.8551666543687
-93.0445774208624
-90.4538649147275
-88.4154179743067
-86.3468759500112
-83.7448539398882
-81.0112819559877
-78.9716660004725
-77.7272024774871
-76.4022261502666
-74.1690366862336
-71.2284761718891
-68.4730551860117
-66.2966715878624
-64.1271346681574
-61.2718122402771
-57.9104109538638
-54.8876496244478
-52.5827913912911
-50.3808701033896
-47.4720853615618
-43.9320380916785
-40.6574983068848
-38.2503432896394
-36.3253707666348
-34.1274312843074
-31.5866149569039
-29.3744399771321
-27.894673154214
-26.5945012815522
-24.5596281372733
-21.6298559543952
-18.5632786288279
-16.0401398996796
-13.8353887796596
-11.2397160063439
-8.11683791928363
-5.13430092540887
-2.84166875712515
-0.854527010979609
1.71497537283881
5.11590748678191
8.61558509738643
11.4130763453991
13.5879577840051
15.8229753183076
18.3040131340565
20.3283270506728
21.2030926034307
21.2495727395062
21.5338100423716
22.6227666324777
23.9836130761026
24.814589442269
25.1956079260617
26.012839996889
27.7474240680518
29.7544460915484
31.0297002138463
31.4820366285054
32.033366333179
33.4023555480028
35.1662307127941
36.3254964352265
36.6053592009561
36.7623854867693
37.5055186265554
38.4911313652056
38.7411565562174
37.9197493415827
36.7581831828901
36.0724176006435
35.7117158762246
34.8578688527143
33.2583982040177
31.7088238306584
31.1182870641745
31.4211685602686
31.8129642324274
31.9829019089109
32.6370089554622
34.5522790357974
37.4204968325511
40.0799579624944
41.8830977531708
43.3853689346355
45.4154459546096
47.7725407813516
49.342192505679
49.5316338097198
49.1062564309223
49.2461981169419
50.0161852229595
50.2784939881726
49.1973310517818
47.3516744712559
45.9638113868758
45.2617672283564
44.1814514686298
41.846777278041
38.8670518449221
36.6877173659037
35.8132939551911
35.2535153797283
33.9366867637573
32.1976110137935
31.3234451725708
31.7446273711332
32.3173555941115
31.721871305722
30.1519346978425
29.0272399666534
29.081942315962
29.38718831191
28.6525321645859
27.082608662462
26.2610873537139
27.1454646321994
28.8276823926373
29.7531729338528
29.8046676222939
30.44479322721
32.6754786271556
35.5346090047531
37.198999503288
37.2814951078175
37.2488182109416
38.3548140692096
39.8445512118123
39.8939715062903
38.094979182081
36.1496150017624
35.7667110068423
36.525132945174
36.5871893251196
35.3371316975365
34.3558174217054
35.3041000442727
37.4886195665867
38.4471276060872
36.9027015481252
34.1791310265431
32.1354365441624
30.3842078953763
26.6590893369605
20.0139587192972
12.5747510872012
7.29277169553247
4.49044778886368
1.80020822445475
-2.29834774729737
-6.04373143159296
-6.48336483123251
-3.47421917126354
-0.196356503790582
0.752778075060448
0.621054285329492
2.65831302007518
7.44214546603912
11.6422687192259
12.1215314748542
10.0547933928934
9.42255567210701
11.6544209921812
13.6185141999229
11.9693038040402
8.20350653528484
7.29495988427462
11.0856772288826
15.0064368453301
12.9239883420233
4.26754148431371
-5.87359029874897
-14.0218933007349
-23.3225092941827
-39.3331074456058
-62.1515336540218
-86.0579086821407
-107.922614232971
-132.583043471874
-165.674940786296
-201.284710127045
-221.664629935764
-213.708534294677
-184.971609562014
-158.773310359953
-150.806038748958
-152.783733719155
-142.428206161304
-108.216138056282
-58.4501523062927
-2.31537908489771
73.9426065872476
203.024353317815
403.003887312251
649.220962764939
884.812707557281
1061.91638301102
1171.5310966237
1232.70817839099
1256.88974993099
1229.0245746485
1125.05054391376
942.948517829692
711.372451855709
468.608130793902
238.433499159127
28.4839981643049
-154.23869632696
-296.4371842132
-391.145371595359
-452.058021321637
-506.941920068416
-573.290135056029
-642.882755498503
-693.001146596074
-711.231008968306
-705.788927512498
-691.90182644255
-673.360692467349
-642.117342447965
-594.62738722074
-542.677715946625
-504.275071356613
-485.69764531034
-476.614445542039
-463.545238668523
-444.612616820757
-428.213507726338
-419.073279902146
-410.314795941702
-391.387069750723
-361.286622814763
-330.383787568299
-308.984899147305
-296.910898542419
-285.966352865869
-270.648603249443
-253.273754536486
-238.417135329316
-225.547916624939
-209.899472598968
-189.6963512701
-169.370886978772
-154.235545617677
-143.75998385395
-132.412125361048
-116.886539105275
-100.180021866377
-87.3322000686266
-78.6643185496091
-69.428951884615
-56.1418800364597
-41.133407405052
-29.4245321237847
-22.2103877683037
-15.5169881781132
-5.58330582001803
6.29348504312729
15.765943027834
21.4365859344367
26.8229303559832
35.7582811407219
47.3820795539815
57.2873045319795
63.1980102734186
67.6821368126458
74.4790259509139
83.4534907763723
90.8339982622214
94.2738047626904
95.9435250778723
99.6077804459892
105.643692888256
110.593672221983
111.763206368059
110.746470226176
111.300641699058
114.498461403293
117.5792337779
117.893638460742
116.588066055416
117.122568456865
120.63770624208
124.341073420012
125.038050931321
123.141127388842
121.939013045451
123.214131829409
125.051499862598
124.659461220513
122.343997296575
121.309191404101
123.551751339359
127.289253817814
129.292511949114
129.009771120997
129.07532726436
131.642156010417
135.469599632334
137.59195967976
137.26342047018
136.89470748193
138.759231802845
141.881595211687
143.251287614407
141.751139890692
139.620106132205
139.574927684994
141.447567028603
142.75469203614
142.332011217043
142.105500863769
144.601514284991
149.502141567709
153.838563607118
155.604890122304
156.074191791418
157.852405226539
161.339699244565
164.304073949048
165.062870153672
164.955057231768
166.756228604049
171.108669777475
175.688613636816
178.209919390759
179.299705992834
181.486937927714
185.71010522622
190.003903086772
192.077496736343
192.303607361446
193.104802383424
195.537574233631
197.623966414199
196.68636753343
192.652147990207
188.017903692564
184.571781935348
181.216598905167
175.716489818953
167.958706328605
160.326656650752
154.644592839653
149.731688718448
142.824935728006
133.038678078687
122.364593818894
112.980091826467
104.479790888459
94.6718556523053
82.8003438768256
70.8313100137997
61.0340170729084
53.0326689605948
44.2362709966344
33.1144329955557
21.0578310565037
10.4568490904978
1.6110461518262
-7.44152008219819
-18.0194062447913
-28.751899640977
-37.1613478219681
-42.8061308159857
-47.8395094015293
-54.2555100222352
-61.4491555012372
-67.2538730289841
-70.995673436647
-74.4765640802561
-79.6204547326763
-85.9812256251239
-91.4701806473618
-95.3266824801071
-99.3318912051427
-105.589399490354
-113.771161076116
-121.456613963678
-127.103016437021
-131.717235484849
-137.065014132868
-142.895106975058
-146.98127892343
-148.012854979052
-147.507437649754
-148.131816644694
-150.53222237639
-152.758035928807
-152.972757970444
-151.850146172503
-151.523404127704
-152.557470967472
-153.047402715489
-151.119249585513
-147.566520412324
-145.116801902678
-145.220297856206
-146.488428556529
-146.727342606505
-145.806287320649
-145.579776819609
-147.054476648253
-148.666773156215
-148.050431514626
-145.016766415835
-141.825689504668
-140.371704940986
-139.948494659816
-138.457266301855
-135.371453243808
-132.497640748277
-131.558102196157
-131.865745072125
-131.227058541531
-128.892808478509
-126.628788004194
-126.451041449634
-127.977890160224
-128.852110734836
-127.633254406123
-125.338118189436
-123.670792939032
-122.419320032976
-119.589841762648
-114.156545464829
-107.759587626443
-103.019601397275
-100.592906134875
-98.750884039979
-95.9300869902938
-92.8030814300776
-91.132452562779
-91.0197936283211
-90.3365165607607
-87.2149216084293
-82.3587632638733
-78.1056650924526
-75.4394734892879
-72.8536637712001
-68.5107471661967
-62.7824319710109
-57.7817445285208
-54.5367358889838
-51.623659293502
-47.1414940822038
-41.4306943818823
-36.8868939872367
-35.0309491892616
-34.6343854510029
-33.3284133359661
-30.5449036120395
-27.9168772872313
-26.6860578176689
-25.6759128455146
-22.6425937079742
-17.2863244956514
-11.9186919055666
-8.81404080352493
-7.6367880818899
-6.24390662194067
-3.71623489963346
-1.55778772068735
-1.48594995344081
-2.81783304090552
-3.03457534604689
-0.88074993027022
2.06697980268022
3.47128305889355
3.26892376603736
3.71030710161514
6.38805379534267
10.2013248516077
12.9341218847806
14.3036468551692
16.3637537816542
20.6664944366146
25.9361046804305
29.3994515410728
30.1129360540206
29.9772826222143
31.1623838741214
33.3776239561489
34.5768226008392
34.0771112724252
33.8262731190816
36.008913221469
40.0983795929654
43.2906319034889
43.8421103855555
42.9954347842777
43.0203219011585
44.0173560228734
43.7546244090814
40.7609794171502
36.534232611756
33.8487556382789
33.3154078050636
32.7189862432941
30.0507439326527
26.2916986774855
24.3090949986323
25.3229572950599
27.5708427685361
28.8649573977913
29.5835300628061
32.0888348988437
37.3405565597521
43.235343465619
46.9493470575021
48.2673461415284
49.5676450607149
52.5428063290252
56.0200900118876
57.7195175404597
57.4977667182388
57.6354935859601
59.7069124701816
62.2167240197996
62.2624111138334
59.1511436437018
55.2523493052494
52.9752317662052
51.8752261476051
49.7029656958404
45.9257161644495
42.9012138558241
42.9845833112849
45.330942682106
46.6976428034588
45.3317811502619
42.9249982509939
42.11889782042
42.9047966599536
42.7155040117358
40.0760046878577
36.8858777368143
36.1675967332045
38.1670114147332
39.9921106773197
39.3716442892388
37.6376747966343
37.9860083343373
41.2827163460987
44.9574943032011
46.4528967916023
46.6187638156203
48.4518454692624
52.7676401856031
56.5814992784925
56.5170678814827
52.9164880136625
49.2978919937524
47.8614156027309
46.9431106909261
43.7369899253107
38.5893508505777
35.0185463104156
35.2729913763429
37.2662601484483
37.0572937631731
33.7564556811782
30.4601915116883
29.9957456486091
31.1270323099687
30.2921975433213
26.5715670137785
23.1818652628164
23.3309754447831
25.8488027699707
26.509196766178
23.5053601268119
19.9198143515087
19.8318034685777
23.0970930319131
25.7052899612744
25.2932064862694
24.4434563831453
27.1637904769351
33.0115805656063
36.730876859786
34.2465215632359
27.4447138660327
21.5370184967189
18.4219409398
14.7651378134079
7.35970783757194
-1.37446565024514
-5.29558170932874
-1.71926988200838
5.36616155708249
10.2901180312142
12.4063484260577
15.7462374766454
22.2410140782422
27.8358101997944
27.0519511466944
20.0478958208437
12.4252082618255
7.5353778907354
1.50255589343143
-11.8463365396082
-32.2942601592683
-52.9118151022356
-69.7444742996263
-88.9641925198574
-120.264250947791
-162.374281012582
-198.474634378789
-209.574632348192
-192.678368450039
-163.542302337235
-140.682038576458
-128.503751219563
-117.52188053029
-98.5622202255257
-71.4913275338887
-37.2700642761026
15.6444110593181
111.150812854561
268.053724893818
482.190370362399
725.393506207318
959.708139817169
1151.19347890686
1274.1588164874
1312.04515852279
1263.15633380679
1145.98939984368
991.180798957491
820.170459167004
630.551596732136
407.073042387394
150.751319333865
-104.711353896959
-310.38616693577
-439.16303350301
-505.632187296787
-548.964260091329
-597.327451221629
-649.768646223643
-689.673092214673
-709.261767460024
-716.315118634902
-719.121646806584
-712.064888581762
-681.518047715384
-625.369796673844
-562.339524121722
-519.013642201378
-507.903714601482
-518.924107920626
-530.812298798729
-528.44227076085
-509.524673397894
-479.044253841979
-442.132373044357
-403.027141616041
-367.07182838771
-339.492186099201
-321.432165658186
-309.150172683817
-298.310355785546
-287.922583600756
-278.615436742307
-267.873989574066
-249.723184675394
-220.89163733955
-186.404248708036
-156.920535324758
-139.544702834375
-131.862848237888
-125.545851129525
-115.032268837449
-101.610745284026
-89.4543698805767
-79.6280412519658
-69.3691728175625
-56.4544302600698
-42.2760867240808
-29.781007351195
-19.5192427917695
-9.23067984162574
2.69880698413061
14.7685596226909
24.2187706354554
30.6758829952791
36.7406057465891
44.7955399066747
54.221910858978
62.4980057059232
68.4964910641573
73.5985704128547
79.371738173019
85.1447250788409
88.7939314755044
89.6570660780143
89.6647115079645
91.1899793756572
94.4274937280201
97.6223555984602
99.650810690021
101.454117435852
104.526200375374
108.638788420433
111.935482415861
113.290789932197
113.802022269745
115.449118623482
118.682613594878
122.036727372953
124.13910065322
125.389729934302
127.162382505251
129.743259015573
131.852308104861
132.400329756711
132.119982975614
132.873454568012
135.501679695265
138.95884325674
141.746523760303
143.684110588617
145.741735714874
148.321634852655
150.412582159097
150.801799475481
149.739850992201
148.83348270536
149.259402042031
150.548300687857
151.384438002295
151.250154183818
150.776147244688
150.508809819009
149.919808528613
148.07137721247
145.059913540607
142.292554795956
141.188164675267
141.933639481905
143.774744788132
146.266185843866
149.730901880947
154.3889894568
159.488864174132
163.759931840765
166.669588343814
168.832918281253
171.031268679944
173.139824211638
174.357867453122
174.369701450709
173.831554286756
173.532137621165
173.403860009697
172.778459227643
171.57798897139
170.806051772261
171.569676959981
173.802274581406
176.29570884575
177.981848293669
178.817618092059
179.205817458972
178.848867377407
176.679416357459
172.055282190542
165.675803995026
158.962425351177
152.58688100289
145.904309404558
137.885974050858
128.288039245335
117.628714793531
106.199950696844
93.5864393387135
79.4023459548532
64.2683850977813
49.6941827053827
36.9378988664997
26.1960232946472
16.9770110310808
8.97311727097799
2.22692091946072
-3.49856534748534
-9.08265897374088
-15.459613239269
-22.7567691263508
-30.2841438926701
-37.4123039821411
-44.2198869975536
-51.1325820755868
-58.1418990756772
-64.727429250047
-70.5916075230307
-76.1485678297729
-82.0042451103792
-88.0509673459443
-93.3957418370327
-97.2976077309631
-99.9645263196789
-102.225628260897
-104.553069094022
-106.7299486889
-108.552071358381
-110.526993057067
-113.512199357312
-117.670500209568
-122.107282904446
-125.746626476066
-128.424524965774
-130.890532357027
-133.797391813625
-137.012325563661
-140.080468557843
-143.103571371519
-146.746980118633
-151.274437489839
-155.853371762454
-159.091597511251
-160.222849544751
-159.564683649699
-157.833976234191
-155.328799709857
-152.020954717214
-148.278649628142
-145.066281746481
-143.201543424754
-142.56935800595
-142.308921200882
-141.749871457324
-140.938478584869
-140.195386410692
-139.442755082217
-138.278381628393
-136.664411418828
-135.185632009106
-134.390588676734
-134.014532753999
-133.130735991751
-131.099422888473
-128.133709763819
-124.801046352313
-121.185084527261
-116.867659444938
-111.753712322879
-106.569698877055
-102.246247501878
-98.8893898558562
-95.6694442055589
-91.8334235335873
-87.6070783041233
-83.8843914187607
-81.1536278330906
-79.0607655029717
-77.1237472179249
-75.5632345092303
-75.0576789014282
-75.6782889532088
-76.4014103387809
-75.9105638739994
-73.7664847675985
-70.5677892113034
-67.0276129332034
-63.2349918208677
-59.0125754762144
-54.7458982078757
-51.4104587488967
-49.6208411308726
-48.8923004124907
-48.1020599438362
-46.6169211064885
-44.720169287596
-42.9153424879254
-41.1406286926984
-38.9659844338791
-36.4436375863626
-34.3466478172337
-33.3364956767521
-33.0797635304039
-32.4899807296051
-30.8539406808926
-28.4655418908692
-26.0383054179582
-23.7487132727244
-21.1894431485479
-18.2324677257944
-15.5370841181569
-13.8916494570564
-13.1612318629743
-12.2144743440633
-9.9941152175865
-6.44788611155687
-2.24734127524217
2.19892798192571
7.07508609733774
12.4464264511071
17.5933942468049
21.4486633193765
23.6911755616851
25.0969204729528
26.6527233857807
28.5297237507348
30.1730861818821
31.2716131483916
32.2172529238642
33.4037714517401
34.3601631946497
34.0295887404441
32.0024731234981
29.1663567660537
26.8844282947588
25.679048885846
25.0406359179328
24.5234531582314
24.6140091900233
26.1749983435228
29.1851954750965
32.4898290777992
35.0002028110183
36.8725981145553
39.162895323128
42.3785923447404
45.7502698268202
48.102399074858
49.149776783385
49.5535806188618
49.7547964673153
49.2237478192987
47.1861618012397
43.8874078044442
40.6931959036853
38.8154374319113
38.2322865579446
38.0982929736234
37.992321239898
38.315399328758
39.3817266290264
40.5658637970513
40.8146847328529
39.9596685305144
39.0936537678288
39.4236317491975
40.9956727235443
42.8680498022234
44.4135016927019
45.9667446156314
47.9627981677467
49.8087479288693
50.1696003502653
48.4783979723422
45.7616020672594
43.6413608327544
42.7014605209576
42.2350731776532
41.5923976728423
41.2560953528079
42.1655749343738
44.1985246433968
45.9294756415563
46.1509600021475
45.2702617945425
44.7487852016079
45.2483673007989
45.8458990252734
45.3062572334539
43.7148916569116
42.3022802425674
41.7022242950984
41.0147258273225
39.0339505564147
36.1139596843423
34.1854723052206
34.7542737481812
37.3372952556809
40.2702403967791
42.7755755040374
45.5770620719685
49.3116529571557
52.959679669187
54.5518715052762
53.4036327602584
51.0131356051462
49.3840948834621
48.8421036249961
48.0733810322452
46.2159117143694
44.1579124890881
43.2895556645968
43.4017190107342
42.6520108245243
39.8192359978402
35.9592632829007
33.2259846784472
32.2894912336036
31.6668548943809
29.8161069976136
27.200444051553
25.5425326753192
25.2409117669357
24.4807687799658
21.4379833320696
16.8274148661906
13.3856199200684
12.7614289327509
13.7282329046249
14.0218405609457
13.3906460865483
13.7841380294245
16.3309609109639
19.1041355490911
18.848143221338
14.7134261458119
9.25192017655492
5.29280385214246
2.64197839208597
-1.13162384830824
-6.84192348443644
-11.8679526511869
-12.9201423578709
-9.92411372718936
-5.96909072157318
-3.36369111577159
-1.02440923338866
3.2679482270257
8.75838851336241
11.4912735079744
8.65935617242125
1.85383848948109
-5.4307071817864
-13.0443826823689
-24.9475692089271
-43.7344260382653
-65.9107096368732
-85.1580527452537
-100.854321971464
-120.974444327687
-153.531623276375
-194.514047881392
-226.433624653891
-231.378942129756
-206.455618287412
-166.10421320631
-129.372220284835
-105.452578123748
-90.6322548603485
-75.5773212995639
-51.2357576908347
-6.74825490606128
74.1581191457676
208.136374127869
399.089910269071
629.076283012466
863.066245599492
1063.69477274614
1203.45720936596
1267.59809160485
1252.31404181672
1164.89316626836
1023.89480752835
852.350055432706
664.843350195013
460.971457459242
235.587572649561
-1.57531605369363
-218.325803316418
-377.070892715299
-463.542083222932
-499.363210422066
-524.599040376483
-565.944399278727
-620.024026242285
-664.832378612805
-684.028740294815
-678.915822269608
-659.955037840395
-632.417361603594
-594.042855067897
-545.409473311668
-498.012719505362
-468.638186504274
-465.421390137535
-480.5224484038
-496.53018831764
-499.156288623351
-484.177393702519
-455.054451927533
-417.384451827229
-376.575751441203
-338.353542179558
-308.022954767891
-287.762918495398
-275.454656150901
-267.131450739131
-260.206045319931
-253.485947572931
-244.572166146502
-229.271179074439
-205.221251165212
-175.828756565375
-148.996318298901
-130.776670693768
-120.342860907443
-111.642719081124
-99.7389152750414
-84.8714085099156
-70.4619637260789
-58.4144664748474
-47.5104894672332
-36.0791739240397
-24.7576573916268
-15.6664773983483
-9.42499784318353
-4.1980651256355
1.98827059960799
8.86169714772569
14.6454203411383
18.8539515259001
23.3209978009643
30.0219929754915
38.5337475591582
46.4765935968481
52.3916124148502
57.3631825646042
63.3857442799351
70.7095544526095
77.6339934993277
82.9170000967966
87.5288430408519
93.3832905642934
100.675483196174
107.292489187448
111.085860156311
112.141761201766
112.276612238032
112.602814425223
112.396008499508
110.628861747311
107.980073717722
106.550927696541
107.588934168664
110.138962453372
112.316904584941
113.518230284985
114.775001292901
117.001251750354
119.605460587967
121.323612347216
122.075572683736
123.270832977015
126.079158771265
129.908966969373
133.072825484803
134.745465273085
135.664122133559
136.75192923681
137.620504460579
137.028078385
134.698385194531
132.028108248905
130.648753826516
130.663071528318
130.846187427643
130.535385009347
130.708432423222
132.816178012897
136.899523031725
141.473256686474
145.32976463584
148.868259972093
153.164080419826
157.986992430022
161.427102464336
161.7554969318
159.252945154269
155.752809202404
152.55753015608
149.420822057197
145.813301831271
142.652961580283
142.052077488227
145.226351932512
151.147394223296
157.631163253887
163.50090453021
169.186448548494
175.220197430338
180.788828879618
184.313671583883
185.28583183058
184.90866671979
184.661323576958
184.602101854788
183.538610910038
180.748002407742
176.96493625373
173.403045541265
170.188867362906
166.309366630159
161.105106846829
155.267388467622
149.965822159095
145.232500561488
139.737811161997
132.282997283706
123.104026252629
113.361495892222
103.583440674083
93.1622512108976
81.5443723521409
69.4596262304002
58.4608253411992
49.2790170013088
41.0850716156872
32.5924560404707
23.5664888218149
14.8326901571267
6.89085433872746
-0.938244178933329
-9.66882663147103
-19.2436219990653
-28.4720940840946
-36.4475725543943
-43.617320858322
-51.1266436673463
-59.3132356092619
-67.3109401284533
-74.2234332779081
-80.256697479399
-86.2975482048368
-92.5365975108221
-98.0305590412063
-101.85136549211
-104.34051745518
-106.813364903721
-110.078890091979
-113.680635360224
-116.787587471196
-119.475532199836
-122.649658796659
-126.714089150351
-130.814368343083
-133.755123998462
-135.466664244404
-137.119155551848
-139.714697546295
-142.960380543341
-145.838110600921
-148.047298511875
-150.361615620299
-153.411890383899
-156.536985057675
-158.303897718288
-158.118239384101
-156.890577010202
-155.918428773967
-155.43218681141
-154.642660088513
-153.125093330784
-151.626935875942
-151.187446284446
-151.729320099595
-152.014161411019
-151.077566578959
-149.320493596964
-147.883425990461
-147.164632755587
-146.41836943546
-144.892462096306
-142.919694631281
-141.472515035003
-140.77429303868
-139.84385899859
-137.623281096393
-134.237351910229
-130.753788612668
-127.792186961244
-124.833646673665
-121.116539781377
-116.866473146835
-113.160729177382
-110.57339538742
-108.418664636983
-105.651911610251
-102.282151540185
-99.4317392004147
-97.9356366400175
-97.2984037415338
-96.3630142353378
