Value(μV)
24.9870281219482
22.9842510223389
35.4777679443359
22.9842510223389
7.24814605712891
-15.0685138702393
-32.9027671813965
-39.3879508972168
-49.0203552246094
-54.3610954284668
-59.2249794006348
-70.0018310546875
-72.6721954345703
-76.6777496337891
-82.876823425293
-92.7953414916992
-98.899040222168
-111.583297729492
-120.548110961914
-119.499038696289
-121.215698242188
-122.074035644531
-118.068481445313
-120.643478393555
-131.229583740234
-140.099029541016
-148.300872802734
-157.074951171875
-156.02587890625
-152.306427001953
-153.260131835938
-147.824020385742
-148.586990356445
-148.205505371094
-148.873107910156
-147.919403076172
-143.913848876953
-147.251800537109
-151.73420715332
-157.456436157227
-161.461990356445
-161.366607666016
-158.1240234375
-158.505508422852
-142.864776611328
-138.382369995117
-142.387924194336
-139.049957275391
-134.853652954102
-142.006439208984
-141.815689086914
-134.376815795898
-129.703659057617
-119.785148620605
-119.403663635254
-116.542556762695
-133.899963378906
-124.458290100098
-109.675888061523
-112.060150146484
-120.643478393555
-114.539779663086
-107.673110961914
-108.531448364258
-107.95922088623
-107.577743530273
-103.095336914063
-91.9370040893555
-88.3129348754883
-105.574966430664
-103.381446838379
-95.751823425293
-90.8879318237305
-89.6481170654297
-90.9833068847656
-87.1684875488281
-78.2990493774414
-81.3508987426758
-72.4814605712891
-59.701831817627
-51.404613494873
-49.8786888122559
-50.4509086608887
-53.0259094238281
-57.6990547180176
-61.1323890686035
-52.6444282531738
-45.4916534423828
-35.2870254516602
-35.7638778686523
-33.761100769043
-27.0851764678955
-40.6277656555176
-44.4425773620605
-45.3962821960449
-34.7148017883301
-28.0388793945313
-24.4148063659668
-21.1722145080566
-11.7305517196655
-1.33518481254578
-8.48795986175537
-13.256477355957
-15.35462474823
-18.5972156524658
-19.9324016571045
-9.9185152053833
-1.43055510520935
3.05185079574585
4.95925760269165
7.34351634979248
2.38425850868225
-0.0953703373670578
-5.81759071350098
-11.0629596710205
-17.4527721405029
-13.6379585266113
-13.0657367706299
-2.00277709960938
8.58333015441895
13.6379585266113
8.20184898376465
10.5861072540283
12.588885307312
7.72499752044678
7.15277528762817
11.8259220123291
22.2212886810303
31.6629524230957
43.4888763427734
49.783317565918
42.2490615844727
36.8129501342773
31.6629524230957
26.7990646362305
25.4638805389404
24.7962875366211
26.7036952972412
34.0472106933594
37.7666549682617
36.2407302856445
35.0009155273438
33.2842483520508
25.3685111999512
37.099063873291
32.4259147644043
37.2898025512695
40.2462844848633
43.4888763427734
61.99072265625
66.6638641357422
64.8518295288086
58.5573883056641
50.9277610778809
42.5351715087891
45.1101722717285
43.7749862670898
37.5759124755859
40.5323944091797
49.1157264709473
52.453685760498
52.5490570068359
49.2110939025879
50.6416511535645
56.7453536987305
55.0286865234375
49.4972076416016
44.5379486083984
37.2898025512695
28.8018417358398
27.943510055542
38.2435073852539
49.6879463195801
49.2110939025879
42.1536903381348
37.8620262145996
34.2379531860352
37.7666549682617
42.1536903381348
48.3527641296387
48.9249839782715
51.9768333435059
52.1675758361816
50.2601699829102
34.7148017883301
39.4833221435547
33.4749908447266
31.2814712524414
33.761100769043
32.6166572570801
36.5268402099609
47.3990592956543
43.7749862670898
36.1453590393066
38.3388748168945
36.1453590393066
28.1342506408691
23.6518440246582
25.2731399536133
33.2842483520508
28.0388793945313
14.5916624069214
13.6379585266113
22.2212886810303
38.0527648925781
47.4944305419922
45.3962821960449
44.251838684082
45.0148010253906
47.7805404663086
49.6879463195801
49.9740562438965
59.7972030639648
71.8138656616211
69.2388687133789
54.4564628601074
44.0610961914063
40.3416519165039
35.5731353759766
37.7666549682617
36.7175827026367
23.7472152709961
21.4583263397217
27.7527694702148
19.5509204864502
0.572222054004669
0
6.58055353164673
5.34073925018311
0.858333051204681
1.9074068069458
2.8611102104187
4.38703584671021
8.67870044708252
3.8148136138916
9.72777462005615
17.1666603088379
23.4611034393311
24.5101776123047
18.8833274841309
17.5481433868408
17.4527721405029
25.4638805389404
28.1342506408691
30.8046188354492
27.0851764678955
18.5972156524658
14.4009208679199
15.35462474823
9.06018257141113
-4.00555419921875
-5.05462789535522
-13.8286991119385
-14.3055505752563
-6.29444265365601
0.286111027002335
-5.81759071350098
-5.62685012817383
-14.1148099899292
-16.30832862854
-14.9731435775757
-40.4370231628418
-58.5573883056641
-91.1740417480469
-86.0240478515625
-125.221252441406
-159.173095703125
-220.496231079102
-203.424942016602
-210.386962890625
-218.302703857422
-187.211975097656
-102.713859558105
-106.433296203613
-99.0897827148438
-99.5666351318359
-105.098114013672
-85.9286727905273
-18.0249938964844
45.300910949707
96.0379333496094
236.899917602539
485.14892578125
748.371032714844
990.611694335938
1305.61999511719
1246.58569335938
1273.6708984375
1278.439453125
1155.50708007813
932.626525878906
736.545104980469
557.058166503906
219.92399597168
-75.247200012207
-143.627731323242
-355.540618896484
-446.428558349609
-479.617431640625
-511.852600097656
-532.738708496094
-564.115539550781
-574.224792480469
-629.062744140625
-685.331237792969
-717.661804199219
-713.274780273438
-670.453491210938
-608.176635742188
-537.602600097656
-470.461883544922
-448.526702880859
-452.341522216797
-471.415588378906
-497.165588378906
-517.193359375
-512.7109375
-464.072082519531
-410.664672851563
-343.428588867188
-288.39990234375
-255.306396484375
-246.150848388672
-251.682327270508
-261.219360351563
-269.707305908203
-268.467498779297
-246.532333374023
-216.109191894531
-172.143463134766
-130.561996459961
-109.866630554199
-94.5120086669922
-76.296272277832
-82.4953460693359
-90.8879318237305
-94.9888610839844
-92.318489074707
-80.778678894043
-58.2712783813477
-29.0879535675049
-7.15277528762817
6.29444265365601
10.204626083374
6.96203470230103
1.52592539787292
5.53147983551025
10.9675893783569
18.9786968231201
35.0009155273438
48.734245300293
59.701831817627
63.1351661682129
63.039794921875
69.2388687133789
75.8194198608398
78.394416809082
75.3425674438477
79.9203414916992
90.5064544677734
98.3268203735352
98.8036727905273
94.1305236816406
96.7055282592773
108.722190856934
112.823112487793
121.024963378906
126.07958984375
121.69255065918
113.299964904785
109.580520629883
108.912925720215
107.387001037598
111.201812744141
124.458290100098
136.570327758789
126.461067199707
126.556442260742
133.041625976563
131.897186279297
118.926811218262
111.487930297852
109.389778137207
107.577743530273
118.259223937988
132.46940612793
137.714767456055
143.913848876953
149.159210205078
141.243469238281
127.033294677734
122.550888061523
121.597183227539
114.921257019043
125.125885009766
140.099029541016
155.167541503906
169.091613769531
165.181427001953
156.979583740234
139.240692138672
124.553665161133
119.022186279297
119.880516052246
123.886070251465
135.139770507813
159.840682983398
176.244384765625
176.149017333984
167.279571533203
168.042541503906
169.282348632813
150.303649902344
148.491622924805
149.922180175781
179.963836669922
189.786972045898
199.896224975586
212.771224975586
213.438827514648
206.572158813477
190.549942016602
166.802719116211
153.546249389648
154.595321655273
162.797164916992
171.094390869141
178.628646850586
184.255493164063
177.579574584961
166.516616821289
158.696243286133
140.194396972656
119.403663635254
107.768486022949
101.37866973877
100.711082458496
99.7573776245117
94.03515625
85.7379379272461
76.7731246948242
55.887020111084
39.197208404541
29.8509159088135
19.6462898254395
4.67314672470093
2.1935179233551
4.7685170173645
11.1583299636841
12.302773475647
-2.1935179233551
-12.3981437683105
-30.8046188354492
-53.3120193481445
-69.0481262207031
-68.4759063720703
-70.1925735473633
-71.2416458129883
-73.6259002685547
-77.7268295288086
-91.3647842407227
-82.3999710083008
-99.0897827148438
-109.580520629883
-124.744407653809
-123.886070251465
-120.357368469238
-123.599960327148
-122.83699798584
-123.886070251465
-120.166625976563
-119.68977355957
-130.46662902832
-137.619400024414
-145.725875854492
-148.205505371094
-145.821243286133
-139.145324707031
-137.428665161133
-138.668472290039
-146.774948120117
-144.772171020508
-140.480514526367
-148.586990356445
-150.208282470703
-144.772171020508
-140.289764404297
-135.139770507813
-130.657363891602
-134.090698242188
-143.818466186523
-149.731430053711
-155.167541503906
-157.074951171875
-155.549026489258
-138.85920715332
-134.281433105469
-139.908294677734
-145.43977355957
-141.624954223633
-132.946258544922
-129.799026489258
-133.899963378906
-136.093475341797
-127.414772033691
-119.785148620605
-119.975891113281
-114.921257019043
-104.812004089355
-100.52033996582
-98.6129302978516
-90.6971969604492
-83.6397857666016
-69.9064559936523
-65.9962768554688
-70.2879409790039
-59.8925743103027
-58.4620170593262
-58.2712783813477
-70.4786834716797
-74.198127746582
-74.9610900878906
-72.5768280029297
-64.8518295288086
-61.8953514099121
-60.3694267272949
-58.0805358886719
-60.3694267272949
-62.3722038269043
-63.3259048461914
-62.3722038269043
-58.9388694763184
-53.3120193481445
-46.1592445373535
-45.1101722717285
-37.1944313049316
-34.4286918640137
-35.4777679443359
-31.0907306671143
-24.6055469512939
-18.787956237793
-33.1888771057129
-29.3740653991699
-30.3277683258057
-17.4527721405029
-12.302773475647
-14.687032699585
-14.5916624069214
-14.687032699585
-15.0685138702393
-13.7333288192749
-24.9870281219482
-22.125919342041
-4.29166507720947
7.43888664245605
8.48795986175537
5.1499981880188
-15.7361059188843
-12.9703664779663
-13.4472179412842
-4.29166507720947
0
3.24259161949158
9.15555286407471
25.8453617095947
20.6953639984131
13.1611070632935
14.4962921142578
12.9703664779663
14.1148099899292
7.43888664245605
10.6814785003662
18.0249938964844
18.0249938964844
19.9324016571045
24.6055469512939
32.1398048400879
35.0009155273438
37.4805450439453
37.2898025512695
34.810173034668
37.3851737976074
29.3740653991699
20.1231422424316
29.5648059844971
43.9657249450684
43.3935050964355
41.6768379211426
38.0527648925781
28.9925842285156
30.3277683258057
34.4286918640137
29.1833248138428
30.70924949646
30.70924949646
56.6499824523926
60.0833129882813
60.4647941589355
59.5110931396484
61.4184989929199
59.5110931396484
49.8786888122559
46.1592445373535
50.7370223999023
49.4018363952637
48.734245300293
49.783317565918
56.936092376709
59.2249794006348
65.137939453125
64.0888671875
51.2138710021973
44.251838684082
39.197208404541
37.7666549682617
35.2870254516602
41.0092468261719
47.017578125
44.0610961914063
40.5323944091797
41.1046180725098
39.0064697265625
38.5296173095703
31.9490642547607
22.125919342041
25.8453617095947
34.6194343566895
35.7638778686523
38.6249885559082
42.0583190917969
42.0583190917969
32.7120246887207
26.9898052215576
28.9925842285156
29.278694152832
22.8888816833496
20.5999927520752
23.5564746856689
23.7472152709961
23.3657341003418
22.7935104370117
13.9240694046021
11.5398111343384
20.3138828277588
19.8370304107666
17.8342533111572
35.8592491149902
44.7286911010742
51.7860946655273
52.453685760498
46.6360969543457
48.6388740539551
52.8351669311523
54.6472053527832
55.1240577697754
45.9685020446777
35.0009155273438
34.5240631103516
37.6712837219238
42.0583190917969
51.1185035705566
52.453685760498
46.2546157836914
46.0638732910156
46.7314682006836
44.0610961914063
39.7694320678711
37.8620262145996
28.5157318115234
27.943510055542
28.3249912261963
22.7935104370117
8.67870044708252
14.5916624069214
11.9212923049927
7.34351634979248
5.91296100616455
10.204626083374
4.48240613937378
5.81759071350098
7.82036781311035
17.2620315551758
13.8286991119385
2.5749990940094
-0.286111027002335
10.6814785003662
8.48795986175537
11.7305517196655
17.2620315551758
16.2129573822021
7.82036781311035
7.43888664245605
3.147221326828
15.2592544555664
13.4472179412842
8.86944198608398
0.47685170173645
2.28888821601868
0.190740674734116
-2.67036962509155
-5.1499981880188
-27.4666576385498
-23.4611034393311
-35.4777679443359
-58.5573883056641
-91.269416809082
-123.886070251465
-156.979583740234
-183.111053466797
-224.120300292969
-212.961975097656
-204.760116577148
-159.363830566406
-127.033294677734
-121.311073303223
-119.785148620605
-125.411994934082
-123.313850402832
-72.4814605712891
0.190740674734116
43.5842437744141
134.758285522461
351.916564941406
618.572021484375
875.881225585938
1292.26806640625
1215.01818847656
1248.4931640625
1270.23754882813
1202.23852539063
1011.59320068359
822.66455078125
651.37939453125
325.498962402344
207.621231079102
-58.5573883056641
-289.448974609375
-422.967468261719
-457.30078125
-475.230407714844
-503.078552246094
-564.115539550781
-569.837768554688
-621.71923828125
-680.562744140625
-729.487731933594
-733.970153808594
-692.960876464844
-617.618347167969
-545.04150390625
-475.039672851563
-439.657257080078
-436.033203125
-454.439666748047
-477.805389404297
-495.735015869141
-497.165588378906
-474.3720703125
-420.678558349609
-356.398956298828
-299.462860107422
-261.791595458984
-264.557312011719
-275.81103515625
-282.10546875
-287.255462646484
-294.6943359375
-275.048065185547
-237.18603515625
-196.749008178711
-166.421249389648
-132.56477355957
-110.915702819824
-109.675888061523
-115.779594421387
-113.681442260742
-111.487930297852
-99.4712677001953
-86.5009002685547
-69.6203460693359
-45.2055397033691
-19.8370304107666
-8.20184898376465
-6.86666440963745
-9.25092315673828
-3.91018390655518
6.29444265365601
14.5916624069214
25.8453617095947
33.6657295227051
46.9222068786621
55.5055389404297
66.3777542114258
71.4323883056641
79.1573791503906
82.7814559936523
88.3129348754883
93.1768188476563
87.9314498901367
88.1221923828125
88.1221923828125
85.6425628662109
90.7925643920898
101.474044799805
98.9944152832031
102.713859558105
122.074035644531
130.085144042969
128.940704345703
131.611068725586
127.319404602051
113.872184753418
107.86385345459
115.302742004395
111.678665161133
123.599960327148
135.425888061523
140.194396972656
138.477737426758
131.134216308594
119.785148620605
112.346260070801
105.193481445313
95.084228515625
107.95922088623
123.886070251465
127.700881958008
131.706436157227
134.56755065918
137.714767456055
127.414772033691
116.733299255371
112.727745056152
121.69255065918
133.423110961914
145.725875854492
165.849014282227
180.917541503906
186.735122680664
184.732345581055
169.186981201172
152.783279418945
144.390701293945
140.671249389648
145.153656005859
162.129577636719
178.437911987305
185.590682983398
187.593460083008
186.067535400391
166.325866699219
145.630508422852
130.37126159668
138.85920715332
145.344390869141
146.298095703125
163.560134887695
178.437911987305
188.451797485352
198.75178527832
205.904556274414
200.563827514648
187.688827514648
168.996246337891
172.429580688477
181.871231079102
186.258270263672
191.122161865234
187.402725219727
195.509201049805
178.914764404297
163.464767456055
144.104583740234
122.93236541748
112.441627502441
99.3758926391602
98.899040222168
86.5962677001953
88.0268249511719
79.6342315673828
66.3777542114258
45.1101722717285
38.7203598022461
18.0249938964844
8.67870044708252
7.0574049949646
8.0111083984375
8.0111083984375
8.96481227874756
8.3925895690918
-2.95648050308228
-21.5536975860596
-37.3851737976074
-51.3092422485352
-63.8981285095215
-73.3397903442383
-77.4407196044922
-68.7620162963867
-56.2685012817383
-57.2222023010254
-62.8490524291992
-70.6694183349609
-85.6425628662109
-97.3731155395508
-103.476821899414
-106.528671264648
-112.346260070801
-115.398109436035
-112.823112487793
-122.93236541748
-125.316627502441
-130.37126159668
-130.180511474609
-140.766616821289
-157.837905883789
-150.685134887695
-133.518478393555
-142.483291625977
-136.570327758789
-125.793479919434
-127.414772033691
-133.518478393555
-134.376815795898
-138.95458984375
-143.818466186523
-163.464767456055
-159.840682983398
-154.309204101563
-143.055511474609
-142.674026489258
-143.818466186523
-135.902740478516
-131.420333862305
-148.491622924805
-147.53791809082
-146.011993408203
-144.962921142578
-151.161987304688
-151.066619873047
-150.875885009766
-152.401809692383
-147.633285522461
-147.728652954102
-140.099029541016
-126.556442260742
-124.267555236816
-126.07958984375
-117.019409179688
-110.724967956543
-116.35181427002
-115.302742004395
-106.337928771973
-104.716636657715
-94.5120086669922
-80.4925689697266
-86.4055252075195
-89.0758972167969
-66.7592391967773
-65.3286819458008
-66.5684967041016
-78.1083068847656
-79.729606628418
-78.1083068847656
-72.9583129882813
-63.3259048461914
-58.2712783813477
-55.887020111084
-66.5684967041016
-58.9388694763184
-51.2138710021973
-50.7370223999023
-51.1185035705566
-51.7860946655273
-55.3147964477539
-51.2138710021973
-46.0638732910156
-19.8370304107666
-22.4120292663574
-34.2379531860352
-41.3907279968262
-40.5323944091797
-36.3360977172852
-39.864803314209
-38.148136138916
-29.5648059844971
-25.8453617095947
-16.4036979675293
-16.8805503845215
-21.6490669250488
-21.5536975860596
-17.5481433868408
-10.8722190856934
-9.82314491271973
-8.3925895690918
-3.5287024974823
3.24259161949158
8.58333015441895
0.762962698936462
1.14444410800934
2.28888821601868
-5.7222204208374
-9.25092315673828
-5.05462789535522
3.71944332122803
16.9759197235107
23.4611034393311
23.5564746856689
29.278694152832
30.70924949646
26.7036952972412
20.2185115814209
8.58333015441895
11.4444408416748
23.8425846099854
22.6981410980225
21.7444381713867
26.3222141265869
28.0388793945313
30.8999900817871
30.995361328125
28.3249912261963
32.8073959350586
37.1944313049316
36.0499877929688
35.2870254516602
37.0036926269531
51.8814659118652
61.4184989929199
52.7397994995117
44.0610961914063
39.4833221435547
32.2351760864258
27.7527694702148
27.7527694702148
25.3685111999512
24.891658782959
30.2323970794678
34.9055442810059
41.1999855041504
46.0638732910156
42.7259140014648
37.2898025512695
31.0907306671143
26.6083240509033
29.9462871551514
35.9546165466309
42.7259140014648
46.4453544616699
43.2981338500977
37.8620262145996
37.0036926269531
41.8675804138184
43.7749862670898
38.7203598022461
41.1046180725098
53.5981292724609
60.1786842346191
65.2333145141602
76.8684921264648
75.8194198608398
60.274055480957
56.6499824523926
57.2222023010254
45.1101722717285
42.8212814331055
55.219425201416
56.936092376709
54.8379440307617
63.3259048461914
59.3203506469727
41.6768379211426
37.4805450439453
38.9110984802246
37.8620262145996
30.6138782501221
31.5675830841064
25.177770614624
36.8129501342773
34.0472106933594
27.0851764678955
27.4666576385498
23.9379558563232
17.9296245574951
33.0935096740723
31.7583236694336
43.1073951721191
41.8675804138184
53.121280670166
58.4620170593262
53.2166481018066
52.1675758361816
58.1759071350098
57.8897972106934
52.2629470825195
49.1157264709473
50.5462799072266
51.5953521728516
38.4342460632324
25.0823993682861
23.1749935150146
20.1231422424316
17.1666603088379
16.5944385528564
12.7796258926392
18.9786968231201
20.409252166748
14.1148099899292
10.204626083374
11.2537002563477
20.5999927520752
23.0796222686768
25.3685111999512
21.1722145080566
12.588885307312
14.687032699585
13.8286991119385
4.10092449188232
11.7305517196655
12.1120328903198
16.30832862854
13.256477355957
12.6842555999756
10.2999963760376
1.14444410800934
-3.147221326828
-10.2999963760376
-11.7305517196655
-4.48240613937378
4.1962947845459
12.3981437683105
14.5916624069214
6.96203470230103
3.5287024974823
12.8749961853027
14.3055505752563
20.9814739227295
14.7824029922485
2.47962880134583
-10.8722190856934
-36.8129501342773
-72.0046081542969
-146.488845825195
-127.605514526367
-152.783279418945
-175.767532348633
-194.841598510742
-203.424942016602
-176.435134887695
-130.561996459961
-122.360145568848
-109.580520629883
-105.574966430664
-107.482376098633
-96.800895690918
-45.6823921203613
12.1120328903198
61.99072265625
479.045227050781
706.980346679688
929.097839355469
1117.74035644531
1194.51354980469
1231.99401855469
1261.3681640625
1158.9404296875
967.341369628906
805.021057128906
633.449768066406
490.108184814453
259.025848388672
-160.22216796875
-171.857345581055
-417.531341552734
-421.441528320313
-448.145233154297
-483.336883544922
-529.400756835938
-568.025756835938
-678.941467285156
-740.264587402344
-756.954406738281
-745.223815917969
-683.137756347656
-599.593322753906
-512.234069824219
-451.387817382813
-428.689666748047
-440.897094726563
-475.230407714844
-519.482238769531
-535.885925292969
-513.664672851563
-464.358184814453
-389.206359863281
-319.585998535156
-271.900848388672
-245.006408691406
-241.38232421875
-256.35546875
-280.198059082031
-292.59619140625
-285.920288085938
-259.788818359375
-218.111968994141
-173.955505371094
-127.700881958008
-102.52311706543
-88.9805297851563
-103.190704345703
-114.635147094727
-110.248115539551
-108.054595947266
-97.849967956543
-75.0564575195313
-46.3499870300293
-23.5564746856689
-18.5972156524658
-16.30832862854
-13.5425882339478
-16.8805503845215
-23.4611034393311
-14.4962921142578
-10.1092557907104
4.1962947845459
16.1175880432129
34.9055442810059
47.3036880493164
52.5490570068359
60.1786842346191
69.8110885620117
78.012939453125
86.5962677001953
82.0184936523438
69.9064559936523
66.2823867797852
74.5796051025391
88.5990447998047
94.2258987426758
99.6620025634766
117.210144042969
117.305519104004
103.572189331055
98.2314529418945
102.427742004395
107.86385345459
108.531448364258
105.574966430664
105.86107635498
110.057373046875
118.545333862305
118.354591369629
128.273101806641
132.374038696289
132.087921142578
130.752731323242
124.172180175781
108.340705871582
99.948112487793
109.199035644531
116.44718170166
118.44995880127
131.515701293945
143.246246337891
140.861999511719
133.899963378906
127.414772033691
108.912925720215
98.9944152832031
103.381446838379
112.25089263916
126.747184753418
144.676803588867
156.979583740234
165.372161865234
147.44255065918
124.076812744141
108.054595947266
95.8471908569336
99.2805252075195
115.588851928711
136.474960327148
150.780502319336
172.906433105469
173.09716796875
166.135131835938
156.979583740234
141.624954223633
124.076812744141
143.055511474609
156.598098754883
160.126800537109
184.446243286133
200.468460083008
221.545303344727
211.817520141602
200.182342529297
190.549942016602
176.435134887695
157.837905883789
153.73698425293
162.3203125
170.236053466797
173.955505371094
186.449020385742
187.784194946289
173.478652954102
146.011993408203
122.646255493164
109.675888061523
102.332374572754
97.7546005249023
99.8527450561523
102.713859558105
104.907371520996
105.479598999023
97.0870056152344
75.8194198608398
39.9601707458496
23.6518440246582
19.360179901123
23.7472152709961
25.2731399536133
30.1370277404785
28.3249912261963
17.9296245574951
2.5749990940094
-12.8749961853027
-27.5620288848877
-30.0416564941406
-38.0527648925781
-48.5435028076172
-42.630542755127
-41.4860992431641
-34.5240631103516
-38.6249885559082
-49.8786888122559
-70.7647933959961
-90.0296020507813
-103.572189331055
-110.534225463867
-114.34903717041
-119.68977355957
-118.545333862305
-109.103668212891
-102.809226989746
-106.624038696289
-117.49626159668
-132.183288574219
-143.15087890625
-128.463851928711
-132.755508422852
-139.240692138672
-140.289764404297
-140.575881958008
-141.624954223633
-141.434219360352
-137.524032592773
-141.148101806641
-143.15087890625
-145.153656005859
-141.720321655273
-142.864776611328
-140.861999511719
-139.812911987305
-140.766616821289
-143.15087890625
-145.43977355957
-154.976806640625
-151.066619873047
-137.333282470703
-135.711990356445
-138.096252441406
-139.717544555664
-146.584213256836
-143.818466186523
-138.95458984375
-146.202728271484
-143.723098754883
-140.003662109375
-142.864776611328
-134.090698242188
-128.845321655273
-125.030517578125
-117.782371520996
-112.25089263916
-107.577743530273
-101.760154724121
-102.904594421387
-96.800895690918
-89.8388595581055
-90.0296020507813
-95.3703384399414
-104.239784240723
-104.525894165039
-94.7981185913086
-92.318489074707
-86.7870101928711
-83.8305282592773
-74.8657150268555
-62.5629425048828
-53.0259094238281
-47.1129493713379
-45.5870208740234
-51.5953521728516
-51.8814659118652
-42.4398002624512
-38.148136138916
-32.6166572570801
-23.4611034393311
-22.2212886810303
-22.5074005126953
-22.5074005126953
-24.891658782959
-33.3796195983887
-39.3879508972168
-47.9712791442871
-55.0286865234375
-44.1564674377441
-28.8972129821777
-25.0823993682861
-23.3657341003418
-20.7907333374023
-12.9703664779663
-4.29166507720947
-9.34629344940186
-9.06018257141113
-11.8259220123291
-13.5425882339478
-5.05462789535522
0.0953703373670578
11.635181427002
8.3925895690918
0.9537034034729
3.91018390655518
2.47962880134583
-11.5398111343384
-17.738883972168
-9.44166374206543
4.38703584671021
11.4444408416748
28.6111011505127
27.3712882995605
22.6981410980225
19.2648086547852
20.2185115814209
17.4527721405029
17.6435127258301
12.3981437683105
10.8722190856934
21.3629570007324
29.9462871551514
32.9981384277344
46.0638732910156
56.0777587890625
45.3962821960449
28.9925842285156
23.5564746856689
29.3740653991699
39.0064697265625
39.3879508972168
29.7555465698242
36.5268402099609
36.3360977172852
56.5546112060547
46.9222068786621
43.7749862670898
44.9194297790527
43.2981338500977
37.9573936462402
44.3472061157227
41.5814666748047
38.5296173095703
38.2435073852539
41.7722091674805
40.7231369018555
40.8185043334961
39.7694320678711
37.9573936462402
41.7722091674805
51.9768333435059
59.8925743103027
62.6583137512207
60.9416465759277
52.7397994995117
52.2629470825195
56.8407211303711
51.5953521728516
49.4972076416016
46.3499870300293
42.8212814331055
34.810173034668
41.3907279968262
50.1647987365723
40.913875579834
35.6685066223145
28.8018417358398
27.3712882995605
36.5268402099609
38.0527648925781
36.431468963623
37.7666549682617
40.3416519165039
44.5379486083984
49.783317565918
36.431468963623
26.0361022949219
27.3712882995605
26.1314735412598
21.4583263397217
32.9981384277344
37.3851737976074
48.4481315612793
57.9851684570313
59.701831817627
50.832389831543
45.3962821960449
41.3907279968262
38.4342460632324
35.6685066223145
40.8185043334961
36.8129501342773
32.7120246887207
36.1453590393066
42.5351715087891
47.3990592956543
58.5573883056641
53.121280670166
34.810173034668
26.0361022949219
33.1888771057129
32.4259147644043
23.0796222686768
20.8861045837402
26.6083240509033
25.3685111999512
21.6490669250488
26.7990646362305
24.6055469512939
15.5453653335571
11.8259220123291
8.67870044708252
10.1092557907104
11.4444408416748
3.5287024974823
-0.762962698936462
0.858333051204681
3.91018390655518
10.7768487930298
17.738883972168
16.9759197235107
17.4527721405029
16.022216796875
12.588885307312
11.8259220123291
1.71666610240936
3.62407302856445
11.3490705490112
16.4036979675293
13.0657367706299
10.1092557907104
6.96203470230103
4.57777643203735
4.00555419921875
9.63240432739258
11.2537002563477
10.0138854980469
2.28888821601868
-1.23981440067291
-11.7305517196655
-58.5573883056641
-87.8360824584961
-112.918479919434
-100.901817321777
-183.68327331543
-196.367523193359
-203.138824462891
-177.865676879883
-177.007354736328
-92.0323791503906
-93.8444137573242
-94.1305236816406
-92.1277465820313
-65.0425720214844
-31.6629524230957
38.3388748168945
86.9777526855469
68.9527587890625
183.587905883789
413.335052490234
988.227478027344
1146.82836914063
1191.55700683594
1199.85424804688
1228.46533203125
1155.12561035156
990.134887695313
853.469177246094
706.503479003906
497.356323242188
233.657333374023
-59.7972030639648
-297.555450439453
-411.713745117188
-443.185974121094
-460.066528320313
-473.132263183594
-488.582244873047
-521.3896484375
-573.557250976563
-637.550720214844
-685.80810546875
-696.87109375
-669.976623535156
-612.849792480469
-536.934997558594
-460.829467773438
-409.138763427734
-394.165618896484
-408.375793457031
-435.556335449219
-461.878570556641
-477.423919677734
-463.309112548828
-420.678558349609
-366.126739501953
-305.185089111328
-259.598052978516
-241.668441772461
-241.286956787109
-248.916580200195
-263.603607177734
-267.895294189453
-254.25732421875
-222.117523193359
-188.0703125
-141.815689086914
-111.011077880859
-95.9425582885742
-88.5990447998047
-95.2749710083008
-102.52311706543
-103.572189331055
-92.4138565063477
-83.925895690918
-66.4731292724609
-53.5981292724609
-38.8157272338867
-30.70924949646
-25.177770614624
-17.738883972168
-17.4527721405029
-15.5453653335571
-11.5398111343384
-7.15277528762817
2.76573991775513
14.1148099899292
16.5944385528564
24.4148063659668
42.1536903381348
57.1268348693848
66.7592391967773
70.8601608276367
65.5194244384766
72.6721954345703
74.3888626098633
72.7675704956055
81.2555313110352
82.2092361450195
85.5471954345703
82.9721984863281
96.800895690918
103.190704345703
106.910148620605
105.002746582031
99.948112487793
94.03515625
87.0731201171875
85.1657104492188
91.4601593017578
97.182373046875
105.002746582031
118.545333862305
131.420333862305
127.128662109375
131.038848876953
122.93236541748
121.787925720215
111.1064453125
106.337928771973
103.858299255371
107.95922088623
124.458290100098
133.709213256836
149.159210205078
149.54069519043
139.526809692383
122.264778137207
109.771263122559
94.416633605957
116.924034118652
125.411994934082
125.125885009766
141.911071777344
156.502731323242
159.649948120117
148.014770507813
132.850875854492
143.436996459961
128.273101806641
117.49626159668
125.698104858398
143.341613769531
165.944396972656
183.397171020508
183.68327331543
171.666610717773
153.355499267578
139.526809692383
122.550888061523
128.845321655273
139.526809692383
155.83512878418
180.631423950195
191.694381713867
189.119384765625
206.381408691406
182.252716064453
162.224945068359
152.401809692383
142.101806640625
140.861999511719
165.181427001953
183.77864074707
177.29345703125
171.380493164063
166.325866699219
153.641616821289
128.273101806641
102.237007141113
91.8416366577148
93.1768188476563
98.7083053588867
98.899040222168
101.950889587402
100.043487548828
84.9749755859375
65.6147918701172
50.6416511535645
25.7499923706055
14.3055505752563
4.1962947845459
4.95925760269165
11.635181427002
19.1694374084473
18.5972156524658
11.2537002563477
1.23981440067291
-14.3055505752563
-36.7175827026367
-54.2657241821289
-59.6064605712891
-65.3286819458008
-72.4814605712891
-70.7647933959961
-72.9583129882813
-79.2527542114258
-77.5360870361328
-76.2009048461914
-88.5036773681641
-103.286079406738
-105.86107635498
-107.673110961914
-106.624038696289
-103.76293182373
-100.52033996582
-113.20458984375
-119.785148620605
-116.733299255371
-122.169403076172
-127.986999511719
-125.888847351074
-130.752731323242
-130.752731323242
-130.943481445313
-135.139770507813
-132.183288574219
-133.041625976563
-136.66569519043
-143.341613769531
-150.494400024414
-147.44255065918
-141.148101806641
-137.524032592773
-135.044403076172
-138.477737426758
-136.188842773438
-150.017547607422
-147.919403076172
-146.870330810547
-146.679580688477
-135.998107910156
-127.414772033691
-120.929588317871
-120.83422088623
-115.684219360352
-123.027740478516
-125.507369995117
-117.877738952637
-113.586074829102
-116.924034118652
-114.34903717041
-113.490707397461
-119.212921142578
-113.586074829102
-101.37866973877
-100.711082458496
-100.52033996582
-93.0814514160156
-89.8388595581055
-90.9833068847656
-94.2258987426758
-94.3212661743164
-86.9777526855469
-86.5962677001953
-88.9805297851563
-97.3731155395508
-97.5638580322266
-85.1657104492188
-81.3508987426758
-73.2444229125977
-64.5657196044922
-64.5657196044922
-59.1296119689941
-63.4212760925293
-49.8786888122559
-54.9333152770996
-46.0638732910156
-39.1018409729004
-30.2323970794678
-29.7555465698242
-20.7907333374023
-26.4175834655762
-29.6601753234863
-22.8888816833496
-26.1314735412598
-29.6601753234863
-30.0416564941406
-23.9379558563232
-17.5481433868408
-3.62407302856445
3.43333220481873
7.53425693511963
1.71666610240936
-2.8611102104187
5.34073925018311
-4.57777643203735
-10.3953666687012
-8.0111083984375
2.8611102104187
16.9759197235107
33.5703582763672
42.4398002624512
38.5296173095703
34.2379531860352
28.6111011505127
17.5481433868408
12.8749961853027
0.190740674734116
9.34629344940186
15.5453653335571
15.9268465042114
26.3222141265869
26.7990646362305
25.3685111999512
21.0768451690674
13.1611070632935
12.0166625976563
12.6842555999756
5.1499981880188
0
3.147221326828
14.7824029922485
18.6925868988037
35.1916542053223
15.9268465042114
9.25092315673828
6.86666440963745
6.86666440963745
8.77407169342041
20.2185115814209
25.7499923706055
31.9490642547607
34.5240631103516
35.0009155273438
31.8536930084229
28.1342506408691
41.3907279968262
37.0036926269531
42.1536903381348
36.5268402099609
39.9601707458496
49.5925750732422
47.3036880493164
49.6879463195801
50.1647987365723
48.3527641296387
38.5296173095703
28.0388793945313
19.5509204864502
31.0907306671143
36.0499877929688
46.4453544616699
37.2898025512695
41.2953567504883
39.3879508972168
40.7231369018555
29.5648059844971
28.9925842285156
40.1509132385254
38.3388748168945
27.0851764678955
26.5129547119141
39.864803314209
50.9277610778809
52.8351669311523
37.3851737976074
33.9518394470215
31.4722118377686
37.099063873291
34.2379531860352
25.6546211242676
22.2212886810303
23.8425846099854
37.099063873291
39.0064697265625
45.4916534423828
44.6333198547363
44.4425773620605
44.5379486083984
41.8675804138184
44.0610961914063
51.2138710021973
55.6962776184082
53.121280670166
46.5407257080078
47.4944305419922
54.4564628601074
46.6360969543457
47.7805404663086
53.8842430114746
49.9740562438965
49.8786888122559
62.0860900878906
72.0046081542969
72.1953506469727
71.3370132446289
65.7101669311523
50.4509086608887
38.9110984802246
34.810173034668
24.4148063659668
24.9870281219482
30.4231376647949
27.943510055542
26.4175834655762
26.226842880249
28.8972129821777
25.2731399536133
12.7796258926392
-0.381481349468231
2.5749990940094
8.48795986175537
7.72499752044678
5.1499981880188
7.15277528762817
12.0166625976563
19.4555492401123
19.7416610717773
10.9675893783569
3.05185079574585
11.1583299636841
16.30832862854
8.48795986175537
5.7222204208374
3.8148136138916
-0.0953703373670578
-1.62129580974579
-4.10092449188232
-2.09814739227295
2.5749990940094
2.67036962509155
-0.286111027002335
4.1962947845459
4.00555419921875
3.05185079574585
-0.190740674734116
-4.95925760269165
-4.1962947845459
1.14444410800934
3.33796191215515
12.4935140609741
9.34629344940186
-1.9074068069458
-24.3194370269775
-52.1675758361816
-82.2092361450195
-114.635147094727
-143.341613769531
-172.238830566406
-200.75456237793
-210.196228027344
-191.026794433594
-191.026794433594
-116.161071777344
-99.5666351318359
-99.7573776245117
-106.528671264648
-101.474044799805
-61.2277565002441
4.67314672470093
56.936092376709
144.962921142578
343.237854003906
599.116455078125
847.556213378906
1057.08483886719
1159.79870605469
1187.93298339844
1222.45703125
1159.98950195313
973.254333496094
803.399719238281
650.044250488281
451.292449951172
207.43049621582
-57.1268348693848
-270.851776123047
-375.854522705078
-406.754486083984
-345.526733398438
-502.601684570313
-474.848907470703
-550.477600097656
-598.0673828125
-657.197021484375
-708.029418945313
-713.751647949219
-672.360900878906
-611.133117675781
-540.55908203125
-478.186889648438
-438.512817382813
-429.548004150391
-442.804473876953
-472.846130371094
-487.723907470703
-479.903564453125
-453.581329345703
-407.422088623047
-347.148040771484
-291.833251953125
-260.456390380859
-251.586959838867
-256.260101318359
-268.944366455078
-275.715637207031
-264.271209716797
-240.428619384766
-214.583267211914
-184.350860595703
-155.072174072266
-126.937919616699
-100.997192382813
-93.0814514160156
-97.0870056152344
-101.283302307129
-103.667556762695
-93.6536712646484
-78.5851593017578
-65.5194244384766
-49.3064651489258
-36.6222114562988
-24.3194370269775
-11.635181427002
-8.48795986175537
-5.1499981880188
0.0953703373670578
-1.14444410800934
2.8611102104187
16.1175880432129
26.7990646362305
40.913875579834
42.8212814331055
54.4564628601074
61.4184989929199
57.1268348693848
63.7073860168457
71.6231231689453
62.4675712585449
66.0916442871094
59.5110931396484
73.4351654052734
82.3046035766602
92.5092315673828
94.702751159668
107.387001037598
114.921257019043
116.065704345703
112.632369995117
117.400886535645
114.539779663086
109.199035644531
111.774040222168
111.869407653809
118.259223937988
131.515701293945
137.524032592773
141.434219360352
137.905517578125
133.995330810547
133.613845825195
120.071258544922
108.054595947266
107.005523681641
113.20458984375
119.403663635254
132.56477355957
134.758285522461
135.998107910156
129.417556762695
122.741630554199
113.776817321777
105.574966430664
108.340705871582
118.354591369629
119.975891113281
134.853652954102
149.159210205078
155.549026489258
148.777725219727
129.989776611328
118.163848876953
110.629592895508
105.574966430664
118.831443786621
144.199951171875
163.846237182617
177.29345703125
190.549942016602
180.726791381836
168.042541503906
150.494400024414
147.156433105469
143.627731323242
145.058288574219
150.112915039063
153.83235168457
157.265686035156
181.012908935547
181.68049621582
183.301788330078
163.464767456055
170.80827331543
173.09716796875
166.135131835938
163.846237182617
173.192535400391
185.304565429688
178.914764404297
179.105499267578
181.775863647461
156.979583740234
133.327728271484
115.874961853027
107.86385345459
108.245338439941
110.534225463867
106.242561340332
103.858299255371
100.234230041504
82.3046035766602
68.4759063720703
43.2027626037598
28.6111011505127
10.1092557907104
3.43333220481873
6.48518323898315
3.33796191215515
-4.67314672470093
-11.2537002563477
-12.2074031829834
-18.8833274841309
-33.761100769043
-46.6360969543457
-52.9305381774902
-57.7944259643555
-61.323127746582
-60.274055480957
-60.5601654052734
-54.8379440307617
-61.0370178222656
-65.4240493774414
-78.7759017944336
-96.4194107055664
-101.569412231445
-103.286079406738
-103.476821899414
-98.899040222168
-99.2805252075195
-99.0897827148438
-105.956443786621
-115.111999511719
-125.888847351074
-139.145324707031
-138.000885009766
-126.07958984375
-124.553665161133
-115.398109436035
-120.262001037598
-121.978668212891
-123.409217834473
-123.218475341797
-126.842552185059
-118.068481445313
-126.556442260742
-130.848098754883
-134.281433105469
-136.188842773438
-128.749954223633
-121.69255065918
-123.409217834473
-126.651809692383
-132.087921142578
-137.905517578125
-131.992553710938
-125.030517578125
-125.507369995117
-126.842552185059
-134.281433105469
-143.436996459961
-139.431442260742
-127.510147094727
-121.883293151855
-116.733299255371
-113.967559814453
-120.357368469238
-117.400886535645
-113.299964904785
-120.071258544922
-116.44718170166
-109.00830078125
-105.956443786621
-95.4657135009766
-86.5962677001953
-85.1657104492188
-83.8305282592773
-85.6425628662109
-86.9777526855469
-82.3999710083008
-81.9231185913086
-83.5444183349609
-84.6888580322266
-76.7731246948242
-75.7240524291992
-73.9120101928711
-68.8573837280273
-77.6314544677734
-70.2879409790039
-60.6555366516113
-58.2712783813477
-56.4592399597168
-53.5027618408203
-54.2657241821289
-45.8731346130371
-31.7583236694336
-26.8944358825684
-33.4749908447266
-37.4805450439453
-37.4805450439453
-29.278694152832
-33.761100769043
-31.2814712524414
-34.1425819396973
-35.4777679443359
-34.810173034668
-26.0361022949219
-20.0277709960938
-26.9898052215576
-29.0879535675049
-21.0768451690674
-13.0657367706299
-12.8749961853027
-18.6925868988037
-12.3981437683105
-6.6759238243103
-11.9212923049927
-1.33518481254578
0.47685170173645
3.147221326828
-2.5749990940094
-8.3925895690918
-20.7907333374023
-21.7444381713867
-14.9731435775757
-2.38425850868225
-2.47962880134583
7.53425693511963
10.4907369613647
11.9212923049927
7.82036781311035
2.28888821601868
1.81203651428223
-7.53425693511963
-5.24536848068237
11.7305517196655
21.3629570007324
28.7064723968506
38.6249885559082
39.197208404541
35.382396697998
33.5703582763672
29.7555465698242
24.1286964416504
28.8018417358398
38.8157272338867
47.3036880493164
52.5490570068359
61.6092376708984
56.7453536987305
50.1647987365723
47.9712791442871
44.0610961914063
34.2379531860352
39.6740608215332
42.4398002624512
47.1129493713379
50.4509086608887
55.1240577697754
52.6444282531738
50.0694274902344
43.1073951721191
28.6111011505127
29.6601753234863
38.0527648925781
54.170352935791
54.170352935791
50.7370223999023
50.9277610778809
55.6009063720703
54.7425765991211
42.5351715087891
36.6222114562988
45.8731346130371
48.4481315612793
46.7314682006836
59.2249794006348
63.4212760925293
54.8379440307617
51.6907234191895
51.1185035705566
58.8434982299805
64.0888671875
49.5925750732422
35.0962867736816
34.5240631103516
38.6249885559082
39.4833221435547
43.1073951721191
46.0638732910156
47.7805404663086
59.0342407226563
67.1407165527344
64.6610870361328
63.5166473388672
64.3749771118164
73.1490478515625
58.1759071350098
51.0231323242188
62.9444236755371
65.5194244384766
62.5629425048828
34.6194343566895
30.2323970794678
32.3305435180664
24.0333251953125
25.177770614624
29.8509159088135
26.9898052215576
23.2703628540039
20.2185115814209
29.278694152832
31.9490642547607
36.7175827026367
31.9490642547607
23.7472152709961
31.9490642547607
35.0962867736816
21.0768451690674
10.4907369613647
8.3925895690918
5.91296100616455
5.91296100616455
11.4444408416748
16.1175880432129
16.4036979675293
20.409252166748
24.7009181976318
21.0768451690674
18.2157344818115
14.4009208679199
5.34073925018311
7.72499752044678
-3.43333220481873
0.9537034034729
-6.1037015914917
-13.0657367706299
-6.1037015914917
-1.14444410800934
-7.43888664245605
-7.43888664245605
-5.1499981880188
-3.24259161949158
5.05462789535522
-0.381481349468231
-16.9759197235107
-42.630542755127
-86.8823776245117
-131.324951171875
-171.571243286133
-162.129577636719
-228.316589355469
-228.69807434082
-197.798080444336
-136.093475341797
-87.0731201171875
-69.3342361450195
-58.2712783813477
-37.0036926269531
-17.9296245574951
8.58333015441895
18.5018463134766
102.046264648438
208.861038208008
385.010070800781
604.93408203125
818.75439453125
973.063598632813
1043.63757324219
1097.23571777344
1125.75146484375
1029.6181640625
999.576538085938
760.101623535156
641.460876464844
458.826690673828
204.474014282227
-47.9712791442871
-183.874008178711
-246.913803100586
-308.713775634766
-274.189727783203
-422.299865722656
-493.827606201172
-545.613708496094
-585.573913574219
-626.296997070313
-648.518310546875
-643.27294921875
-615.806274414063
-569.170166015625
-511.280395507813
-459.780395507813
-436.510040283203
-421.632263183594
-426.877655029297
-439.180419921875
-443.853576660156
-434.507263183594
-418.771148681641
-394.356353759766
-354.5869140625
-312.337860107422
-271.710083007813
-256.546203613281
-247.390655517578
-258.73974609375
-258.930480957031
-262.363800048828
-248.630477905273
-227.458267211914
-199.610122680664
-170.236053466797
-144.390701293945
-121.501815795898
-119.308296203613
-114.635147094727
-108.340705871582
-100.901817321777
-90.5064544677734
-85.1657104492188
-71.0509033203125
-58.652759552002
-37.8620262145996
-27.4666576385498
-22.6027698516846
-11.7305517196655
-6.19907188415527
-6.29444265365601
-20.1231422424316
-19.5509204864502
-11.4444408416748
-0.762962698936462
7.24814605712891
23.7472152709961
42.1536903381348
54.2657241821289
63.3259048461914
69.8110885620117
74.8657150268555
74.5796051025391
73.5305328369141
77.1546020507813
78.012939453125
77.8221969604492
82.2092361450195
83.3536758422852
94.7981185913086
100.234230041504
103.381446838379
112.632369995117
116.065704345703
111.774040222168
101.950889587402
100.711082458496
108.722190856934
117.305519104004
131.134216308594
146.965698242188
148.014770507813
142.483291625977
137.524032592773
118.926811218262
112.155517578125
110.057373046875
109.580520629883
118.259223937988
128.463851928711
132.660140991211
130.752731323242
124.267555236816
112.346260070801
103.476821899414
113.109222412109
119.022186279297
111.964782714844
113.681442260742
123.218475341797
132.46940612793
140.671249389648
148.777725219727
149.922180175781
143.532363891602
132.755508422852
118.73607635498
115.111999511719
126.07958984375
137.619400024414
149.63606262207
163.274017333984
163.178649902344
155.358276367188
157.170318603516
155.453659057617
139.049957275391
127.319404602051
135.902740478516
147.728652954102
151.63883972168
159.363830566406
166.135131835938
169.186981201172
171.285125732422
161.080505371094
148.777725219727
143.818466186523
136.284210205078
134.853652954102
140.289764404297
136.284210205078
136.570327758789
140.861999511719
131.324951171875
115.398109436035
101.855522155762
86.0240478515625
75.9147872924805
65.9962768554688
60.9416465759277
57.5083160400391
52.453685760498
37.9573936462402
28.8972129821777
22.9842510223389
9.72777462005615
10.0138854980469
-5.43610954284668
-18.9786968231201
-9.537034034729
-1.14444410800934
-8.48795986175537
-12.588885307312
-4.86388731002808
-15.7361059188843
-26.9898052215576
-46.9222068786621
-45.5870208740234
-52.0722045898438
-57.7944259643555
-53.121280670166
-61.99072265625
-75.4379425048828
-68.1897964477539
-74.7703475952148
-68.0944213867188
-76.7731246948242
-91.8416366577148
-100.424964904785
-95.3703384399414
-97.4684906005859
-104.335151672363
-104.430519104004
-112.918479919434
-123.9814453125
-128.082366943359
-130.46662902832
-140.957366943359
-142.101806640625
-134.56755065918
-134.66291809082
-137.714767456055
-130.37126159668
-122.646255493164
-129.322174072266
-134.376815795898
-130.37126159668
-129.512924194336
-131.897186279297
-129.417556762695
-124.93514251709
-124.267555236816
-116.733299255371
-115.302742004395
-106.528671264648
-103.953666687012
-101.855522155762
-111.869407653809
-115.779594421387
-119.117553710938
-114.444404602051
-113.395332336426
-110.152740478516
-104.430519104004
-93.2721939086914
-92.0323791503906
-94.8934860229492
-85.0703430175781
-80.3018264770508
-66.9499816894531
-66.6638641357422
-65.805534362793
-68.2851638793945
-74.7703475952148
-78.8712692260742
-80.111083984375
-69.6203460693359
-66.0916442871094
-64.1842422485352
-65.9009017944336
-69.0481262207031
-70.0971984863281
-63.4212760925293
-60.8462753295898
-55.0286865234375
-54.0749816894531
-51.8814659118652
-46.0638732910156
-43.2027626037598
-41.4860992431641
-34.5240631103516
-40.0555419921875
-50.0694274902344
-46.9222068786621
-35.5731353759766
-36.0499877929688
-23.7472152709961
-36.3360977172852
-31.1861019134521
-22.8888816833496
-19.8370304107666
-22.125919342041
-23.6518440246582
-27.3712882995605
-41.962947845459
-41.4860992431641
-32.2351760864258
-26.7036952972412
-22.4120292663574
-16.9759197235107
-14.2101802825928
-7.24814605712891
-9.25092315673828
-11.2537002563477
-15.6407356262207
-6.6759238243103
-4.00555419921875
13.256477355957
19.1694374084473
27.7527694702148
28.8972129821777
14.4962921142578
14.9731435775757
12.8749961853027
8.29721927642822
5.05462789535522
10.4907369613647
17.9296245574951
19.360179901123
23.0796222686768
21.4583263397217
24.2240657806396
21.0768451690674
13.7333288192749
18.8833274841309
27.943510055542
25.2731399536133
30.995361328125
34.4286918640137
34.5240631103516
37.8620262145996
39.2925796508789
26.1314735412598
28.1342506408691
32.3305435180664
29.1833248138428
21.1722145080566
19.5509204864502
23.1749935150146
21.2675857543945
18.9786968231201
21.9351787567139
27.1805477142334
33.761100769043
38.4342460632324
37.3851737976074
33.9518394470215
28.9925842285156
27.0851764678955
29.278694152832
32.04443359375
40.913875579834
46.6360969543457
43.9657249450684
41.3907279968262
34.7148017883301
32.9027671813965
42.0583190917969
49.3064651489258
53.4073905944824
56.4592399597168
58.652759552002
59.1296119689941
63.6120147705078
64.8518295288086
58.652759552002
60.9416465759277
62.1814613342285
52.5490570068359
41.1046180725098
34.9055442810059
39.5786895751953
43.4888763427734
38.3388748168945
31.7583236694336
27.5620288848877
28.0388793945313
27.2759170532227
21.9351787567139
20.8861045837402
24.7962875366211
25.3685111999512
24.891658782959
26.3222141265869
22.5074005126953
21.839807510376
31.5675830841064
30.8046188354492
32.7120246887207
38.0527648925781
47.2083168029785
39.864803314209
39.0064697265625
32.7120246887207
20.8861045837402
16.8805503845215
17.6435127258301
21.3629570007324
17.357400894165
8.67870044708252
12.2074031829834
15.2592544555664
23.7472152709961
20.5999927520752
11.1583299636841
-4.29166507720947
1.62129580974579
1.04907369613647
11.8259220123291
13.5425882339478
14.4009208679199
6.1037015914917
8.20184898376465
12.8749961853027
2.95648050308228
-9.9185152053833
-18.1203651428223
-17.5481433868408
-33.1888771057129
-104.049041748047
-147.44255065918
-187.593460083008
-216.299926757813
-231.463821411133
-225.550857543945
-185.87678527832
-142.006439208984
-144.199951171875
-94.03515625
-79.5388641357422
-61.6092376708984
-32.4259147644043
15.35462474823
71.3370132446289
140.480514526367
277.527679443359
497.642425537109
753.807189941406
985.366333007813
1130.71069335938
1192.89221191406
1237.52551269531
1233.04309082031
1104.57922363281
1063.18859863281
749.324768066406
575.369262695313
349.055450439453
88.2175674438477
-145.916625976563
-299.844360351563
-376.998962402344
-334.082305908203
-472.464660644531
-436.414672851563
-581.472961425781
-608.653503417969
-642.128479003906
-672.170166015625
-687.620178222656
-685.903503417969
-652.523864746094
-594.252563476563
-536.07666015625
-489.917449951172
-461.973937988281
-446.333190917969
-464.072082519531
-470.366516113281
-464.167449951172
-448.526702880859
-429.45263671875
-402.748931884766
-364.696166992188
-315.675811767578
-269.135101318359
-241.57307434082
-236.709182739258
-240.905471801758
-244.052703857422
-239.2841796875
-222.785110473633
-200.659194946289
-169.759201049805
-138.76383972168
-114.34903717041
-98.3268203735352
-105.574966430664
-102.427742004395
-100.234230041504
-95.6564483642578
-88.1221923828125
-73.9120101928711
-75.4379425048828
-43.5842437744141
-21.5536975860596
-15.2592544555664
-7.34351634979248
-3.33796191215515
-2.67036962509155
6.1037015914917
10.6814785003662
20.1231422424316
25.2731399536133
34.0472106933594
37.8620262145996
50.7370223999023
56.2685012817383
67.8083114624023
89.5527496337891
91.9370040893555
86.8823776245117
87.6453399658203
94.702751159668
86.5009002685547
94.1305236816406
99.6620025634766
103.572189331055
115.207366943359
116.733299255371
116.256446838379
117.59162902832
119.022186279297
115.302742004395
103.476821899414
97.4684906005859
104.62126159668
112.25089263916
124.744407653809
122.93236541748
124.649032592773
128.940704345703
130.752731323242
120.262001037598
108.245338439941
108.722190856934
109.389778137207
114.921257019043
128.749954223633
134.090698242188
140.194396972656
146.202728271484
142.578659057617
133.232360839844
122.074035644531
105.574966430664
97.7546005249023
107.196258544922
122.93236541748
137.524032592773
154.976806640625
165.181427001953
161.366607666016
150.112915039063
133.327728271484
120.73885345459
117.114776611328
114.635147094727
118.831443786621
135.330505371094
149.922180175781
158.028656005859
162.3203125
158.1240234375
153.164764404297
148.968475341797
138.096252441406
130.657363891602
143.627731323242
164.51383972168
176.053649902344
188.356414794922
184.064758300781
192.171234130859
198.65641784668
179.963836669922
165.276794433594
171.380493164063
174.146240234375
162.892547607422
162.41569519043
170.331420898438
162.034210205078
147.824020385742
140.575881958008
133.709213256836
129.417556762695
122.264778137207
104.430519104004
95.1795959472656
83.3536758422852
96.6101531982422
92.318489074707
93.2721939086914
79.8249740600586
70.0018310546875
37.3851737976074
25.4638805389404
17.738883972168
3.24259161949158
-8.0111083984375
-17.9296245574951
-23.2703628540039
-19.2648086547852
-25.7499923706055
-41.1999855041504
-49.0203552246094
-61.8953514099121
-74.5796051025391
-77.6314544677734
-55.6962776184082
-58.0805358886719
-55.3147964477539
-58.0805358886719
-70.9555358886719
-80.9694213867188
-92.4138565063477
-100.424964904785
-95.4657135009766
-100.997192382813
-104.049041748047
-105.193481445313
-100.234230041504
-101.092559814453
-97.2777481079102
-103.286079406738
-120.73885345459
-130.37126159668
-135.998107910156
-142.674026489258
-143.627731323242
-139.622177124023
-129.799026489258
-123.123107910156
-122.83699798584
-121.501815795898
-119.212921142578
-121.597183227539
-122.360145568848
-126.174957275391
-133.804580688477
-141.148101806641
-146.488845825195
-145.344390869141
-144.009216308594
-142.864776611328
-152.497177124023
-144.390701293945
-134.853652954102
-134.376815795898
-139.717544555664
-142.864776611328
-140.003662109375
-130.561996459961
-123.599960327148
-122.360145568848
-121.024963378906
-123.599960327148
-125.888847351074
-120.643478393555
-111.011077880859
-114.25366973877
-103.095336914063
-110.248115539551
-109.771263122559
-100.901817321777
-84.5934906005859
-73.6259002685547
-71.4323883056641
-69.1434936523438
-69.9064559936523
-74.7703475952148
-77.9175643920898
-80.2064590454102
-87.2638626098633
-85.1657104492188
-78.9666442871094
-67.1407165527344
-66.6638641357422
-64.8518295288086
-57.2222023010254
-50.0694274902344
-44.5379486083984
-49.9740562438965
-47.017578125
-52.5490570068359
-47.3036880493164
-47.4944305419922
-34.6194343566895
-30.4231376647949
-28.8018417358398
-29.4694347381592
-32.6166572570801
-29.5648059844971
-26.1314735412598
-33.2842483520508
-28.4203605651855
-24.6055469512939
-15.5453653335571
-8.29721927642822
-4.1962947845459
-5.81759071350098
-17.2620315551758
-31.4722118377686
-34.6194343566895
-33.6657295227051
-24.3194370269775
-15.7361059188843
-17.1666603088379
-16.7851791381836
-2.95648050308228
8.29721927642822
1.43055510520935
-0.286111027002335
-3.24259161949158
1.52592539787292
-6.77129411697388
-9.9185152053833
-1.43055510520935
4.29166507720947
12.4935140609741
11.9212923049927
23.4611034393311
25.3685111999512
9.9185152053833
7.82036781311035
20.409252166748
39.4833221435547
39.7694320678711
37.4805450439453
35.2870254516602
34.9055442810059
40.7231369018555
35.5731353759766
30.6138782501221
33.1888771057129
39.9601707458496
36.8129501342773
33.5703582763672
37.0036926269531
34.7148017883301
33.3796195983887
37.1944313049316
30.2323970794678
23.7472152709961
30.3277683258057
37.9573936462402
38.3388748168945
38.9110984802246
39.864803314209
40.1509132385254
44.251838684082
42.9166526794434
37.5759124755859
35.7638778686523
29.278694152832
22.6981410980225
26.6083240509033
37.1944313049316
47.5897979736328
51.0231323242188
48.9249839782715
51.8814659118652
58.652759552002
52.2629470825195
40.0555419921875
44.0610961914063
47.9712791442871
44.7286911010742
47.017578125
44.5379486083984
37.4805450439453
36.5268402099609
34.0472106933594
31.9490642547607
32.9027671813965
31.6629524230957
28.8018417358398
29.8509159088135
37.2898025512695
41.8675804138184
58.4620170593262
68.3805313110352
81.4462738037109
87.4546051025391
79.2527542114258
73.1490478515625
59.0342407226563
52.2629470825195
55.1240577697754
56.0777587890625
55.6962776184082
49.4018363952637
39.197208404541
29.3740653991699
22.2212886810303
25.9407329559326
32.8073959350586
34.7148017883301
33.9518394470215
32.8073959350586
20.5999927520752
17.9296245574951
17.738883972168
19.8370304107666
22.9842510223389
19.5509204864502
21.3629570007324
16.7851791381836
18.1203651428223
5.1499981880188
12.302773475647
14.8777732849121
13.1611070632935
17.738883972168
21.4583263397217
21.3629570007324
16.8805503845215
12.9703664779663
8.67870044708252
12.2074031829834
13.7333288192749
3.5287024974823
7.6296272277832
2.8611102104187
10.5861072540283
12.302773475647
8.0111083984375
7.6296272277832
1.23981440067291
1.43055510520935
1.52592539787292
1.43055510520935
-1.81203651428223
-8.20184898376465
-17.738883972168
-41.0092468261719
-39.2925796508789
-82.0184936523438
-117.877738952637
-186.067535400391
-193.029571533203
-179.296234130859
-195.509201049805
-155.262908935547
-104.144409179688
-82.2092361450195
-87.9314498901367
-99.6620025634766
-105.76570892334
-65.7101669311523
18.8833274841309
72.7675704956055
146.774948120117
346.671173095703
618.953491210938
879.505249023438
1115.8330078125
1263.75231933594
1299.134765625
1314.48937988281
1267.94860839844
1078.44775390625
855.185852050781
666.3525390625
469.412811279297
250.537887573242
0.572222054004669
-251.586959838867
-412.953582763672
-474.276702880859
-512.043334960938
-448.908203125
-515.953552246094
-611.5146484375
-649.28125
-690.385864257813
-717.661804199219
-721.476623535156
-704.405334472656
-648.232177734375
-565.164611816406
-502.601684570313
-466.265594482422
-448.6220703125
-460.924865722656
-490.394287109375
-507.656311035156
-503.650756835938
-481.906341552734
-436.700775146484
-376.808227539063
-329.504516601563
-294.312866210938
-269.898071289063
-266.273986816406
-275.620269775391
-291.737884521484
-305.852691650391
-294.598968505859
-258.072143554688
-211.912887573242
-169.473098754883
-137.333282470703
-113.586074829102
-105.098114013672
-102.52311706543
-104.144409179688
-113.299964904785
-104.525894165039
-90.6018218994141
-61.5138702392578
-40.2462844848633
-27.2759170532227
-15.0685138702393
3.62407302856445
8.77407169342041
14.0194396972656
4.1962947845459
9.82314491271973
21.1722145080566
28.8972129821777
31.9490642547607
40.2462844848633
50.2601699829102
53.8842430114746
61.1323890686035
72.1953506469727
92.8907089233398
104.62126159668
108.054595947266
108.245338439941
105.479598999023
92.1277465820313
85.1657104492188
93.4629364013672
103.476821899414
115.684219360352
122.83699798584
122.169403076172
125.030517578125
128.36848449707
132.946258544922
133.327728271484
125.507369995117
127.986999511719
137.237915039063
139.526809692383
143.723098754883
154.023101806641
154.499954223633
143.15087890625
129.989776611328
114.444404602051
104.525894165039
105.956443786621
113.299964904785
120.83422088623
126.07958984375
135.711990356445
146.870330810547
146.393478393555
130.657363891602
114.34903717041
105.86107635498
103.667556762695
98.899040222168
123.409217834473
139.908294677734
144.009216308594
153.355499267578
166.135131835938
164.227722167969
147.34716796875
142.101806640625
145.821243286133
138.286987304688
141.434219360352
167.088836669922
187.593460083008
191.217529296875
186.162902832031
174.623092651367
159.363830566406
143.818466186523
136.474960327148
130.37126159668
152.687911987305
161.557357788086
179.105499267578
179.010131835938
208.384185791016
194.36474609375
189.691604614258
181.68049621582
166.325866699219
162.606430053711
166.325866699219
172.238830566406
172.906433105469
177.388824462891
182.157348632813
175.1953125
155.83512878418
145.2490234375
126.07958984375
106.242561340332
90.5064544677734
97.5638580322266
101.760154724121
93.367561340332
85.2610855102539
82.7814559936523
66.1870193481445
67.3314590454102
45.2055397033691
36.431468963623
35.9546165466309
27.5620288848877
23.3657341003418
19.7416610717773
9.82314491271973
5.62685012817383
-10.1092557907104
-35.7638778686523
-48.734245300293
-47.017578125
-53.6935005187988
-59.6064605712891
-59.0342407226563
-56.6499824523926
-54.7425765991211
-56.5546112060547
-68.1897964477539
-78.012939453125
-90.3157119750977
-102.332374572754
-115.302742004395
-118.831443786621
-124.839775085449
-134.66291809082
-134.472183227539
-136.379592895508
-126.174957275391
-132.46940612793
-134.472183227539
-145.153656005859
-153.355499267578
-153.73698425293
-155.358276367188
-157.933288574219
-157.265686035156
-151.257354736328
-155.930511474609
-162.51106262207
-159.745315551758
-168.424026489258
-172.238830566406
-168.328643798828
-158.791610717773
-165.086059570313
-166.325866699219
-161.938842773438
-161.938842773438
-167.756423950195
-171.857345581055
-167.470321655273
-161.461990356445
-169.377716064453
-170.045318603516
-158.1240234375
-153.450881958008
-146.679580688477
-138.668472290039
-136.76106262207
-137.047180175781
-137.428665161133
-129.989776611328
-123.123107910156
-125.984222412109
-125.507369995117
-126.365699768066
-126.270332336426
-119.212921142578
-120.357368469238
-124.362922668457
-115.302742004395
-101.569412231445
-94.2258987426758
-84.4027481079102
-82.3999710083008
-84.5934906005859
-93.8444137573242
-81.3508987426758
-75.0564575195313
-74.7703475952148
-66.3777542114258
-58.4620170593262
-39.864803314209
-33.1888771057129
-37.2898025512695
-43.9657249450684
-52.9305381774902
-53.8842430114746
-46.1592445373535
-45.7777633666992
-42.4398002624512
-32.8073959350586
-29.9462871551514
-30.0416564941406
-28.6111011505127
-22.6027698516846
-25.2731399536133
-20.3138828277588
-18.1203651428223
-15.2592544555664
-9.82314491271973
-10.3953666687012
-4.10092449188232
4.67314672470093
3.91018390655518
4.95925760269165
-3.91018390655518
-6.48518323898315
3.5287024974823
6.29444265365601
18.8833274841309
19.8370304107666
11.8259220123291
17.0712909698486
17.8342533111572
12.9703664779663
3.91018390655518
-2.28888821601868
-2.8611102104187
-1.52592539787292
3.71944332122803
12.3981437683105
18.1203651428223
23.7472152709961
30.8046188354492
35.8592491149902
34.4286918640137
28.6111011505127
26.6083240509033
27.1805477142334
27.5620288848877
32.3305435180664
38.4342460632324
38.6249885559082
35.7638778686523
38.148136138916
38.7203598022461
28.9925842285156
22.9842510223389
30.70924949646
38.5296173095703
43.5842437744141
50.5462799072266
51.6907234191895
47.9712791442871
51.5953521728516
50.0694274902344
38.148136138916
32.5212860107422
32.7120246887207
31.0907306671143
33.5703582763672
37.0036926269531
43.1073951721191
47.017578125
45.8731346130371
41.1046180725098
38.9110984802246
44.251838684082
56.6499824523926
66.1870193481445
60.8462753295898
57.6990547180176
67.7129440307617
71.4323883056641
65.0425720214844
61.4184989929199
62.8490524291992
63.3259048461914
66.6638641357422
67.8083114624023
60.274055480957
56.0777587890625
57.7944259643555
60.4647941589355
61.0370178222656
55.3147964477539
48.2573928833008
40.913875579834
35.0009155273438
36.9083213806152
40.5323944091797
42.3444290161133
46.5407257080078
49.9740562438965
55.1240577697754
60.8462753295898
53.5027618408203
47.9712791442871
43.1073951721191
38.2435073852539
27.5620288848877
21.7444381713867
26.0361022949219
18.2157344818115
18.5972156524658
10.7768487930298
4.48240613937378
1.71666610240936
-5.7222204208374
-1.81203651428223
11.4444408416748
20.8861045837402
29.0879535675049
33.8564720153809
27.3712882995605
23.3657341003418
23.1749935150146
24.891658782959
31.0907306671143
26.6083240509033
24.5101776123047
12.7796258926392
22.0305480957031
23.1749935150146
19.1694374084473
17.1666603088379
17.4527721405029
9.9185152053833
9.25092315673828
15.8314762115479
8.96481227874756
4.38703584671021
-0.667592406272888
1.43055510520935
9.9185152053833
12.7796258926392
17.0712909698486
24.3194370269775
19.074068069458
14.0194396972656
14.5916624069214
22.2212886810303
21.4583263397217
21.5536975860596
25.6546211242676
34.0472106933594
34.2379531860352
29.8509159088135
26.8944358825684
26.4175834655762
28.3249912261963
21.4583263397217
18.9786968231201
22.4120292663574
12.6842555999756
-1.81203651428223
-8.10647869110107
-5.91296100616455
-2.09814739227295
-1.23981440067291
1.81203651428223
1.04907369613647
7.6296272277832
-0.190740674734116
-4.7685170173645
-10.6814785003662
-13.8286991119385
-27.4666576385498
-65.7101669311523
-100.997192382813
-130.657363891602
-167.565689086914
-198.75178527832
-218.970306396484
-233.085113525391
-220.591598510742
-173.764755249023
-127.605514526367
-95.6564483642578
-79.5388641357422
-85.6425628662109
-92.318489074707
-65.137939453125
-4.95925760269165
44.1564674377441
119.403663635254
303.945281982422
561.922058105469
821.520080566406
1053.93762207031
1200.52185058594
1243.81994628906
1259.46069335938
1215.68566894531
1185.54870605469
817.609924316406
658.722961425781
496.879455566406
292.023986816406
29.6601753234863
-30.6138782501221
-402.081359863281
-438.894317626953
-458.826690673828
-496.021148681641
-467.314666748047
-573.366455078125
-624.008117675781
-681.993286132813
-720.23681640625
-722.716430664063
-690.29052734375
-634.022033691406
-554.197021484375
-502.029479980469
-456.156341552734
-440.897094726563
-455.870239257813
-484.86279296875
-510.708160400391
-512.901672363281
-482.955413818359
-433.076721191406
-375.282287597656
-320.825836181641
-293.931396484375
-281.342498779297
-280.579528808594
-291.833251953125
-301.27490234375
-299.653594970703
-274.094360351563
-249.011962890625
-208.765670776367
-169.759201049805
-141.434219360352
-121.787925720215
-114.444404602051
-109.771263122559
-105.288856506348
-105.098114013672
-103.381446838379
-87.8360824584961
-59.1296119689941
-36.1453590393066
-25.177770614624
-19.4555492401123
-18.0249938964844
-16.4990692138672
-9.537034034729
-5.53147983551025
-4.29166507720947
8.20184898376465
26.1314735412598
42.1536903381348
58.652759552002
66.7592391967773
65.805534362793
70.0018310546875
81.16015625
88.6944122314453
86.8823776245117
88.6944122314453
100.615707397461
105.86107635498
104.049041748047
107.005523681641
109.866630554199
115.111999511719
123.218475341797
125.888847351074
130.27587890625
131.420333862305
119.785148620605
108.436073303223
104.049041748047
103.381446838379
108.436073303223
113.776817321777
118.926811218262
126.937919616699
124.744407653809
120.548110961914
118.163848876953
102.237007141113
86.8823776245117
78.7759017944336
86.8823776245117
87.3592300415039
110.629592895508
119.403663635254
117.973114013672
119.880516052246
125.316627502441
118.163848876953
104.239784240723
102.52311706543
108.817558288574
117.210144042969
130.561996459961
151.352722167969
164.704574584961
166.421249389648
151.066619873047
154.023101806641
153.450881958008
138.477737426758
127.224029541016
134.56755065918
150.589767456055
167.661056518555
176.911987304688
180.536056518555
177.198089599609
164.799942016602
148.396255493164
138.76383972168
135.807357788086
144.199951171875
155.644393920898
175.672164916992
193.506423950195
204.474014282227
197.893447875977
213.248077392578
192.934204101563
173.383270263672
162.224945068359
157.265686035156
161.748092651367
173.478652954102
182.824935913086
181.108276367188
184.255493164063
189.691604614258
175.386047363281
153.260131835938
135.616622924805
121.120330810547
115.779594421387
111.964782714844
116.924034118652
119.880516052246
109.389778137207
99.4712677001953
80.3971939086914
65.805534362793
43.2027626037598
18.3111057281494
12.6842555999756
14.4962921142578
10.0138854980469
3.05185079574585
1.62129580974579
-2.95648050308228
-15.2592544555664
-24.2240657806396
-44.7286911010742
-58.0805358886719
-63.7073860168457
-70.9555358886719
-74.6749725341797
-70.6694183349609
-72.1953506469727
-79.4434967041016
-87.3592300415039
-91.9370040893555
-89.8388595581055
-98.5175628662109
-111.297187805176
-105.574966430664
-105.670333862305
-116.44718170166
-118.354591369629
-133.327728271484
-136.76106262207
-133.995330810547
-135.902740478516
-143.532363891602
-138.95458984375
-136.188842773438
-135.807357788086
-127.796257019043
-124.362922668457
-127.605514526367
-136.379592895508
-147.53791809082
-152.020324707031
-158.314758300781
-161.366607666016
-155.167541503906
-149.731430053711
-140.957366943359
-134.56755065918
-136.570327758789
-131.706436157227
-127.796257019043
-125.793479919434
-124.553665161133
-124.076812744141
-130.46662902832
-141.243469238281
-147.061065673828
-141.911071777344
-131.992553710938
-121.69255065918
-111.297187805176
-111.011077880859
-118.068481445313
-118.259223937988
-116.733299255371
-116.828666687012
-118.354591369629
-122.93236541748
-120.73885345459
-120.262001037598
-121.69255065918
-114.730522155762
-105.956443786621
-101.474044799805
-97.0870056152344
-95.3703384399414
-96.2286758422852
-92.6045989990234
-83.5444183349609
-85.9286727905273
-86.5962677001953
-76.9638671875
-61.99072265625
-52.5490570068359
-48.6388740539551
-45.4916534423828
-60.5601654052734
-62.2768325805664
-59.3203506469727
-60.274055480957
-59.7972030639648
-49.4972076416016
-37.3851737976074
-27.7527694702148
-19.1694374084473
-18.1203651428223
-28.5157318115234
-31.8536930084229
-27.1805477142334
-26.5129547119141
-25.9407329559326
-26.6083240509033
-23.5564746856689
-11.0629596710205
-0.47685170173645
1.62129580974579
-2.28888821601868
-1.52592539787292
3.33796191215515
-2.1935179233551
-6.6759238243103
1.52592539787292
7.72499752044678
10.9675893783569
15.8314762115479
18.4064750671387
16.8805503845215
7.0574049949646
-3.62407302856445
-6.19907188415527
-4.48240613937378
-2.00277709960938
-1.33518481254578
-0.381481349468231
4.57777643203735
3.8148136138916
1.04907369613647
4.10092449188232
14.5916624069214
8.77407169342041
-0.0953703373670578
1.52592539787292
11.9212923049927
17.5481433868408
19.6462898254395
23.5564746856689
27.8481388092041
37.1944313049316
48.1620216369629
49.783317565918
44.0610961914063
35.8592491149902
35.9546165466309
41.3907279968262
39.1018409729004
35.0009155273438
34.4286918640137
35.7638778686523
33.9518394470215
37.4805450439453
42.0583190917969
36.3360977172852
39.1018409729004
47.7805404663086
49.5925750732422
52.5490570068359
55.7916488647461
48.1620216369629
45.0148010253906
35.5731353759766
45.1101722717285
50.355541229248
49.4972076416016
48.2573928833008
53.5027618408203
60.3694267272949
61.4184989929199
59.2249794006348
50.2601699829102
38.6249885559082
35.0009155273438
40.8185043334961
47.4944305419922
47.6851692199707
55.6962776184082
56.0777587890625
58.4620170593262
59.3203506469727
54.3610954284668
47.3990592956543
48.8296127319336
45.5870208740234
43.7749862670898
43.5842437744141
52.3583183288574
52.9305381774902
48.9249839782715
48.3527641296387
47.1129493713379
51.4999847412109
48.734245300293
53.5981292724609
53.5981292724609
50.355541229248
48.5435028076172
36.3360977172852
39.197208404541
33.5703582763672
35.9546165466309
39.864803314209
32.3305435180664
25.177770614624
21.4583263397217
16.4990692138672
12.3981437683105
15.6407356262207
21.0768451690674
29.9462871551514
31.3768424987793
18.8833274841309
13.5425882339478
11.635181427002
20.2185115814209
16.022216796875
14.5916624069214
16.9759197235107
25.6546211242676
29.3740653991699
31.7583236694336
38.3388748168945
36.431468963623
41.7722091674805
39.197208404541
38.4342460632324
32.4259147644043
22.125919342041
23.2703628540039
25.5592517852783
19.1694374084473
18.5972156524658
13.5425882339478
9.44166374206543
3.91018390655518
2.5749990940094
10.8722190856934
17.1666603088379
16.1175880432129
10.7768487930298
5.34073925018311
2.00277709960938
-3.62407302856445
5.34073925018311
7.72499752044678
-0.286111027002335
2.28888821601868
2.5749990940094
-3.147221326828
0.667592406272888
2.09814739227295
-1.14444410800934
2.1935179233551
1.43055510520935
-10.7768487930298
-12.0166625976563
-18.8833274841309
-25.0823993682861
-17.738883972168
-17.738883972168
-15.6407356262207
-35.2870254516602
-24.7962875366211
-14.5916624069214
-12.2074031829834
-12.1120328903198
-16.30832862854
-28.7064723968506
-31.1861019134521
-16.7851791381836
-14.7824029922485
-18.3111057281494
-28.5157318115234
-51.5953521728516
-80.3971939086914
-73.8166427612305
-135.521255493164
-169.282348632813
-159.936065673828
-223.929565429688
-227.362884521484
-205.332336425781
-148.205505371094
-144.962921142578
-103.381446838379
-103.286079406738
-110.438850402832
-87.0731201171875
-54.3610954284668
5.43610954284668
53.3120193481445
176.053649902344
402.462829589844
661.679443359375
598.6396484375
1176.29772949219
1106.20056152344
1251.8310546875
1255.26440429688
1155.22094726563
957.518188476563
794.721069335938
657.101623535156
486.197998046875
268.944366455078
4.7685170173645
-236.804550170898
-362.502655029297
-411.427642822266
-468.173004150391
-509.372985839844
-527.39794921875
-559.633178710938
-600.16552734375
-638.599792480469
-663.777587890625
-656.910888671875
-620.956298828125
-565.355346679688
-509.086883544922
-464.835021972656
-430.024871826172
-418.198944091797
-424.874877929688
-443.948944091797
-471.320220947266
-473.132263183594
-447.000793457031
-409.997100830078
-359.927673339844
-308.809173583984
-272.663787841797
-257.499908447266
-258.73974609375
-264.461944580078
-270.947143554688
-267.609161376953
-244.815658569336
-212.675857543945
-182.348083496094
-151.73420715332
-120.548110961914
-106.051818847656
-105.479598999023
-103.286079406738
-103.381446838379
-100.138854980469
-80.4925689697266
-49.4018363952637
-26.1314735412598
-6.6759238243103
0.572222054004669
12.2074031829834
23.8425846099854
0.9537034034729
-2.47962880134583
5.62685012817383
12.7796258926392
31.6629524230957
39.6740608215332
44.5379486083984
44.251838684082
50.1647987365723
56.8407211303711
65.9009017944336
66.6638641357422
61.8953514099121
59.701831817627
72.7675704956055
83.925895690918
84.0212707519531
82.6860809326172
70.9555358886719
73.1490478515625
87.3592300415039
99.2805252075195
105.479598999023
109.00830078125
109.103668212891
94.9888610839844
97.3731155395508
95.751823425293
96.6101531982422
91.8416366577148
99.6620025634766
114.444404602051
124.649032592773
133.232360839844
130.943481445313
117.49626159668
105.86107635498
96.8962631225586
88.8851547241211
94.8934860229492
103.190704345703
117.210144042969
125.030517578125
128.559219360352
131.420333862305
129.703659057617
126.651809692383
112.537002563477
103.572189331055
105.479598999023
123.9814453125
141.720321655273
150.685134887695
159.268463134766
165.086059570313
167.184204101563
157.265686035156
150.017547607422
143.818466186523
138.000885009766
147.156433105469
149.54069519043
154.976806640625
163.083282470703
171.571243286133
168.328643798828
156.693466186523
150.971252441406
136.474960327148
141.624954223633
144.676803588867
146.584213256836
154.881439208984
175.386047363281
174.813827514648
184.827713012695
187.021240234375
179.58235168457
165.753646850586
159.936065673828
150.303649902344
145.2490234375
154.786056518555
165.086059570313
167.374938964844
165.944396972656
160.126800537109
145.058288574219
125.698104858398
114.539779663086
114.25366973877
111.869407653809
105.098114013672
104.812004089355
107.291633605957
102.713859558105
87.3592300415039
69.0481262207031
50.1647987365723
41.6768379211426
27.0851764678955
16.7851791381836
17.8342533111572
19.074068069458
8.67870044708252
-4.48240613937378
-13.0657367706299
-24.7962875366211
-43.0120239257813
-52.2629470825195
-54.9333152770996
-58.9388694763184
-56.7453536987305
-53.7888717651367
-52.2629470825195
-49.9740562438965
-50.0694274902344
-57.7944259643555
-75.4379425048828
-99.0897827148438
-106.051818847656
-119.68977355957
-113.20458984375
-117.019409179688
-124.649032592773
-124.458290100098
-119.117553710938
-119.68977355957
-121.120330810547
-125.793479919434
-128.845321655273
-131.706436157227
-125.125885009766
-116.35181427002
-121.978668212891
-127.414772033691
-130.561996459961
-124.076812744141
-117.305519104004
-119.403663635254
-123.218475341797
-132.374038696289
-136.66569519043
-141.148101806641
-139.812911987305
-138.668472290039
-148.777725219727
-153.927734375
-149.445327758789
-139.812911987305
-138.85920715332
-140.385147094727
-134.472183227539
-138.286987304688
-144.962921142578
-136.093475341797
-128.36848449707
-125.888847351074
-116.256446838379
-116.637924194336
-113.490707397461
-120.643478393555
-121.501815795898
-118.354591369629
-120.452735900879
-126.651809692383
-128.463851928711
-123.790702819824
-112.441627502441
-100.997192382813
-98.8036727905273
-103.858299255371
-104.812004089355
-97.182373046875
-89.0758972167969
-79.3481216430664
-67.7129440307617
-64.9472045898438
-68.4759063720703
-72.1953506469727
-69.5249786376953
-61.7999801635742
-53.2166481018066
-47.4944305419922
-51.3092422485352
-52.7397994995117
-48.4481315612793
-52.0722045898438
-51.5953521728516
-36.6222114562988
-23.0796222686768
-16.022216796875
-12.588885307312
-16.30832862854
-20.3138828277588
-16.1175880432129
-12.7796258926392
-20.0277709960938
-27.2759170532227
-17.738883972168
-8.67870044708252
-11.3490705490112
-4.10092449188232
2.67036962509155
-4.1962947845459
-6.77129411697388
-11.9212923049927
-23.5564746856689
-21.9351787567139
-18.5018463134766
-24.9870281219482
-23.3657341003418
-16.4990692138672
-15.8314762115479
-11.4444408416748
-16.2129573822021
-9.82314491271973
1.43055510520935
-3.8148136138916
-3.71944332122803
2.38425850868225
10.7768487930298
18.0249938964844
26.9898052215576
23.5564746856689
20.3138828277588
26.4175834655762
24.891658782959
19.9324016571045
25.7499923706055
31.8536930084229
36.7175827026367
40.0555419921875
44.1564674377441
42.4398002624512
53.2166481018066
50.4509086608887
38.6249885559082
16.022216796875
27.4666576385498
27.2759170532227
22.3166599273682
26.0361022949219
47.6851692199707
41.5814666748047
35.5731353759766
35.5731353759766
32.8073959350586
23.5564746856689
25.177770614624
38.148136138916
38.3388748168945
31.9490642547607
37.6712837219238
42.4398002624512
39.197208404541
38.8157272338867
37.6712837219238
37.8620262145996
38.148136138916
42.1536903381348
38.9110984802246
33.5703582763672
35.0009155273438
48.5435028076172
47.3036880493164
62.5629425048828
58.7481307983398
42.630542755127
47.5897979736328
51.1185035705566
53.4073905944824
43.0120239257813
53.121280670166
51.1185035705566
47.4944305419922
33.5703582763672
32.3305435180664
37.5759124755859
43.1073951721191
39.9601707458496
38.3388748168945
41.2953567504883
50.832389831543
38.9110984802246
30.70924949646
30.2323970794678
27.1805477142334
24.2240657806396
24.1286964416504
25.9407329559326
29.5648059844971
35.1916542053223
36.0499877929688
30.3277683258057
28.1342506408691
29.278694152832
27.0851764678955
25.3685111999512
42.2490615844727
51.8814659118652
52.7397994995117
51.0231323242188
41.3907279968262
36.3360977172852
44.8240585327148
42.7259140014648
32.3305435180664
29.0879535675049
22.8888816833496
19.360179901123
26.0361022949219
26.1314735412598
37.0036926269531
45.3962821960449
58.7481307983398
58.0805358886719
51.4999847412109
44.4425773620605
35.5731353759766
32.1398048400879
26.7036952972412
16.30832862854
11.635181427002
12.8749961853027
1.52592539787292
0.667592406272888
6.77129411697388
5.91296100616455
3.71944332122803
5.81759071350098
6.77129411697388
6.48518323898315
14.2101802825928
11.4444408416748
13.4472179412842
13.8286991119385
3.147221326828
-0.47685170173645
-1.14444410800934
-1.71666610240936
-4.48240613937378
2.00277709960938
0.762962698936462
2.5749990940094
9.06018257141113
16.2129573822021
14.9731435775757
10.2999963760376
18.1203651428223
15.8314762115479
26.7036952972412
24.0333251953125
16.5944385528564
7.53425693511963
5.62685012817383
4.10092449188232
4.1962947845459
2.1935179233551
0
-4.00555419921875
-18.3111057281494
-27.8481388092041
-23.1749935150146
-18.9786968231201
-22.7935104370117
-27.5620288848877
-29.7555465698242
-34.9055442810059
-57.4129447937012
-94.03515625
-121.501815795898
-147.633285522461
-174.432357788086
-187.87956237793
-201.517532348633
-198.179565429688
-163.655502319336
-126.651809692383
-97.6592254638672
-83.2583084106445
-83.1629333496094
-83.1629333496094
-65.805534362793
-53.2166481018066
33.3796195983887
106.337928771973
282.10546875
538.556335449219
799.0126953125
1012.07006835938
1139.77087402344
1202.33386230469
1239.2421875
1197.85144042969
1044.49597167969
867.488586425781
709.4599609375
534.169250488281
308.046203613281
37.1944313049316
-193.792526245117
-325.975830078125
-377.285064697266
-327.787872314453
-468.07763671875
-517.670227050781
-516.811889648438
-614.375732421875
-663.968322753906
-693.628479003906
-689.432189941406
-667.210876464844
-612.182189941406
-571.077575683594
-514.904479980469
-474.562805175781
-460.638732910156
-471.606323242188
-483.05078125
-501.361877441406
-497.451690673828
-479.998931884766
-441.564666748047
-385.773010253906
-330.553588867188
-289.830474853516
-271.900848388672
-264.271209716797
-269.993438720703
-273.236022949219
-273.712860107422
-268.753631591797
-242.622146606445
-209.337890625
-166.421249389648
-139.240692138672
-122.455513000488
-112.441627502441
-100.234230041504
-104.430519104004
-109.675888061523
-100.711082458496
-89.9342269897461
-74.0073852539063
-54.3610954284668
-37.0036926269531
-29.7555465698242
-21.4583263397217
-12.6842555999756
-5.81759071350098
-0.381481349468231
8.3925895690918
6.19907188415527
14.5916624069214
29.0879535675049
41.2953567504883
43.5842437744141
41.962947845459
45.5870208740234
55.5055389404297
71.3370132446289
86.4055252075195
98.0407104492188
98.6129302978516
102.713859558105
105.76570892334
93.8444137573242
97.2777481079102
116.542556762695
121.69255065918
125.221252441406
131.897186279297
130.180511474609
130.848098754883
132.278656005859
131.324951171875
130.752731323242
135.711990356445
109.00830078125
119.59440612793
131.992553710938
133.136993408203
128.654586791992
122.741630554199
115.111999511719
109.580520629883
105.86107635498
103.953666687012
103.381446838379
117.019409179688
134.949035644531
149.922180175781
160.889770507813
152.592544555664
133.613845825195
125.602737426758
120.071258544922
106.624038696289
113.872184753418
112.918479919434
138.477737426758
150.780502319336
147.919403076172
143.341613769531
134.186065673828
137.905517578125
136.379592895508
133.136993408203
126.747184753418
132.56477355957
145.535140991211
156.216613769531
166.039764404297
165.658279418945
155.644393920898
142.483291625977
130.657363891602
122.83699798584
126.937919616699
159.936065673828
168.80549621582
177.961059570313
187.498092651367
190.549942016602
191.599014282227
184.160125732422
171.475875854492
167.279571533203
162.892547607422
154.881439208984
157.456436157227
165.276794433594
159.268463134766
149.159210205078
145.344390869141
136.093475341797
131.229583740234
132.660140991211
125.316627502441
123.695327758789
128.654586791992
129.417556762695
126.270332336426
100.043487548828
83.7351608276367
73.1490478515625
51.5953521728516
36.1453590393066
31.4722118377686
19.6462898254395
21.1722145080566
17.6435127258301
23.3657341003418
27.0851764678955
20.6953639984131
-7.15277528762817
-34.7148017883301
-39.0064697265625
-48.3527641296387
-68.0944213867188
-75.3425674438477
-77.6314544677734
-76.5823822021484
-72.0046081542969
-68.7620162963867
-72.0046081542969
-88.2175674438477
-99.8527450561523
-105.193481445313
-114.158294677734
-119.499038696289
-122.550888061523
-122.93236541748
-117.686996459961
-114.444404602051
-110.820335388184
-104.144409179688
-108.340705871582
-127.224029541016
-140.957366943359
-140.194396972656
-143.055511474609
-144.486068725586
-134.56755065918
-126.270332336426
-126.556442260742
-135.235137939453
-141.434219360352
-142.006439208984
-143.818466186523
-140.099029541016
-136.951812744141
-138.573104858398
-136.570327758789
-139.240692138672
-145.43977355957
-139.622177124023
-129.989776611328
-127.986999511719
-125.411994934082
-117.877738952637
-121.883293151855
-134.66291809082
-132.850875854492
-124.649032592773
-124.553665161133
-121.69255065918
-121.501815795898
-124.93514251709
-119.68977355957
-109.103668212891
-104.716636657715
-101.474044799805
-92.6999740600586
-96.7055282592773
-96.4194107055664
-94.8934860229492
-88.5990447998047
-76.2009048461914
-75.9147872924805
-78.5851593017578
-69.3342361450195
-70.5740509033203
-68.6666412353516
-75.3425674438477
-73.4351654052734
-67.2360916137695
-71.8138656616211
-70.5740509033203
-84.0212707519531
-81.0647888183594
-70.3833084106445
-67.7129440307617
-70.1925735473633
-73.2444229125977
-65.7101669311523
-63.4212760925293
-46.3499870300293
-38.148136138916
-26.9898052215576
-27.4666576385498
-29.6601753234863
-27.5620288848877
-26.3222141265869
-28.9925842285156
-35.6685066223145
-41.962947845459
-44.4425773620605
-38.0527648925781
-31.0907306671143
-30.8046188354492
-24.3194370269775
-16.022216796875
-16.4990692138672
-13.8286991119385
-14.4009208679199
-20.5999927520752
-16.30832862854
-4.57777643203735
-0.762962698936462
-7.24814605712891
6.00833129882813
11.2537002563477
2.95648050308228
-2.09814739227295
-6.96203470230103
-6.96203470230103
-1.14444410800934
1.71666610240936
10.9675893783569
20.1231422424316
16.6898097991943
19.7416610717773
18.3111057281494
25.9407329559326
19.1694374084473
15.2592544555664
18.1203651428223
22.125919342041
26.6083240509033
28.6111011505127
23.8425846099854
9.34629344940186
10.5861072540283
13.4472179412842
11.8259220123291
15.8314762115479
17.2620315551758
27.7527694702148
47.1129493713379
53.7888717651367
55.9823913574219
44.6333198547363
43.1073951721191
45.1101722717285
47.1129493713379
47.4944305419922
47.017578125
52.0722045898438
61.4184989929199
61.7046089172363
65.5194244384766
57.6990547180176
60.274055480957
53.121280670166
47.3036880493164
45.3962821960449
40.5323944091797
42.2490615844727
41.6768379211426
46.7314682006836
54.4564628601074
52.6444282531738
56.5546112060547
52.453685760498
49.8786888122559
50.0694274902344
45.9685020446777
39.2925796508789
37.4805450439453
37.4805450439453
41.0092468261719
41.6768379211426
40.4370231628418
43.8703575134277
46.1592445373535
47.3036880493164
44.8240585327148
37.5759124755859
32.1398048400879
28.2296199798584
34.3333206176758
28.1342506408691
33.4749908447266
51.5953521728516
44.3472061157227
43.2027626037598
47.9712791442871
43.1073951721191
47.8759117126465
56.1731300354004
60.5601654052734
62.1814613342285
59.701831817627
55.5055389404297
44.0610961914063
42.3444290161133
44.6333198547363
32.5212860107422
31.5675830841064
44.3472061157227
47.7805404663086
51.6907234191895
54.7425765991211
55.9823913574219
40.2462844848633
29.3740653991699
20.6953639984131
10.4907369613647
7.24814605712891
12.302773475647
15.1638841629028
14.1148099899292
17.0712909698486
13.8286991119385
6.96203470230103
15.7361059188843
19.5509204864502
14.9731435775757
14.4009208679199
11.4444408416748
9.34629344940186
6.58055353164673
9.82314491271973
21.7444381713867
20.9814739227295
9.82314491271973
8.48795986175537
12.2074031829834
11.5398111343384
9.44166374206543
10.9675893783569
8.67870044708252
10.4907369613647
6.6759238243103
8.58333015441895
13.5425882339478
11.0629596710205
-6.77129411697388
-15.9268465042114
-12.3981437683105
-19.2648086547852
-33.6657295227051
-54.0749816894531
-90.7925643920898
-129.608291625977
-160.508285522461
-181.299011230469
-189.214752197266
-198.847152709961
-195.032348632813
-157.074951171875
-119.403663635254
-103.476821899414
-92.318489074707
-76.2009048461914
-49.8786888122559
-6.58055353164673
44.251838684082
92.8907089233398
172.048095703125
327.883239746094
564.878540039063
817.323791503906
989.085815429688
942.831176757813
1137.57739257813
1123.939453125
1083.88391113281
922.135803222656
784.802551269531
653.286804199219
481.906341552734
259.598052978516
5.1499981880188
-29.7555465698242
-191.885116577148
-260.170288085938
-369.178588867188
-403.416534423828
-459.685028076172
-520.722045898438
-583.571105957031
-638.79052734375
-680.372009277344
-694.677551269531
-663.491455078125
-608.176635742188
-535.885925292969
-490.298919677734
-445.760955810547
-437.749847412109
-442.899871826172
-465.025787353516
-476.088745117188
-481.715576171875
-467.028564453125
-422.872100830078
-367.652648925781
-313.577667236328
-279.816589355469
-259.025848388672
-255.115661621094
-251.873062133789
-264.843444824219
-270.565643310547
-254.448059082031
-227.839736938477
-190.263824462891
-158.410140991211
-127.414772033691
-105.193481445313
-95.751823425293
-98.9944152832031
-108.626815795898
-114.539779663086
-111.678665161133
-95.5610809326172
-72.0999755859375
-45.300910949707
-20.6953639984131
0.286111027002335
-0.0953703373670578
3.33796191215515
2.09814739227295
1.81203651428223
-2.09814739227295
0.0953703373670578
6.38981294631958
13.0657367706299
27.657398223877
43.7749862670898
50.0694274902344
61.323127746582
72.9583129882813
67.903678894043
65.137939453125
73.6259002685547
78.8712692260742
72.5768280029297
82.3046035766602
89.1712646484375
93.0814514160156
98.6129302978516
103.190704345703
102.141632080078
100.997192382813
102.237007141113
97.9453353881836
89.6481170654297
88.4083023071289
94.2258987426758
100.806449890137
108.054595947266
114.444404602051
119.975891113281
123.599960327148
122.169403076172
118.831443786621
110.152740478516
108.722190856934
106.814781188965
111.583297729492
116.637924194336
127.986999511719
131.801803588867
137.428665161133
147.53791809082
139.240692138672
123.218475341797
120.357368469238
115.970336914063
109.199035644531
117.305519104004
130.752731323242
142.292541503906
148.205505371094
143.055511474609
140.003662109375
143.627731323242
136.379592895508
130.085144042969
122.93236541748
140.957366943359
132.946258544922
139.908294677734
150.589767456055
161.366607666016
161.175872802734
158.600875854492
150.875885009766
135.616622924805
127.224029541016
135.139770507813
146.202728271484
163.655502319336
185.399948120117
190.263824462891
184.732345581055
175.958282470703
183.015686035156
173.574020385742
154.881439208984
161.652725219727
152.020324707031
153.546249389648
156.788833618164
156.598098754883
153.355499267578
143.15087890625
131.324951171875
118.926811218262
101.950889587402
93.9397811889648
94.1305236816406
94.416633605957
96.4194107055664
100.711082458496
97.6592254638672
77.7268295288086
62.7536849975586
53.4073905944824
35.8592491149902
18.5972156524658
2.67036962509155
-4.48240613937378
-8.10647869110107
-14.4962921142578
-10.4907369613647
-8.58333015441895
-24.3194370269775
-45.8731346130371
-56.936092376709
-60.9416465759277
-72.7675704956055
-78.4897918701172
-68.7620162963867
-61.2277565002441
-63.4212760925293
-74.3888626098633
-80.3971939086914
-86.3101577758789
-105.288856506348
-122.455513000488
-131.992553710938
-132.46940612793
-120.166625976563
-101.855522155762
-94.7981185913086
-106.814781188965
-115.588851928711
-117.973114013672
-122.074035644531
-127.700881958008
-141.529586791992
-148.586990356445
-143.15087890625
-135.425888061523
-127.510147094727
-125.411994934082
-124.744407653809
-124.553665161133
-129.036071777344
-130.180511474609
-126.842552185059
-124.553665161133
-128.845321655273
-127.510147094727
-124.553665161133
-122.455513000488
-126.937919616699
-121.024963378906
-115.398109436035
-106.719413757324
-97.849967956543
-102.141632080078
-111.011077880859
-108.340705871582
-108.245338439941
-101.187927246094
-97.3731155395508
-122.646255493164
-109.675888061523
-93.8444137573242
-88.3129348754883
-90.5064544677734
-98.2314529418945
-106.528671264648
-107.95922088623
-105.288856506348
-98.0407104492188
-90.1249694824219
-88.5036773681641
-89.6481170654297
-94.1305236816406
-94.702751159668
-94.9888610839844
-79.06201171875
-86.7870101928711
-84.1166381835938
-78.7759017944336
-70.6694183349609
-65.5194244384766
-60.3694267272949
-65.6147918701172
-65.5194244384766
-68.6666412353516
-70.3833084106445
-66.3777542114258
-57.9851684570313
-51.404613494873
-46.4453544616699
-40.2462844848633
-49.783317565918
-32.04443359375
-25.3685111999512
-32.7120246887207
-34.3333206176758
-37.3851737976074
-44.3472061157227
-43.9657249450684
-36.2407302856445
-30.8046188354492
-15.1638841629028
-5.24536848068237
0.9537034034729
0.572222054004669
-1.62129580974579
-6.77129411697388
-17.8342533111572
-19.6462898254395
-6.48518323898315
2.38425850868225
3.91018390655518
9.25092315673828
13.5425882339478
16.9759197235107
22.3166599273682
21.839807510376
20.1231422424316
22.6981410980225
23.6518440246582
20.0277709960938
13.7333288192749
10.8722190856934
17.0712909698486
22.125919342041
49.4018363952637
50.2601699829102
35.4777679443359
23.8425846099854
23.8425846099854
24.891658782959
10.5861072540283
27.7527694702148
43.5842437744141
44.6333198547363
47.8759117126465
45.2055397033691
46.8268356323242
42.0583190917969
38.2435073852539
40.4370231628418
34.4286918640137
29.5648059844971
27.7527694702148
26.1314735412598
27.3712882995605
24.7962875366211
31.2814712524414
32.8073959350586
28.8018417358398
28.8972129821777
39.1018409729004
54.2657241821289
55.6962776184082
57.4129447937012
43.3935050964355
43.1073951721191
47.3036880493164
38.8157272338867
37.2898025512695
42.1536903381348
41.1999855041504
44.251838684082
51.1185035705566
50.4509086608887
50.832389831543
55.219425201416
63.4212760925293
55.9823913574219
41.8675804138184
28.8018417358398
27.7527694702148
30.5185089111328
32.2351760864258
32.2351760864258
38.7203598022461
35.6685066223145
41.1999855041504
28.4203605651855
32.9981384277344
29.3740653991699
26.3222141265869
33.8564720153809
31.0907306671143
30.4231376647949
20.2185115814209
19.7416610717773
21.4583263397217
27.0851764678955
31.4722118377686
31.3768424987793
36.1453590393066
37.7666549682617
39.3879508972168
43.2981338500977
59.2249794006348
44.7286911010742
28.1342506408691
23.3657341003418
25.8453617095947
31.3768424987793
39.197208404541
37.6712837219238
35.4777679443359
37.9573936462402
35.1916542053223
37.099063873291
40.8185043334961
40.913875579834
47.017578125
48.8296127319336
36.3360977172852
27.7527694702148
26.3222141265869
20.1231422424316
12.7796258926392
5.91296100616455
4.7685170173645
11.9212923049927
11.1583299636841
0.858333051204681
-6.1037015914917
-9.63240432739258
-10.0138854980469
-1.9074068069458
7.24814605712891
10.5861072540283
11.8259220123291
7.43888664245605
1.14444410800934
4.10092449188232
11.4444408416748
13.9240694046021
13.5425882339478
9.537034034729
4.67314672470093
9.9185152053833
14.0194396972656
12.3981437683105
13.0657367706299
7.91573810577393
4.86388731002808
3.8148136138916
4.67314672470093
-9.72777462005615
-28.9925842285156
-55.5055389404297
-92.1277465820313
-128.36848449707
-165.372161865234
-196.081420898438
-214.106414794922
-225.360107421875
-211.817520141602
-176.721237182617
-170.903656005859
-98.7083053588867
-94.9888610839844
-102.237007141113
-93.367561340332
-69.9064559936523
0
55.1240577697754
147.34716796875
351.535064697266
620.765563964844
883.510803222656
1116.88208007813
1063.57006835938
1255.64587402344
1322.02368164063
1282.54028320313
1078.92468261719
1016.7431640625
753.807189941406
464.072082519531
254.829544067383
21.2675857543945
-208.861038208008
-360.881378173828
-419.820220947266
-474.276702880859
-444.807250976563
-604.93408203125
-632.591491699219
-658.436828613281
-689.336791992188
-711.55810546875
-705.645141601563
-669.881286621094
-627.059997558594
-583.571105957031
-539.128540039063
-496.974853515625
-476.947082519531
-472.560028076172
-481.334106445313
-479.808166503906
-466.647064208984
-443.567443847656
-402.176727294922
-369.750793457031
-341.235076904297
-305.47119140625
-278.481384277344
-274.285095214844
-285.920288085938
-289.353607177734
-281.819366455078
-272.091583251953
-243.194366455078
-201.231414794922
-173.478652954102
-156.598098754883
-136.76106262207
-120.548110961914
-118.926811218262
-122.93236541748
-122.93236541748
-113.681442260742
-92.8907089233398
-72.7675704956055
-55.219425201416
-35.2870254516602
-21.0768451690674
-14.1148099899292
-7.34351634979248
0
7.6296272277832
14.9731435775757
20.8861045837402
25.7499923706055
29.5648059844971
36.1453590393066
47.017578125
69.2388687133789
78.4897918701172
80.9694213867188
90.6971969604492
86.3101577758789
94.8934860229492
103.190704345703
102.237007141113
98.5175628662109
96.6101531982422
96.6101531982422
105.76570892334
117.59162902832
125.221252441406
130.752731323242
127.224029541016
118.259223937988
115.398109436035
114.825889587402
109.771263122559
112.537002563477
122.264778137207
122.83699798584
124.744407653809
134.853652954102
138.85920715332
136.188842773438
123.504592895508
112.155517578125
110.820335388184
117.59162902832
125.411994934082
134.56755065918
138.382369995117
138.76383972168
139.717544555664
142.578659057617
147.824020385742
141.434219360352
130.657363891602
129.608291625977
129.226806640625
134.853652954102
146.393478393555
151.73420715332
146.584213256836
142.292541503906
147.34716796875
146.011993408203
148.586990356445
145.916625976563
147.824020385742
156.979583740234
158.600875854492
169.663833618164
174.909210205078
174.241607666016
169.473098754883
151.63883972168
159.649948120117
149.349945068359
156.121246337891
170.426803588867
195.699935913086
198.274932861328
216.204559326172
219.828628540039
217.444381713867
195.223083496094
181.966613769531
176.053649902344
177.007354736328
170.903656005859
172.048095703125
186.449020385742
191.980499267578
185.209197998047
180.249938964844
170.236053466797
152.974029541016
141.720321655273
136.66569519043
129.226806640625
118.545333862305
116.44718170166
119.403663635254
103.953666687012
77.9175643920898
66.6638641357422
60.3694267272949
43.1073951721191
27.657398223877
23.0796222686768
22.2212886810303
20.5999927520752
16.5944385528564
2.38425850868225
-18.3111057281494
-32.3305435180664
-42.9166526794434
-48.5435028076172
-46.5407257080078
-56.5546112060547
-68.0944213867188
-67.2360916137695
-70.8601608276367
-72.0999755859375
-69.7157211303711
-84.9749755859375
-100.043487548828
-98.3268203735352
-100.329597473145
-109.294410705566
-116.733299255371
-120.357368469238
-122.169403076172
-127.986999511719
-135.330505371094
-142.101806640625
-147.728652954102
-152.497177124023
-150.589767456055
-153.927734375
-159.077728271484
-151.829574584961
-142.101806640625
-141.815689086914
-152.592544555664
-151.257354736328
-154.881439208984
-155.930511474609
-157.361053466797
-158.696243286133
-147.061065673828
-143.818466186523
-145.535140991211
-140.480514526367
-139.240692138672
-139.431442260742
-140.385147094727
-142.006439208984
-150.494400024414
-155.549026489258
-148.586990356445
-140.289764404297
-140.861999511719
-139.431442260742
-136.093475341797
-130.657363891602
-127.224029541016
-127.605514526367
-124.267555236816
-125.221252441406
-124.553665161133
-125.507369995117
-140.766616821289
-135.425888061523
-128.749954223633
-125.698104858398
-122.074035644531
-117.782371520996
-102.713859558105
-101.187927246094
-104.907371520996
-98.7083053588867
-99.1851501464844
-101.760154724121
-100.424964904785
-100.043487548828
-98.0407104492188
-87.9314498901367
-78.2036819458008
-75.247200012207
-73.0536804199219
-76.9638671875
-71.7184982299805
-75.1518249511719
-73.8166427612305
-67.0453491210938
-50.7370223999023
-43.5842437744141
-39.0064697265625
-36.1453590393066
-32.6166572570801
-40.8185043334961
-34.1425819396973
-40.913875579834
-40.6277656555176
-40.4370231628418
-30.3277683258057
-30.1370277404785
-21.1722145080566
-8.58333015441895
4.86388731002808
5.81759071350098
10.7768487930298
-15.6407356262207
-16.30832862854
-13.4472179412842
-11.9212923049927
-4.67314672470093
-3.33796191215515
-1.81203651428223
3.33796191215515
6.00833129882813
1.62129580974579
-0.381481349468231
6.96203470230103
13.4472179412842
8.58333015441895
14.2101802825928
30.995361328125
33.8564720153809
35.2870254516602
14.8777732849121
12.3981437683105
17.2620315551758
38.8157272338867
34.7148017883301
31.5675830841064
35.4777679443359
35.2870254516602
33.4749908447266
42.9166526794434
48.1620216369629
42.1536903381348
44.9194297790527
50.5462799072266
41.0092468261719
37.3851737976074
34.2379531860352
42.1536903381348
26.7036952972412
27.3712882995605
34.5240631103516
34.5240631103516
39.864803314209
37.1944313049316
25.8453617095947
13.0657367706299
12.9703664779663
27.3712882995605
29.8509159088135
34.9055442810059
48.5435028076172
55.1240577697754
54.8379440307617
55.4101676940918
53.7888717651367
49.1157264709473
47.6851692199707
54.4564628601074
55.1240577697754
54.8379440307617
66.3777542114258
71.8138656616211
71.2416458129883
53.9796104431152
54.7425765991211
38.4342460632324
38.6249885559082
42.630542755127
55.4101676940918
57.9851684570313
46.8268356323242
39.197208404541
32.3305435180664
37.5759124755859
47.4944305419922
49.3064651489258
43.3935050964355
40.5323944091797
40.5323944091797
41.2953567504883
36.6222114562988
28.7064723968506
31.5675830841064
39.1018409729004
41.8675804138184
46.6360969543457
46.8268356323242
46.5407257080078
52.6444282531738
49.5925750732422
45.7777633666992
55.5055389404297
58.9388694763184
51.4999847412109
50.4509086608887
46.5407257080078
39.9601707458496
45.0148010253906
45.2055397033691
38.4342460632324
34.810173034668
33.8564720153809
37.099063873291
34.1425819396973
29.3740653991699
32.5212860107422
32.1398048400879
28.5157318115234
26.9898052215576
25.5592517852783
27.2759170532227
28.9925842285156
22.6027698516846
14.4009208679199
15.6407356262207
26.5129547119141
27.657398223877
19.1694374084473
23.1749935150146
33.5703582763672
35.8592491149902
34.0472106933594
30.0416564941406
34.0472106933594
23.1749935150146
23.0796222686768
19.6462898254395
12.302773475647
5.05462789535522
-0.190740674734116
3.62407302856445
0.762962698936462
2.00277709960938
10.7768487930298
18.0249938964844
16.9759197235107
15.0685138702393
23.2703628540039
27.3712882995605
20.5999927520752
6.6759238243103
7.91573810577393
0.0953703373670578
3.33796191215515
-22.4120292663574
-38.148136138916
-76.5823822021484
-114.921257019043
-147.633285522461
-174.050872802734
-169.282348632813
-211.817520141602
-187.593460083008
-135.711990356445
-112.155517578125
-103.572189331055
-93.8444137573242
-130.943481445313
-107.291633605957
-46.1592445373535
4.10092449188232
59.8925743103027
220.591598510742
474.467437744141
745.128479003906
1007.96911621094
1205.48107910156
1287.30883789063
1316.30139160156
1306.85974121094
1166.28393554688
948.267272949219
878.933044433594
559.060913085938
351.725799560547
231.749923706055
-188.737899780273
-386.249877929688
-472.369293212891
-409.138763427734
-556.485961914063
-575.559997558594
-596.732238769531
-635.738708496094
-696.489562988281
-750.18310546875
-770.878479003906
-755.619201660156
-689.909057617188
-616.950744628906
-549.714660644531
-503.841491699219
-486.674835205078
-489.535949707031
-505.558166503906
-531.975769042969
-541.035949707031
-519.672973632813
-472.750762939453
-410.760040283203
-351.916564941406
-318.155456542969
-291.356384277344
-272.473052978516
-289.353607177734
-301.561004638672
-307.760101318359
-297.460083007813
-266.083251953125
-220.11474609375
-185.304565429688
-137.619400024414
-117.114776611328
-113.490707397461
-111.201812744141
-118.354591369629
-121.597183227539
-111.011077880859
-95.084228515625
-74.9610900878906
-46.7314682006836
-23.3657341003418
-11.3490705490112
-5.1499981880188
-11.2537002563477
-6.86666440963745
-3.91018390655518
6.48518323898315
21.5536975860596
44.4425773620605
55.0286865234375
63.039794921875
73.6259002685547
80.3018264770508
84.0212707519531
81.9231185913086
80.3018264770508
78.7759017944336
76.9638671875
81.6370086669922
91.269416809082
87.9314498901367
89.6481170654297
98.3268203735352
108.436073303223
113.681442260742
113.490707397461
118.068481445313
128.940704345703
129.799026489258
113.967559814453
103.858299255371
109.00830078125
112.823112487793
114.444404602051
124.458290100098
135.139770507813
143.436996459961
151.352722167969
150.685134887695
143.246246337891
131.611068725586
116.733299255371
118.44995880127
127.796257019043
136.093475341797
150.399032592773
171.475875854492
179.010131835938
167.661056518555
158.791610717773
146.584213256836
126.842552185059
128.940704345703
136.66569519043
133.327728271484
148.586990356445
163.178649902344
178.914764404297
170.522171020508
155.549026489258
147.44255065918
132.56477355957
119.499038696289
123.9814453125
132.850875854492
145.535140991211
172.048095703125
185.78141784668
183.015686035156
184.923095703125
178.437911987305
162.3203125
155.262908935547
155.167541503906
160.508285522461
173.383270263672
183.015686035156
185.304565429688
185.018463134766
189.214752197266
190.645309448242
173.192535400391
151.73420715332
147.53791809082
157.361053466797
169.282348632813
181.012908935547
190.359191894531
193.220306396484
189.596237182617
175.672164916992
157.647171020508
137.714767456055
113.872184753418
106.051818847656
107.768486022949
100.997192382813
99.1851501464844
99.5666351318359
87.5499725341797
59.2249794006348
28.2296199798584
15.8314762115479
11.635181427002
3.91018390655518
-8.3925895690918
-14.3055505752563
-5.91296100616455
-5.05462789535522
-11.3490705490112
-20.409252166748
-28.3249912261963
-44.251838684082
-56.5546112060547
-74.6749725341797
-79.06201171875
-74.0073852539063
-78.394416809082
-82.7814559936523
-83.4490509033203
-83.925895690918
-88.6944122314453
-90.3157119750977
-99.3758926391602
-108.245338439941
-111.1064453125
-109.294410705566
-117.782371520996
-122.93236541748
-123.886070251465
-121.406440734863
-116.637924194336
-115.207366943359
-132.660140991211
-135.521255493164
-147.633285522461
-138.668472290039
-141.243469238281
-151.543472290039
-155.83512878418
-154.404586791992
-151.161987304688
-153.069396972656
-159.554580688477
-159.459213256836
-155.930511474609
-156.502731323242
-156.311981201172
-151.73420715332
-145.535140991211
-135.711990356445
-140.766616821289
-146.107360839844
-136.951812744141
-135.616622924805
-138.286987304688
-133.136993408203
-139.431442260742
-138.096252441406
-125.316627502441
-131.420333862305
-143.436996459961
-142.006439208984
-137.714767456055
-127.033294677734
-121.883293151855
-106.433296203613
-105.76570892334
-106.910148620605
-105.76570892334
-97.9453353881836
-93.7490463256836
-88.5036773681641
-86.1194152832031
-91.269416809082
-86.7870101928711
-75.6286773681641
-68.4759063720703
-73.5305328369141
-86.5009002685547
-86.0240478515625
-74.8657150268555
-76.296272277832
-75.3425674438477
-72.1953506469727
-68.8573837280273
-56.5546112060547
-45.8731346130371
-45.4916534423828
-54.5518341064453
-60.6555366516113
-55.3147964477539
-49.8786888122559
-50.5462799072266
-47.3990592956543
-41.962947845459
-39.7694320678711
-36.9083213806152
-37.8620262145996
-36.3360977172852
-41.3907279968262
-39.864803314209
-26.3222141265869
-24.6055469512939
-18.787956237793
-20.2185115814209
-16.8805503845215
-16.5944385528564
-21.6490669250488
-20.5999927520752
-32.3305435180664
-30.5185089111328
-20.5046234130859
-15.0685138702393
-10.0138854980469
2.28888821601868
16.1175880432129
26.226842880249
22.6981410980225
17.5481433868408
22.125919342041
19.4555492401123
16.6898097991943
24.1286964416504
24.7962875366211
21.7444381713867
28.4203605651855
32.4259147644043
32.5212860107422
37.099063873291
30.4231376647949
28.2296199798584
30.0416564941406
26.0361022949219
24.3194370269775
31.3768424987793
33.2842483520508
31.4722118377686
32.6166572570801
27.2759170532227
26.7990646362305
26.1314735412598
22.7935104370117
26.7990646362305
39.3879508972168
41.4860992431641
64.4703521728516
61.1323890686035
62.0860900878906
40.4370231628418
42.1536903381348
44.0610961914063
40.8185043334961
41.5814666748047
44.7286911010742
39.0064697265625
34.4286918640137
33.8564720153809
45.8731346130371
43.3935050964355
35.382396697998
29.6601753234863
22.5074005126953
32.3305435180664
46.1592445373535
53.6935005187988
57.4129447937012
54.5518341064453
46.3499870300293
41.6768379211426
45.6823921203613
45.8731346130371
38.148136138916
38.8157272338867
46.0638732910156
44.6333198547363
41.1999855041504
38.8157272338867
50.2601699829102
47.017578125
45.2055397033691
43.2981338500977
40.0555419921875
40.3416519165039
40.7231369018555
44.6333198547363
48.4481315612793
48.066650390625
52.453685760498
47.7805404663086
35.5731353759766
31.9490642547607
30.6138782501221
34.6194343566895
43.7749862670898
45.4916534423828
42.3444290161133
40.0555419921875
38.0527648925781
36.2407302856445
36.0499877929688
45.2055397033691
55.6009063720703
54.2657241821289
53.8842430114746
58.8434982299805
56.936092376709
50.1647987365723
50.6416511535645
53.5027618408203
44.0610961914063
30.8999900817871
25.177770614624
29.5648059844971
42.7259140014648
43.8703575134277
31.0907306671143
27.2759170532227
28.6111011505127
27.7527694702148
27.1805477142334
28.8018417358398
25.177770614624
25.5592517852783
17.2620315551758
14.9731435775757
-1.71666610240936
10.204626083374
18.787956237793
13.6379585266113
13.3518476486206
15.8314762115479
29.3740653991699
30.0416564941406
10.4907369613647
-0.47685170173645
-0.858333051204681
4.57777643203735
0
-9.44166374206543
-12.6842555999756
-16.2129573822021
-16.9759197235107
-4.00555419921875
8.58333015441895
5.24536848068237
4.7685170173645
11.9212923049927
8.67870044708252
3.05185079574585
-3.33796191215515
-8.58333015441895
-5.7222204208374
-13.7333288192749
-35.6685066223145
-63.4212760925293
-97.5638580322266
-129.417556762695
-159.459213256836
-150.589767456055
-192.743453979492
-206.190673828125
-202.661972045898
-193.029571533203
-147.53791809082
-86.1194152832031
-87.6453399658203
-101.283302307129
-109.866630554199
-75.1518249511719
-9.72777462005615
42.9166526794434
148.300872802734
365.36376953125
627.822937011719
886.562683105469
1115.73754882813
1239.814453125
1270.046875
1288.07177734375
1220.45422363281
1022.46539306641
821.520080566406
652.428466796875
459.303558349609
229.079559326172
-29.9462871551514
-274.285095214844
-423.444305419922
-465.884124755859
-481.906341552734
-506.797973632813
-527.97021484375
-563.447998046875
-620.384033203125
-677.892395019531
-709.841430664063
-705.931274414063
-668.546081542969
-606.269226074219
-537.507263183594
-479.140594482422
-448.812805175781
-449.575775146484
-467.219299316406
-491.061889648438
-508.228546142578
-508.991516113281
-485.053558349609
-436.986907958984
-374.996185302734
-313.863800048828
-275.52490234375
-260.170288085938
-258.45361328125
-275.143432617188
-278.672119140625
-280.293426513672
-267.704528808594
-241.859176635742
-207.811965942383
-160.794387817383
-120.262001037598
-102.61848449707
-102.809226989746
-111.774040222168
-116.828666687012
-106.910148620605
-99.0897827148438
-79.729606628418
-45.4916534423828
-22.125919342041
-10.204626083374
3.5287024974823
10.0138854980469
3.33796191215515
3.5287024974823
13.0657367706299
9.72777462005615
3.43333220481873
12.2074031829834
22.5074005126953
27.1805477142334
41.3907279968262
65.6147918701172
78.2990493774414
72.6721954345703
67.0453491210938
70.4786834716797
86.3101577758789
89.5527496337891
91.1740417480469
94.1305236816406
100.711082458496
106.814781188965
117.210144042969
122.074035644531
123.409217834473
117.782371520996
108.245338439941
109.199035644531
104.430519104004
99.4712677001953
103.953666687012
104.430519104004
110.724967956543
122.83699798584
126.651809692383
129.226806640625
132.56477355957
132.278656005859
121.215698242188
119.117553710938
115.684219360352
110.724967956543
122.264778137207
140.480514526367
155.83512878418
164.323089599609
158.600875854492
143.627731323242
126.07958984375
113.20458984375
106.719413757324
108.722190856934
119.499038696289
131.611068725586
141.720321655273
149.159210205078
160.317535400391
170.9990234375
164.990692138672
155.453659057617
155.072174072266
144.009216308594
131.801803588867
139.049957275391
153.450881958008
162.034210205078
164.895324707031
168.614761352539
165.372161865234
150.208282470703
137.905517578125
129.322174072266
130.37126159668
147.53791809082
167.470321655273
186.735122680664
205.1416015625
207.43049621582
198.465682983398
188.451797485352
174.813827514648
165.181427001953
164.704574584961
165.944396972656
173.001800537109
185.686050415039
186.067535400391
182.920318603516
181.203643798828
161.938842773438
140.099029541016
131.420333862305
123.9814453125
113.586074829102
109.96199798584
116.542556762695
119.022186279297
113.013854980469
102.713859558105
91.6508941650391
65.2333145141602
38.7203598022461
11.1583299636841
8.10647869110107
15.5453653335571
14.4962921142578
15.2592544555664
9.63240432739258
9.72777462005615
-3.43333220481873
-20.2185115814209
-38.9110984802246
-57.6036834716797
-70.2879409790039
-73.1490478515625
-70.1925735473633
-77.345344543457
-72.7675704956055
-79.3481216430664
-75.247200012207
-76.8684921264648
-102.141632080078
-119.022186279297
-114.730522155762
-112.25089263916
-116.637924194336
-118.259223937988
-113.013854980469
-111.487930297852
-121.501815795898
-135.139770507813
-145.2490234375
-145.725875854492
-141.338836669922
-139.526809692383
-138.000885009766
-138.191619873047
-140.480514526367
-145.535140991211
-147.34716796875
-154.023101806641
-162.129577636719
-162.224945068359
-162.3203125
-163.655502319336
-158.314758300781
-153.546249389648
-148.396255493164
-145.916625976563
-152.497177124023
-161.175872802734
-154.023101806641
-137.905517578125
-139.622177124023
-153.164764404297
-153.069396972656
-146.107360839844
-143.723098754883
-142.387924194336
-138.477737426758
-134.949035644531
-139.526809692383
-145.43977355957
-146.870330810547
-138.668472290039
-123.790702819824
-116.828666687012
-115.207366943359
-114.062927246094
-122.741630554199
-107.100891113281
-96.8962631225586
-101.37866973877
-103.381446838379
-101.474044799805
-99.0897827148438
-97.7546005249023
-104.62126159668
-100.615707397461
-98.899040222168
-98.9944152832031
-93.6536712646484
-77.9175643920898
-76.1055297851563
-74.4842376708984
-70.5740509033203
-72.7675704956055
-73.7212753295898
-65.5194244384766
-57.7944259643555
-54.8379440307617
-48.5435028076172
-42.5351715087891
-24.2240657806396
-19.9324016571045
-20.8861045837402
-15.6407356262207
