Value(μV)
26.9904821112373
34.4450741667003
37.5335850466903
37.3562022032401
36.9591462776674
38.0887522790335
39.8676987953511
40.4885268300524
39.5833413633807
38.4932674427125
38.4549025178451
39.165581009793
39.4227046619352
38.7966268322076
38.1224495769679
38.2995926675906
39.0956436264421
39.5222906599793
39.2010617359786
38.8578455883432
39.3033177725179
40.2827395004075
40.7278676195251
40.0685829636728
38.8761596069602
38.029136461125
37.5608670352823
36.7439791277422
35.28336615479
33.9821298399869
33.9269039740456
35.2100336037492
36.8478216748306
38.0011527337939
38.8998052245639
40.2717699810106
42.0664502322483
43.212006137038
42.7916957395542
41.1359691381319
39.4024397284693
38.1788585443342
36.9252293786824
34.976451335347
32.7768069593013
31.6974643060644
32.6247397585698
35.1007617961354
38.0679101806565
41.1805687443829
44.9431406912542
49.5236135640321
53.8687720401211
56.3679213991481
56.285745800208
54.1877899857361
50.9150343266398
46.5426917473925
40.6947214461661
33.6951212260186
26.8731256338431
21.4734993257096
17.5327349238178
14.1824997909511
10.9653227352111
8.40276068914659
7.07486256722737
6.51054953019316
5.4898659492117
3.45847951231947
1.18340269504703
-0.292477158858073
-1.07051725403593
-2.29058125009752
-4.57696170488867
-7.07348182283621
-8.39700383952377
-8.31173225072608
-7.91600726540878
-8.05423287911416
-8.04150745772512
-6.44590478515352
-2.98659965373466
0.899501787427027
3.55976729920098
4.73583087379468
5.23328474974702
5.26871183248218
3.9363429182796
0.681042828373776
-3.23081702567821
-5.48426050603575
-5.02941732727337
-3.00201387565528
-0.973242522926945
1.20484102897244
5.02609446311217
10.8275958566588
16.5363063216834
19.4891681234438
18.8940486253359
15.3602463147127
7.91225203433366
-7.06625039012646
-32.3061757697294
-65.0385459878001
-97.4636689356025
-123.356105190737
-144.379133725374
-168.995985398356
-204.357952354033
-248.635492295508
-289.892646100641
-310.363707804838
-291.415924014113
-218.119890003351
-85.8787005255065
92.5155736038137
288.036769418599
470.686194421221
629.667486946512
777.767413367994
929.461786246452
1069.83367779808
1147.75980821072
1108.92104070804
944.282833300001
708.228141835666
484.17275028119
324.872303376243
220.531665309981
122.260658912127
-4.15254684272831
-146.086177801139
-260.794305458272
-319.203940808273
-331.902470214516
-335.423318332193
-357.934809322808
-399.503693366056
-441.27816506892
-467.438822828992
-476.034768170126
-472.78406524912
-461.030126898698
-440.673880922075
-414.17620653014
-388.94373086423
-371.951858637788
-363.584146103714
-358.563770540711
-352.397703333471
-344.982895788422
-337.442335251396
-327.455445531102
-310.181056436285
-284.236678167341
-255.186295134929
-231.598150215244
-217.615563946611
-210.10374418167
-202.988628410148
-193.326751973778
-182.519768725324
-172.505689450406
-162.424568622789
-149.709255830579
-133.620397139259
-116.56811149258
-101.847858106045
-90.829511434151
-82.6882913385398
-76.1309512036156
-70.3945676466629
-64.5850280991567
-57.1517320307391
-47.0160929199065
-35.1348338607256
-24.1319285040129
-15.902360800146
-9.83381472800672
-3.76701899544678
3.46239867961053
10.9322819934559
17.1248250011063
21.929637720128
26.6387514524171
32.1367633940296
37.76917841912
42.3341806137521
45.7969360444546
49.431135241584
54.2236068127301
59.6496074261346
64.3841264444002
67.9617419216634
71.2157308006556
74.9992796021527
78.9458864421071
81.9129609820698
83.4967307408519
84.6106962939126
86.3765112652577
88.7778126590529
90.7918649668564
91.7590621143169
92.1771801074936
92.9348854047191
94.0678398721764
94.7029163425981
94.2464851106982
93.2369056041375
92.7488580050814
93.1369285482653
93.7288151222954
93.7957778059691
93.476778318043
93.4655480828803
93.9428895258073
94.2110881686514
93.5153361110954
91.9564643361923
90.3018434376911
88.9724460445378
87.5506898190275
85.4289953410524
82.7043307792218
80.1298584095961
78.2140167664514
76.6834507581739
75.0152050802794
73.3039698311611
72.2844710209686
72.4557918260138
73.4471053425746
74.4492241259597
75.1449000369832
75.9414578378517
77.2514030747359
78.8164765552068
79.9854104163045
80.573496028521
81.157943040507
82.4053706983734
84.2907256602033
86.1922472281387
87.6960785395556
89.0454943614249
90.6833859516497
92.5470217161616
94.0747963413668
94.907427277049
95.3343541665038
95.8838049313959
96.6000997206477
96.964607880283
96.5597905316695
95.5994295005102
94.6448347474247
93.9181617399686
93.148679600386
92.1522890578653
91.3379998635856
91.406321195197
92.5686810918242
94.2683091497132
95.755905470884
96.7857831303188
97.571879407597
98.133678257974
97.9618618130365
96.4955723797755
93.8116278109968
90.6188249216453
87.5311152940733
84.5118453537082
81.1475195181114
77.3420240989702
73.5121037419209
70.053493324447
66.8100028104279
63.2579644321937
59.1657384905567
54.8652224826234
50.7858720707474
46.8623355691691
42.5785858094382
37.5767321562045
32.0424925368557
26.4019398569232
20.7721092256083
14.9028978858577
8.66665031715173
2.41616933531775
-3.29123949158929
-8.26830795975422
-12.8468080034173
-17.4335019650556
-22.0588523417501
-26.472595931884
-30.5964642955939
-34.6877962540325
-38.9870813513644
-43.3347868806562
-47.293387412797
-50.6414971983055
-53.6146361574133
-56.5994222721695
-59.6945052898116
-62.6988189435426
-65.4986776399885
-68.296522447041
-71.3546169346836
-74.5959356241065
-77.6131984151737
-80.1074090805703
-82.2123835271452
-84.3057663961556
-86.5645704449787
-88.830277321673
-90.9168846439717
-92.9108490312762
-95.0444768352333
-97.3135498800302
-99.3637804994939
-100.823216122163
-101.675513860477
-102.21874193328
-102.690321939425
-103.048837873755
-103.16183150214
-103.098630958366
-103.103944259337
-103.279324652116
-103.407777437707
-103.175391036263
-102.520903831374
-101.67712454806
-100.871779479427
-100.087525405419
-99.1754139180275
-98.1310744469807
-97.1334569674052
-96.2838769462829
-95.4037629131967
-94.1845902107982
-92.5203479103374
-90.6096950541477
-88.7121516688636
-86.8822862322883
-85.0099987559217
-83.0728081764922
-81.2287442248236
-79.610381317213
-78.1000719610916
-76.4065896395321
-74.3707071268717
-72.1255560089241
-69.9244715095827
-67.8715457510226
-65.8916841974835
-63.9382564008716
-62.1211839631505
-60.5639574136976
-59.183186954667
-57.7043910984231
-55.9218746271532
-53.8895469917583
-51.8190097066939
-49.8359750675991
-47.9079188866184
-46.0026337479082
-44.2223395471213
-42.7044782569227
-41.4149961829607
-40.1229292328101
-38.6146651782082
-36.8923562851881
-35.1220106886278
-33.4193430528813
-31.7542772347707
-30.0720223723033
-28.4303779615134
-26.9432345397999
-25.6016264870544
-24.2253210171994
-22.632061617959
-20.8247532611014
-18.9746904778445
-17.2438894878161
-15.6806990600935
-14.2926335241907
-13.1444286045966
-12.3055706357001
-11.7050992060946
-11.1070783588972
-10.273036949963
-9.12776255494149
-7.73911122720445
-6.17119042469272
-4.42918151463638
-2.56232380005855
-0.743977814091725
0.838860157022609
2.18280699678567
3.49377708095312
4.97922209200345
6.64706819839251
8.35002736042677
9.99555530664885
11.6262525654415
13.2586192509136
14.7116927505563
15.6945955564039
16.0863562445567
16.0711628610681
15.9555039583357
15.8898775279411
15.8315075220104
15.7658457356926
15.8715592303977
16.4010822039696
17.433663989495
18.8264516972822
20.4219857342857
22.2298058835022
24.3396305419047
26.6838994991064
28.9642261794964
30.8356452989124
32.1131286876051
32.767147932334
32.7843252721195
32.1450876399309
30.9733558365615
29.6329848173777
28.5881150418643
28.1581488449725
28.441449245643
29.4467192580944
31.1867652232929
33.5670059373745
36.2411876566273
38.715288540117
40.6644195950564
42.1032652179505
43.1944452388048
43.9427892049158
44.1853036877378
43.8918834519583
43.3467743746292
42.9070310072382
42.6065671803482
42.1320413387421
41.2490994883149
40.1562078088432
39.2973967158907
38.8515392928811
38.5522580327086
38.0797880786401
37.5143609066883
37.2415125526201
37.4149098392529
37.6869482951288
37.5943690513326
37.1279181012138
36.7468022121385
36.8002596313523
37.0909498007467
37.1387204043008
36.7927736850379
36.3872266053507
36.2436080143929
36.1961294153732
35.7932271896724
34.9324044655256
34.1003670941186
33.8958971278667
34.4388867176412
35.3886200100005
36.4678423441469
37.7457974656642
39.3343294563613
41.0129551322461
42.398649051249
43.4590997893458
44.5979176859045
46.08702443235
47.5828236803975
48.456717044104
48.579344486328
48.471605504389
48.4787952649946
47.9777477183043
45.7585034213964
41.2881898861676
35.3484624991318
29.2090828963844
23.327561967881
17.2050540985302
10.5612715816029
4.24886335943026
-0.38848355546525
-2.98120990664027
-4.53861122024089
-6.21149707733757
-7.95841876938312
-8.81735162073669
-8.39585218159134
-7.57438007679794
-7.44816746412734
-7.90509488676187
-7.78615942275846
-6.48710627779534
-4.87459834682016
-4.23037536169474
-4.58762097415941
-4.73055905491474
-3.93846201476317
-3.11270118156157
-3.614557572012
-5.24194708163892
-6.15100850357553
-5.09569454335605
-3.14189508860708
-2.41635501009366
-3.29428668986644
-3.76092917621774
-2.12084399404585
0.254569347379881
-0.0396672198816503
-4.39409846444375
-9.96808994963008
-12.2972010917779
-9.88011241139024
-5.36314665812377
-2.11399284171749
-0.736380742077916
-0.0463224031279221
-1.10636213997326
-8.6789259207897
-27.5343216952543
-57.6738261259406
-94.2047309874689
-132.071036983319
-170.097337266057
-210.000967146852
-252.159362875899
-292.765540692572
-323.518910466696
-331.451659294429
-299.072546332027
-209.682669770645
-59.7515740655619
130.708622018521
324.028874024724
488.815792747767
622.388308913772
746.841821497116
876.99428841303
990.156378350628
1032.36172800232
962.21889148911
793.048292951525
590.336903176182
422.931979423985
312.377979599886
227.312421121168
125.197854434258
-2.17159631836433
-123.203516178128
-201.587949034703
-232.551706804333
-244.568133617453
-269.643951037309
-315.577586461999
-365.774903889029
-400.361907924063
-413.292976151563
-410.963745018225
-400.688648689418
-385.077632870128
-366.066712260092
-349.049443533553
-339.572384168254
-337.060733636416
-334.831632622207
-327.315852183232
-315.73597822882
-305.369159254758
-298.225849238779
-290.498249216436
-277.667671775804
-260.411913723465
-243.836660591953
-231.333954177381
-220.991673308623
-208.773658392906
-193.955570687155
-179.827096922333
-169.156091475678
-160.581862096534
-150.507820094321
-137.75262631665
-124.856653280706
-114.58313483761
-106.395716197443
-97.4411334355249
-86.4967988877263
-75.5827558491389
-67.2280385320507
-61.1320420869056
-54.6066749599349
-46.1001439560661
-37.1204218441944
-30.1277253367114
-25.2915906245366
-20.3722001911479
-13.7549146493242
-6.54542760465106
-0.991493999464275
2.60716466499822
6.40273528492468
12.2892287264625
19.5552607807795
25.9145550678891
30.4619778472543
34.655711031761
40.1286127950615
46.3166643302591
51.0583345435293
53.3515756882365
54.6375099154941
56.9639374097587
60.4671498416811
63.4239488155282
64.6933537328514
65.2723702853174
66.9547399883808
69.9359802862773
72.5483625895735
73.4463499976126
73.3436375545348
74.04758549262
76.1121941486124
78.1933999536445
78.8819674176262
78.5320885299189
78.6858095008727
79.9228136924777
81.0249474957731
80.5512471931908
78.7129174678806
77.0711227698004
76.4871677406492
76.0482002309636
74.3595019261176
71.4525905901915
68.7796145536527
67.3395643042052
66.4583737002217
64.8462202489646
62.5069142664956
60.9347145155024
61.3020294516296
62.9982854374529
64.414308634185
64.9134122058571
65.4004487123984
66.7948289949192
68.5021617769372
68.9719383994093
67.6507467118371
65.7729201911698
64.9353888279776
65.2896060436637
65.6559561128328
65.3271513244341
65.1337752441192
66.3659909208643
69.0012223353153
71.6053127845222
73.0651062177952
73.9029514113379
75.479546410417
78.1545608931685
80.8058008260489
82.2885731797764
82.8753044070793
83.788157075192
85.4839170628918
86.9875536324203
87.1591486353641
86.2155524983417
85.5003643342808
85.8092868284609
86.4611376801701
86.2913037768032
85.2076781727175
84.2460554171316
84.0895971383884
84.0619676503215
82.9618241453524
80.6500061710149
78.293050379973
76.9326263149859
76.2443450996706
75.078883672697
73.0229836033099
70.8997068339754
69.570157262565
68.6676725367859
66.9818624172564
64.0128232530939
60.6541991515095
58.1010721635406
56.403803240383
54.5327971993727
51.8135359744186
48.8001857592654
46.4377299808356
44.6593490787344
42.3247086850371
38.6242914760962
34.1190830781424
30.0450579020095
26.7811891903615
23.4647133429575
19.2157280000076
14.321777983217
9.81347559602023
6.01212797224363
2.00092917771795
-3.24450895240069
-9.52247931493491
-15.6029530457598
-20.6962270787272
-25.2905921012046
-30.3124914930834
-35.7652025867974
-40.6518203684369
-44.2590943890757
-47.0776755508023
-50.1326202784118
-53.6117686925837
-56.6053135637209
-58.298940350805
-59.0556746332692
-59.9903043264543
-61.6340549018654
-63.4558090507454
-64.823844947536
-66.0584337240017
-68.1161644069789
-71.2932372328432
-74.6697591844533
-77.0630974565717
-78.2825947748357
-79.0975260824694
-80.0376130942672
-80.6671660738103
-80.2982516849038
-79.1517092967507
-78.3525178590761
-78.6911101520599
-79.7400557003281
-80.4759518948361
-80.5918118740278
-80.793743867021
-81.7348056979995
-83.0436023620304
-83.762407514332
-83.6132193548098
-83.3849596796222
-83.886476577365
-84.8209329238579
-85.071042613685
-84.0475119011046
-82.3608956348077
-80.9671442774137
-79.9374670155997
-78.476923256576
-76.1433843799947
-73.6147510219199
-71.9415477555407
-71.2301019432294
-70.4770597859575
-68.7897228893754
-66.4292098766863
-64.3624662342087
-62.9652973497609
-61.6029975685441
-59.6145416144751
-57.3469028352356
-55.8182988310831
-55.416249861725
-55.3344151499705
-54.5015657453443
-52.8113626485969
-51.0859612799382
-49.8834815572516
-48.7641902596594
-46.9807434534001
-44.6332066411724
-42.6946102821388
-41.8142219771643
-41.4508797736068
-40.4883655301828
-38.5563398583882
-36.36633486472
-34.6766425961262
-33.2956183262776
-31.4484725906279
-28.9903477679578
-26.8000006806308
-25.7652739185408
-25.6527540486746
-25.3436438182692
-24.1505032085878
-22.5285195406828
-21.3048952848328
-20.498028256456
-19.3118655297834
-17.2993354791684
-15.1096349413618
-13.7694779767042
-13.3978814727124
-13.0349617854804
-11.8292005987495
-10.0565295153571
-8.67202718340181
-8.02275483408657
-7.43636754044267
-6.21416203152345
-4.67255735956012
-3.79526653594808
-3.90067160784381
-4.06537430368132
-3.09742810827103
-0.848586284249009
1.77947317774598
4.07509981655028
6.33831177899114
9.21701320758417
12.4894506034491
14.9807115045435
15.8126356591417
15.4127936194843
14.9875572458639
15.1360630834902
15.3647934854362
15.0514099691497
14.5098418421167
14.7168932791601
16.0686105014086
17.8367538775224
19.0733445850357
19.7941996626495
20.8984895215492
22.9395978703766
25.3586037910744
27.1594475118196
28.0998443164719
28.8211965315532
29.7886660370395
30.5139539846224
30.1501936794216
28.6941662102404
27.1841484806094
26.5836354267441
26.7712111640922
26.9157691128051
26.6876254511079
26.6700169647711
27.4375534871513
28.5862571892801
29.0943754507138
28.6139093984724
28.0037509319144
28.360252074268
29.7614705216581
31.3230160687525
32.4400369276097
33.5318008355802
35.2878898611946
37.448167235463
38.8242303797493
38.6509785019302
37.5593012410078
36.8858148968073
37.173876671882
37.7750358919465
38.0204954913404
38.3660257132588
39.943679943188
43.0655984657396
46.6498837595755
49.3766945122101
51.1264277170948
52.8581411208777
55.0966881317553
57.0007621881852
57.2238593665915
55.4469261354635
52.604711086289
49.558356877338
46.0004007382752
41.042586467675
34.6877408750454
28.2020329202752
22.8488618574042
18.6060819533596
14.5046950034707
10.0840479149096
6.00663214934175
3.0441469158208
0.867881336918003
-1.63695810417563
-4.87421916219495
-7.8553426305857
-9.32159288437936
-9.26715072789744
-8.87501342573816
-8.94161485791493
-8.88166798750098
-7.66190348057583
-5.4292615640144
-3.59646999029469
-3.13615057208831
-3.25903841440924
-2.28123748544217
0.299941951684318
3.10694823353434
4.43439120883556
4.07645167371647
3.15910720261346
2.34829363050782
0.914617992551765
-2.05381672947793
-5.89859043205062
-8.46662688656795
-8.00298228097088
-4.51609416368797
0.907851199036294
7.55537213491098
15.099924581027
22.2466233655644
26.3444945651612
25.2135535170083
19.2191349771706
10.738254981996
1.2341537139274
-10.604735916721
-27.2518172618696
-49.178690692328
-74.1195304934835
-99.6554279701588
-125.726023999885
-153.94138308951
-185.027398073007
-218.007576702529
-251.198078992195
-280.838692399922
-295.756848824167
-274.494434555763
-193.700179548418
-46.1472083697736
147.484224489281
348.750242279989
529.237685063656
690.41264714312
852.672068234277
1020.27645323116
1156.95843736448
1201.8001108495
1116.86192422311
923.807398364903
693.104629213053
493.013213757465
343.931140029938
218.036694332798
80.1223966259828
-72.5305216210188
-208.366123750121
-294.671006684868
-329.27213583239
-340.37487193002
-358.877328374821
-393.300557035773
-430.018984464186
-453.080095256677
-460.196433459805
-460.399429405656
-460.558510360291
-457.866427205366
-445.419143532786
-422.381241659743
-396.591962621728
-377.560342751555
-368.348278494986
-364.514051192465
-359.551760937403
-350.088691081243
-336.377186435776
-319.773831304531
-301.239862429828
-281.936451667568
-263.746801911289
-248.179565911383
-234.964119371869
-222.416161703295
-209.336149419441
-196.110528706631
-183.696570748981
-171.926975469453
-159.430061790882
-145.332158184585
-130.577802986835
-117.147273979712
-106.053697288474
-96.4637393396056
-86.8541618329329
-76.6829986580332
-66.6232495246824
-57.3389970174865
-48.533211128578
-39.4466833429944
-30.0240646208323
-21.1526442871409
-13.656993665014
-7.34707989943507
-1.30407371289018
5.01693198186718
11.2794076606842
16.9262738950401
22.0710068912437
27.4427279191223
33.4806201861864
39.7677381660216
45.5286218907165
50.54480337802
55.3394046130647
60.4436808478229
65.7060304428585
70.4864055433717
74.4142880411336
77.7064378438387
80.6793404846796
83.1640310499804
84.6368080361139
84.9182471670478
84.542603454235
84.3229359436138
84.6550124403069
85.3920513901401
86.3438015738948
87.6559782185941
89.5440172140603
91.7663273136711
93.6035382907641
94.4570088844208
94.3575765546376
93.7697948183787
92.9675331461658
91.781812503283
90.0028861988121
87.8456952782865
85.8100512373044
84.0857629319492
82.288588095986
79.9173181627344
76.9940053764568
74.0930186608682
71.7251819419885
69.8503202283257
68.1100123384558
66.4401294274639
65.242898529041
64.8848298887134
65.1752885922836
65.5197393116415
65.5805126288027
65.6257326251617
66.1395704231857
67.1951590578625
68.3684340292859
69.2610591010706
69.9333791270101
70.7031564210745
71.6140766408442
72.3045951258962
72.4685861030133
72.3132401908478
72.4136294083189
73.1355121000149
74.3379942970999
75.6851941180752
77.1100037767848
78.8128431997457
80.8326444801481
82.8136092694346
84.3311922103032
85.3839618321456
86.4119949853285
87.7990553976708
89.4743923734285
91.0883495653912
92.48556284269
93.8298857343482
95.2275436602163
96.3888529023501
96.8362860982488
96.441524681511
95.6130688408704
94.8786262864535
94.3724911512952
93.849255925699
93.1555889158974
92.5037034823422
92.1725517943833
92.0408585718829
91.6007971668563
90.4811598028917
88.831686023096
87.0780568336841
85.355711473543
83.3365979230292
80.6502672458261
77.3373971258017
73.750024741281
70.0502548352907
65.9880383577279
61.2677611976732
56.0316785371987
50.8206390217692
46.0392814167186
41.5857510117578
37.0862549987339
32.3983478999511
27.7271781190422
23.2386179253397
18.7275475934287
13.8192953605097
8.46125728964483
3.05809286251146
-1.94648542856771
-6.52482951133379
-10.9984119707837
-15.5693542917854
-20.0781302890929
-24.2907280591346
-28.3019398950904
-32.4842849287471
-37.0212024184929
-41.6306136482703
-45.856325741518
-49.5744697821952
-53.0856189064035
-56.7003116306001
-60.3709016101901
-63.8358812848845
-67.0510860313264
-70.3039215302651
-73.8378078652837
-77.478179155379
-80.7665653290319
-83.4526519989812
-85.7293043415308
-87.9314131773496
-90.11039598091
-92.0348473032336
-93.582633847887
-94.9650154130986
-96.4563018364876
-97.9800127305662
-99.1182941639324
-99.5694189254188
-99.4886152590948
-99.2899090305919
-99.1786087374661
-99.0183547245355
-98.6770999432071
-98.3536911615806
-98.4129938680453
-98.9204468908112
-99.489382075402
-99.6700123702198
-99.4122493757459
-99.0357220197421
-98.7710552005965
-98.4756582414875
-97.8769197678944
-96.9928413764833
-96.1500347071046
-95.5597848170512
-95.0082130595452
-94.0805464336376
-92.6484703124368
-91.0075381825386
-89.5033737204002
-88.1376240830293
-86.6492694714909
-84.9307957967636
-83.2043607837487
-81.7161568996025
-80.3587769141955
-78.7379081457173
-76.621069477183
-74.204261697658
-71.8644883129856
-69.724255775897
-67.5782306632555
-65.2411383650523
-62.8266181693053
-60.5792016661418
-58.4937687382409
-56.2505651189738
-53.5808583602697
-50.6075624086942
-47.7303065338054
-45.2090430873593
-42.9739328446493
-40.8692562412811
-38.9614774929888
-37.4734878195557
-36.4291645608583
-35.4999865468647
-34.2908052517032
-32.7219396454734
-31.0307976391249
-29.4081513677141
-27.7523570403697
-25.8528809890236
-23.7361713508251
-21.6931499645384
-19.9412474538593
-18.3738245886365
-16.7440124477315
-15.0519232907845
-13.6207910777121
-12.7429379678658
-12.3368756311256
-12.0444219425292
-11.6250355005733
-11.1255771934798
-10.6171724373265
-9.88171456953087
-8.51266838778225
-6.34958808619576
-3.70617260379791
-1.08911426354992
1.25822109686104
3.44122026793538
5.56952851753036
7.47409587861284
8.87568460633798
9.78052172497463
10.5618808135903
11.5861552472044
12.8378880350133
14.010572240678
14.9390456659096
15.8204805669741
16.9563770394557
18.3696618547362
19.7992593075211
21.0647752623454
22.301601452548
23.739040488706
25.304175580686
26.5807826933688
27.2080807921924
27.2419936765969
27.0486116733152
26.8918576241482
26.7480262851147
26.557025610803
26.5344061087689
27.0855965101687
28.3896136620791
30.1676396569604
31.9388299795225
33.4639636376097
34.8565601594147
36.2736257239479
37.6197528391658
38.6464177838068
39.2916713062254
39.7903108444953
40.3921564823706
41.0439335303202
41.4432159603425
41.398892458977
41.0494043656664
40.6847847951187
40.4249176164034
40.166789774003
39.8362335750829
39.573706697226
39.5814983274174
39.8243012647293
39.9892163191759
39.7891769568732
39.2521924347768
38.6512089719091
38.1806925813049
37.7946967504309
37.3935648307534
37.083167442856
37.1340776068679
37.6638454239107
38.4418194865709
39.0832943992558
39.4194422793777
39.607813519273
39.8651296389991
40.1614738146147
40.244626874285
39.9410925779669
39.3440642369715
38.6618290058399
37.9399453069453
37.0260862635253
35.831138892534
34.5626750924585
33.6398341564353
33.3860560403064
33.8452605962651
34.8834328929346
36.3826244479963
38.2654156018375
40.3657257924061
42.3927681524187
44.1046320247055
45.4978339088908
46.7593541503878
48.0162392161044
49.1780537692072
50.0435290272531
50.4866747592928
50.4293956950014
49.6177644134432
47.5490131773755
43.7751579268028
38.3337997310292
31.8234482162087
24.997559696946
18.3068323970686
11.8829393146489
5.91306697886201
0.859331229853787
-2.83196868464901
-5.21455595624424
-6.89105288058524
-8.47849625003729
-10.057412309327
-11.2267089380737
-11.67846825852
-11.5921563002276
-11.3934678233615
-11.2268557638003
-10.8390139129764
-10.0205809459203
-9.01445920245563
-8.33353509169935
-8.20076719133897
-8.32213187399139
-8.2642809453797
-7.91263557712911
-7.4085133301033
-6.72526106356066
-5.59183557806804
-3.98988055709879
-2.54307271585964
-2.09696751096681
-2.85408842698759
-4.20354561623517
-5.64197739387842
-7.65542317891823
-11.1477940995934
-15.6812045317696
-18.5894575099114
-16.5439746862833
-8.53384368942285
2.6370986818892
11.9863078584235
15.5889741803511
12.3032242468222
2.68544775082809
-13.118294658034
-35.8862980919254
-65.8133715575152
-101.030211334773
-138.134268723212
-174.427056900352
-209.693751356905
-245.590841489275
-282.313429706144
-313.92597551682
-325.310518419683
-294.626922137154
-203.314061521875
-49.5810653677441
145.110036913559
345.703161008691
525.827532741127
684.505755888501
838.93706056954
995.268089564743
1123.75890022476
1167.14555929249
1082.79548978133
884.132926522663
641.005045721932
433.082258498139
294.726671063419
199.830953087307
98.4957954887806
-31.0997228482295
-164.602050664656
-260.532238243579
-303.360759348009
-317.019882324123
-338.843083332025
-384.1296692599
-437.037403663269
-472.384549847266
-481.399497775144
-475.139527773085
-467.082173433759
-458.023782762604
-439.620361928807
-409.260161022594
-377.007235405463
-356.8456894467
-353.310849732123
-358.531049478326
-361.27972773879
-356.482900888584
-345.579526602656
-330.469760842099
-310.417133978949
-285.295920861665
-259.326457553407
-239.066003681894
-227.519027017612
-221.601494008132
-215.960708759809
-208.216059990069
-199.386750596246
-189.919577058378
-177.389067858829
-159.352971651446
-137.658098501007
-118.190360599006
-105.636097386631
-99.1196433549076
-93.6555360354262
-85.4804609712719
-75.0865908410103
-65.0943517797343
-56.401303009674
-47.4903967661755
-37.1533889018223
-26.5419504836358
-17.7972011784752
-11.276898317901
-5.16197809701218
2.10660036779691
9.87425172060472
16.3468710938639
21.141030353221
25.8540476130684
31.9188246703986
38.6328925956947
43.9844056239392
47.1857179939465
49.6158275160818
53.0167501037013
57.371680983176
61.2033713576944
63.7647120960528
66.1281248304845
69.7254303263241
74.3149066147749
78.1078152763938
79.9241484069308
80.5869631241017
81.7909063442015
83.9833513879481
86.0157362835326
86.9156813597249
87.3340352341145
88.7132963306982
91.2925272472965
93.6218932463782
94.2706025559187
93.5315395269364
92.9451846004699
93.3199866065788
93.8409406465507
93.3532326673391
92.0254852566838
91.1456918948006
91.3306033376237
91.5570699635757
90.3455124642941
87.5903355204477
84.6845176937873
82.817414024115
81.6758387270846
80.1762203042451
78.1467633679823
76.6582490561735
76.55047338938
77.1345712538427
76.8441415427474
75.0492556594641
72.7221876552042
71.1467350093949
70.3923726065705
69.509673666415
68.0823819553278
66.9909278444662
67.3374446222886
68.9633181884067
70.5541232512697
71.2369333863944
71.608713932399
72.8853599957108
75.3188094047631
77.9464351426735
79.930997483743
81.6424382126762
84.015462777516
87.0560326556463
89.5398294102288
90.385182674397
89.9587295875344
89.631181486272
90.1680392318597
91.0269883153201
91.3946594034449
91.489790437595
92.3402444714145
94.3140040280143
96.3856721911658
97.1855779185917
96.5379163354309
95.5381206954754
95.1127088596055
94.9520954714819
94.1573019231292
92.649813102837
91.4025015503387
91.1568705838723
91.3458902439243
90.7043684092845
88.8260334801029
86.6600433269027
85.3102462404914
84.7041527517114
83.8339187637139
82.1747207020581
80.3399014100264
79.0809264584297
77.9845821328051
75.6722085184608
71.3464659993271
65.7361345379632
60.233081412585
55.3346788036798
50.3640898201167
44.7279008438137
38.9538756115938
34.0833945020172
30.2176445399591
26.1829706983541
20.8405019200969
14.4101309574153
8.14242863980373
2.79921825684222
-2.09575831759952
-7.34623624903487
-12.8227779596385
-17.5845452442425
-21.2296769621573
-24.646327677627
-29.0987574058512
-34.7729595393017
-40.6295991436361
-45.7173175962109
-50.2243334607789
-54.9492306343548
-59.9907255910277
-64.473088569065
-67.7038356311468
-70.208324636321
-73.2081681994938
-77.15567454484
-81.1984567968645
-84.2520463267226
-86.2774032659487
-88.1327533550966
-90.2779981149007
-92.1177572766839
-92.8838062880932
-92.8672012362947
-93.301794150118
-94.9631833795562
-97.2555811815397
-98.950958451817
-99.6139596553485
-99.8934324807947
-100.393933891802
-100.715995624007
-99.9915604997082
-98.2045403873672
-96.4938426761522
-95.9514918371937
-96.4180894982435
-96.8059162012087
-96.50082705305
-96.0151730618265
-96.0953320165282
-96.548424480479
-96.406360850007
-95.2287957312127
-93.7852831610676
-93.1441591540956
-93.3056441504104
-93.1525751420402
-91.7932314200289
-89.5662069940528
-87.4460674230748
-85.707875229407
-83.6705726091063
-80.8672973478642
-78.0402917965507
-76.535217748683
-76.7712334041817
-77.7221361152887
-78.077689541303
-77.6029809675593
-76.9958988620587
-76.5413395848025
-75.440251671658
-72.7682581206899
-68.8130811372521
-64.9756432398481
-62.265655535356
-60.2662113781536
-57.8563742801628
-54.7214209370654
-51.6986342202935
-49.5732132575049
-47.9796649021591
-45.8958291243022
-43.0778275509703
-40.5101338948485
-39.2239735170194
-38.9860640546498
-38.5469209869147
-37.1167560159264
-35.164502121382
-33.5659539347444
-32.3111806309149
-30.5299637337187
-27.7974510276307
-24.9387477802929
-23.1846654234673
-22.7119275205905
-22.4432034548734
-21.3612496002993
-19.6361598881799
-18.1465595662035
-17.111392026043
-15.7099215351698
-13.2215643751843
-10.1559673166633
-7.8119814742163
-6.76283870398073
-6.20058167476458
-4.97989091694964
-3.00535167030284
-1.18958269955162
-0.110695405734551
0.798577448126646
2.4364587867181
4.69098231277995
6.40338308749797
6.75851123509109
6.32681178435684
6.40761282965526
7.52181271787347
8.98371758957169
10.0322913245481
10.9478639476155
12.6375174239689
15.2527514384679
17.7333270385793
18.9702623353713
19.1278470871216
19.4153974228337
20.6027498636674
22.1958526360403
23.2917539048251
23.9055097462322
24.9553659071362
26.9112420646012
28.9380820787424
29.7568403656488
29.1803842427158
28.3517194669382
28.3701685091286
29.074603507222
29.5213868205342
29.4512552425469
29.7440902478849
31.2270262563334
33.4236618318953
34.9588402096135
35.1716213990476
34.8790147252464
35.3101104834745
36.5966533088776
37.7576122592244
38.130646829221
38.3019908630084
39.2768722957897
40.9981431275458
42.2230511256583
41.9951120423692
40.8294620403366
40.0713018688882
40.2578208292714
40.5996232764183
40.2043618887278
39.3645786121598
39.1657880380038
39.929510222316
40.5947952472193
39.9359363904362
38.0841432632966
36.3794063468289
35.7348867849291
35.6273675818407
34.9884273700154
33.7618434182242
33.0243068990127
33.4922900630542
34.4140010682455
34.3775268832334
33.0449547190243
31.5698309521493
31.1471177002028
31.5753080510945
31.6796501051932
30.9849804289242
30.3802508483163
30.8684996525778
32.0684901538318
32.5127307526699
31.4349142023571
29.7441418195743
28.9003133988224
29.1339832599394
29.3117106710651
28.5849345855167
27.6075632247086
27.6738355791644
28.89196404842
29.8321561383584
29.1943573529406
27.3870861555429
25.9848976281671
25.7702733272568
25.8958140461542
25.2235933877935
24.0430289330312
23.8810714436623
25.6372536801223
28.4863498335332
30.982155615923
32.8969955651323
35.3667519409004
39.1546181323689
43.3346978502664
46.13955779945
46.8545092666785
46.2743777053952
45.1843834528291
42.991116525436
38.4376098214088
31.5095980798561
23.9513414910716
17.5742855290636
12.4739876022318
7.45223332321331
2.05087972091797
-2.55720753857545
-5.07883847681028
-6.02311783834586
-7.36997206935498
-10.2281415702793
-13.4538089001448
-15.0814337818447
-14.7933763019342
-14.2510286311368
-14.8551174561759
-15.8788610426024
-15.4741980639553
-13.2818095919206
-11.193343564912
-11.1530981943759
-12.7645460062761
-13.7951510498345
-12.9459998719175
-11.3170922121955
-10.7366596350451
-11.2785808059704
-11.3543377858966
-10.260759321528
-9.63350657028961
-11.5833805983625
-15.7732451583792
-19.353436824483
-20.0789746470347
-18.6703130888757
-17.3043525241488
-16.2105110499137
-13.0348288260745
-6.11149786851871
2.55709814787021
8.78190464734099
10.5070578520882
9.24105080230088
6.28021514647212
-1.52739542702889
-20.2257310864282
-51.9452952912083
-90.5072234982222
-125.36811385148
-150.646705146337
-170.069398050081
-193.019596187537
-226.026626011752
-267.174347293317
-305.646789214973
-323.437361511106
-298.250245716092
-211.137334002588
-59.3942424671065
134.901217404663
333.626810344852
507.732003467214
657.633958535951
805.524328575789
961.286503922967
1094.00885565753
1142.42182149153
1062.29068041795
869.505905533459
636.236043166605
439.627986780928
307.908657056736
211.454034167732
103.196581250889
-32.9324952750161
-170.166904968604
-269.042302891319
-315.105635019672
-328.155109673645
-339.85295793557
-366.58325168326
-402.787280089159
-434.526617238059
-454.147518616659
-462.140177500645
-460.185007417038
-447.547437781276
-424.784041761929
-397.655334211607
-374.440003877475
-359.393117757402
-350.414676321377
-343.439603830169
-337.486028332898
-333.935005489215
-331.577650191129
-324.721815880568
-307.832787962895
-281.739388149836
-254.009399699273
-232.647716789906
-219.759180557444
-211.442741371872
-202.927710686691
-192.710567672776
-181.853733465881
-170.801093446351
-158.314045901269
-143.470802657151
-127.508537065613
-112.875596186711
-100.824047956932
-90.696536059624
-81.5528121028183
-73.6110447723264
-67.4454186658445
-62.1948334150638
-55.5866934859488
-46.2021648141762
-35.2568043464561
-25.4955024733835
-18.3219716460309
-12.5194101436371
-5.99148886973758
1.71346973205928
9.14340643543257
15.040318260759
19.9881343112456
25.5652056927147
32.2345673895507
38.7446699860319
43.7500971049916
47.4862831699393
51.3511013380581
56.0200558126622
60.587478032121
63.8151989654605
65.8063522520108
67.9123487991537
71.0218846418808
74.4731585888612
76.9756152428092
78.3005754278167
79.5388555132172
81.6334912039405
84.1409231643827
85.8372670618759
86.3537390513382
86.692045782718
87.9512109085486
89.9281853761806
91.3986975040905
91.6859997833297
91.4674406023659
91.7929418122611
92.6285769598383
92.8396592385029
91.6339025875291
89.5854702385124
87.9195723876138
86.9994748838607
85.9703469671646
83.9843352451069
81.3790075345637
79.2745513683144
78.1391981795521
77.2104066875306
75.5220651160203
73.1875164707455
71.2702468962588
70.4304394611257
70.1227568480508
69.3751375707281
68.100886599989
67.21371697411
67.4047789419071
68.2017990460195
68.5554978528228
68.1909212134018
67.9583660777019
68.7287911236466
70.2779939328511
71.6067011746271
72.2569727418042
72.886582295074
74.3481889766874
76.4889871312337
78.2570012119232
78.9912394926724
79.2254076317525
79.9707198032308
81.4235541745696
82.7778498114433
83.3613917228554
83.5826313599667
84.4359285618366
86.2128020390882
88.1089524743886
89.2416837973012
89.7486908735195
90.5416811975474
92.0534530654158
93.6248522932668
94.3232703989041
94.1041340078884
93.7917392496599
93.9235054520682
93.9987237570041
93.1319372449308
91.2540001639895
89.2792337767118
88.0138010252336
87.2266817502416
86.0761103639683
84.2930835983843
82.5371989129823
81.455196144252
80.7077467778464
79.2861188660321
76.7381917771767
73.7103036928846
71.0952679555665
68.8995619734024
66.3029756707418
62.805307004509
58.9191660019623
55.4733680587546
52.4432146821749
48.8748974036926
44.0481929517909
38.3877319918089
32.9429372361817
28.1153211202047
23.2836397323128
17.7863083906701
11.9328587353113
6.68468214749792
2.41209720184709
-1.62840936244476
-6.38209061302938
-11.815168021052
-16.9914259803349
-21.2932776010107
-25.1865383082118
-29.5433632550033
-34.4418632517453
-39.0447629817264
-42.723408961284
-45.9335714762194
-49.6605627960081
-54.1320396119819
-58.4731548002659
-61.7597787509742
-64.1073583815296
-66.4013800716411
-69.0667003426377
-71.5269370754369
-73.073394184053
-73.9797277041921
-75.3526558765758
-77.8627571175498
-80.9776989676951
-83.6759708475967
-85.6981885063024
-87.7183008844108
-90.2647001890651
-92.8715938393911
-94.6168227965312
-95.3418469894463
-95.9222129114481
-97.1958799414444
-98.9278211207359
-100.150272849243
-100.416840010703
-100.322018718244
-100.629047569091
-101.200226948982
-101.17943383108
-100.196683849325
-98.9803736089649
-98.5227895731101
-98.8570769015436
-99.0376461713806
-98.3501483193009
-97.1692260479626
-96.3572005862677
-96.031670953285
-95.3653083554332
-93.703799307292
-91.5157069779451
-89.8773243854477
-89.1188516785738
-88.3845100939489
-86.6883583465831
-84.1033918885083
-81.5580907268875
-79.5496843206772
-77.5016094331791
-74.6244074247937
-71.1302224395934
-68.1574027181679
-66.4465050041436
-65.4599409999067
-64.0781872292395
-61.9652914298132
-59.8516717667924
-58.4305709965116
-57.3838993222986
-55.8454935054242
-53.6669550254867
-51.7600146425253
-51.0018896037848
-51.1004761623018
-50.8901452450899
-49.6643731234906
-47.8151429881884
-46.0045153845219
-44.0601569093559
-41.1404041337596
-36.9815781137128
-32.5371830694636
-29.0741040671544
-26.8294588079099
-24.9449085662023
-22.7402215504075
-20.6360646114618
-19.5141249541907
-19.394040141364
-19.2384177548216
-18.2093767617405
-16.743948861459
-15.9983308122806
-16.333119970634
-16.7915309999949
-16.2525624952005
-14.7643500800709
-13.336549514797
-12.5010071562269
-11.5691013952027
-9.58410843708409
-6.7077359447922
-4.17626465450972
-2.82729717904451
-2.08681494008123
-0.725493250901195
1.60480835894282
4.04154225746321
5.76602622954603
7.13035357281077
9.13658887762533
11.9628336843216
14.529897082712
15.7511302856015
15.8792703283978
16.205417631093
17.5009086505835
19.2160876937718
20.4252097879493
21.1938967239367
22.5055345040316
24.8277070518659
27.2458001528904
28.3783605162189
27.9457819535123
26.9877507813258
26.4822849175548
26.1939423282567
25.233772082225
23.5176225382149
22.1168529219429
21.9913012115297
22.7832737782828
23.3053083671215
23.1143609229802
23.105029686283
24.3330290892042
26.6176601766616
28.7624469446927
30.0779095755884
31.1534600329685
32.8351070436544
34.7948174129036
35.6770367711148
34.7342735986163
32.8458075648201
31.5579670564428
31.3547933874855
31.3759740934078
30.8861779684113
30.4779882271549
31.3478653702259
33.5771537280268
35.7430402258009
36.4873077962623
36.0831791912072
35.9881073534112
36.9672927094794
38.2227471187346
38.6200095082234
38.3265317631146
38.6340621765586
40.1651713566761
41.8550499913856
42.128809235175
40.808533855265
39.2909211295553
38.7746606148367
38.8554252905558
38.2939852202342
36.8704730786277
35.7971861528279
36.0976082199886
37.1113271566065
37.1785214814411
35.691301795168
33.8569016246384
33.1708696165828
33.5955155981162
33.8154154543848
33.1784227212571
32.6825083514095
33.6400256019925
35.779845046756
37.3663752090624
37.2826046889042
36.3980906201408
36.4291896408524
37.7749570658942
39.1544895568315
39.4762880875646
39.3935293585571
40.4113337140248
42.7043057882783
44.5990772324983
44.5288220201417
42.968488043041
41.8060886740401
41.9414995544539
42.2461938920015
41.2261782336535
39.131086985062
37.6290785416528
37.4113273348307
36.9287666391792
34.0710311461883
28.7251988553942
22.9124952978877
18.3110957087092
14.3888019534126
9.56202140939728
3.78030479045458
-0.986445761205687
-3.11064289881778
-3.43435339956544
-4.29000642341023
-6.60805992752214
-8.86695165482909
-9.25123196617911
-8.14808968247695
-7.65677262465077
-8.77139941397218
-10.0431162766737
-9.58364328129532
-7.76155095121991
-6.91302484767678
-8.33403852146946
-10.5342751994682
-11.1599712582625
-10.0890683130324
-9.52101711714663
-10.8414335358896
-12.4699239174105
-11.7621712286608
-8.61352528005322
-5.89831772710791
-5.8861585165816
-7.22569622312281
-6.64551286719979
-3.42341705976581
-0.812037054085696
-2.29606935559659
-7.25820980835747
-11.5751083151401
-12.3984134748183
-10.9975365988569
-10.2091360710416
-10.3260296493638
-9.38911980766401
-7.71263766435857
-10.1987734834256
-22.3929660211642
-44.6762289669747
-72.227293640113
-101.392267620932
-134.511984233696
-176.62133750661
-227.618308998822
-279.29342245825
-320.002795847485
-339.476785775718
-326.928961673071
-267.450587056462
-147.965769876172
27.1751279747682
227.986998379379
414.00102979031
564.276331283126
691.696190563168
821.132047192852
949.126116953405
1028.46452037092
1001.25197925228
854.033197847166
640.539180586545
445.234481641217
318.868183696015
245.86926105728
172.093129513068
62.4204168030233
-68.3055863361944
-176.229541275129
-233.841238763375
-252.886652412332
-267.142925461578
-299.044537816966
-344.654112954219
-385.927760406802
-410.703325702805
-419.163574848678
-416.082761280473
-403.428932518696
-382.271225738672
-358.057268487172
-339.396270790599
-330.679714749284
-328.048379343118
-324.204445763472
-316.273396627031
-307.273900865075
-300.113177296913
-292.343240872144
-278.521814867386
-257.194206005149
-233.786903815054
-215.825998673984
-206.014682612144
-200.715170648668
-194.605336364435
-185.548068205325
-174.724821805479
-163.433409586981
-151.324966996232
-137.82957315734
-123.979765529045
-111.75900337916
-101.90896273641
-93.2842937148632
-84.5830946202638
-75.9856503109441
-68.4555508700291
-61.7703647127108
-54.1636876803926
-44.3177566875597
-33.2328190273635
-23.4968962062761
-16.7052665862862
-12.0628445686868
-7.67721331387997
-2.76394393014776
1.906159911572
5.56355865666082
8.76837659559219
12.8203684004964
18.1651111809826
23.9155923161511
29.0121376505477
33.4176865095036
37.8499529502949
42.5717409067574
46.9416370231617
50.2991322648236
52.9436641958955
55.8772657895554
59.6400794468349
63.7277463373725
67.2662100113563
69.9962444315819
72.323626986141
74.5088337426768
76.1843410856229
76.8621520592514
76.7178931907872
76.5674783045316
77.0316510336843
77.939010771531
78.6772626711656
78.9740490568541
79.1021146263225
79.3355018769663
79.4717217147638
79.0865135026907
78.1654337265439
77.2478861933161
76.8690124709254
76.9960240128342
77.1371925003324
76.927718573966
76.4360108494571
75.8750809202555
75.19990420848
74.1675402578797
72.762753153769
71.3858749976219
70.5194111924315
70.2738497551164
70.3527199467057
70.4261555409082
70.4152660479454
70.3799045702661
70.2590363453546
69.8769874359319
69.2185784834329
68.5816526220468
68.36713330537
68.7394664299375
69.5482390278896
70.5589381864982
71.6726292612624
72.8891719785571
74.1406124931796
75.2750679394928
76.2284720185374
77.1435222622871
78.2580623476406
79.6820372084996
81.3085890989219
82.9189941860782
84.3200931919105
85.3775117466561
85.9918559515856
86.124373435589
85.8527115899985
85.348527131924
84.7660573308418
84.1647705391666
83.5454766032235
82.9140257064592
82.2538586712705
81.454322708432
80.3597526156659
78.965046669822
77.5473447667305
76.5334214607202
76.1976523187498
76.5005815801518
77.2147780282021
78.134668412072
79.0864891395949
79.756604998813
79.6398506199369
78.2815498885774
75.5976523899334
71.9180716597774
67.7055796727755
63.2692954893113
58.7529893490013
54.3036150792188
50.1177056403657
46.2825217328101
42.6525257741972
38.9759817323285
35.1481163658677
31.2873035863236
27.5606836330395
24.0088412133825
20.5903132171022
17.3334769519488
14.3237951975708
11.5055414841522
8.58718422413764
5.24719848287582
1.43209928358439
-2.62604260363929
-6.70824435898617
-10.8451157529527
-15.1879306935543
-19.7020876639654
-24.1254623494121
-28.2864172313378
-32.3689759350042
-36.7367106751486
-41.4883399110699
-46.291005475021
-50.7099653483665
-54.6286659715838
-58.2444406912515
-61.6834277845271
-64.7735546647842
-67.2900541816005
-69.3386760150206
-71.3353167543787
-73.5649221064311
-75.8687716399661
-77.8597344543103
-79.3872852875838
-80.6627109116429
-81.9214776567744
-83.1166809255005
-84.0744173232743
-84.8849695539863
-85.949640678978
-87.5509816261824
-89.4744543630245
-91.1814133061202
-92.3271143240031
-92.9689637323696
-93.2329447255111
-92.9453590686125
-91.7896995101021
-89.818370116128
-87.611673500263
-85.7881780361109
-84.4249804253111
-83.107064048229
-81.5389147800994
-79.9283219069866
-78.6550294722505
-77.6892806881147
-76.5725844104041
-75.0339379882356
-73.4469427871815
-72.494900700606
-72.4219148286941
-72.7953733867497
-73.0595521661568
-73.1515286830178
-73.3951461242811
-73.8567590682882
-74.0603145052739
-73.4747808419698
-72.1459565976203
-70.6321597006312
-69.3103924000531
-67.9483853203235
-66.0860913010353
-63.7006190087166
-61.2626906116273
-59.1189010754414
-57.0478219421657
-54.6090122208924
-51.8278373710565
-49.2795294307671
-47.4176333756685
-46.0095329408159
-44.4280726712414
-42.4285370049571
-40.3946378374852
-38.7394491060758
-37.2789222422452
-35.4439148842051
-33.074518975568
-30.7332664232548
-29.0779554990587
-28.0770570392291
-27.083312573635
-25.6703000827891
-24.1360188540454
-23.0199046640359
-22.2947530734917
-21.3382711349638
-19.7533706332278
-17.9539999599822
-16.708806989843
-16.2019755777898
-15.8258814383601
-14.9755438552338
-13.7997302382031
-12.9213988824547
-12.5112157942841
-11.9704177735835
-10.6798046404134
-8.84190887784786
-7.28580227189496
-6.45541876341171
-5.88907076989691
-4.86812682931101
-3.37747307005574
-2.10755991794978
-1.49889310971004
-1.11077866674068
-0.178040180631642
1.3628432948377
2.7456847943391
3.34391330813896
3.47952030508446
4.00635602482321
5.21307443789544
6.4944951623529
7.22427073513328
7.65771454255074
8.63675605574269
10.4594904327254
12.4137901837587
13.6267300802679
14.1431099854665
14.8208015535918
16.1773210368166
17.7119344440002
18.607879433139
18.8860104559629
19.4601241211846
20.9832997418551
22.988981869774
24.4713037012624
25.1614954662735
25.8270352376955
27.1960410831686
28.9250864191392
29.9809106791658
29.9408027605729
29.4941623217172
29.4793451157282
29.7369719223306
29.3192058473068
27.802485610527
25.9748907091192
24.9780276099478
25.0206478337088
25.3436102484636
25.4441825035473
25.8806811393828
27.5363807963227
30.2998973310525
32.9424996558845
34.4121327404808
34.8784282683399
35.1824410690253
35.4739395874351
34.9171810493314
32.9100415090584
30.182624106127
28.2279652927227
27.7184021257849
27.9577241535963
28.0914341986571
28.452281439009
30.1953260253169
33.6503938926324
37.6005117121267
40.5515905068438
42.4190751746704
44.4217280027666
47.2762423523531
50.0507647832619
51.2289116939685
50.6328963692617
49.662515987208
49.4684516316957
49.4138207065851
47.8637952754107
44.3156688984677
40.0928153746855
36.6753589213385
33.8485683236083
30.1167652066388
24.8522908802848
19.331028913488
15.2464619344464
12.6376923241572
9.98156740745799
6.34774312471271
2.74742896510203
0.840376022102095
0.695571544997176
0.629758670668238
-0.581827222327103
-2.04436760758001
-1.91351430358758
0.0863125358242911
2.17159846171619
2.78642485626166
2.65000818468231
3.72520284217845
6.34250490288773
8.33676835560472
7.56674798758167
4.67340935627777
2.39689272135137
2.17725810311779
2.45570166730719
1.0541701114538
-1.35703430834677
-1.3917299748247
3.0898759897288
10.006434361809
14.9084304522447
15.5316055022742
13.5596336031434
11.7176475114123
10.2447814718396
7.30714817760994
2.38667565018681
-2.462296313788
-5.68437533025305
-9.64432490718404
-19.4134684147569
-37.8351609573805
-62.9222672634975
-90.9489153784592
-121.294643633521
-156.796839115658
-199.217604556644
-245.523152213286
-288.624399265158
-319.151198104392
-323.70439721183
-282.923039804833
-178.336759939162
-8.82279611002925
198.116279535733
397.472597268512
557.248014832952
681.045366932586
796.797738607308
918.048208417232
1016.05512183017
1035.34986527166
942.779280350072
763.249196536441
565.127882791382
407.343741662127
298.329343353697
204.098282927418
92.7450357013728
-31.7168603044055
-137.597823737887
-201.438399557688
-231.14791513965
-254.579034236821
-290.35865481734
-333.385100032816
-366.732933358351
-382.11881019961
-385.698061309386
-386.647810042044
-385.580787013517
-376.559604569122
-357.833841384836
-336.487299337271
-321.470065936368
-314.386867759927
-309.296366721351
-300.817095459908
-289.98729708851
-281.27844675698
-275.658927460895
-268.876327515387
-256.712678284527
-240.128672495354
-223.947759330305
-211.217445848916
-200.438529834897
-188.583226804148
-175.413675733884
-163.54535435816
-154.674157313179
-147.236461323076
-138.475558177744
-127.963762159897
-117.924260740645
-110.101711075026
-103.399186246092
-95.2916492877546
-85.0196080805989
-74.391895187108
-65.3128124817156
-57.390322525635
-48.6959006743896
-38.5375529275608
-28.5684793678363
-20.8519262974376
-15.4554556533557
-10.6194286605359
-5.11170403745513
0.367784555261636
4.45654343471324
7.25192747175535
10.4457760974849
15.3252395659741
21.2642535058554
26.6093315796345
30.7310664542886
34.5957126331697
39.245844531784
44.2910487687898
48.3829714331378
50.9792237545646
53.0453535724583
55.8006431553482
59.1775356783565
61.9818800040349
63.4862605046241
64.3638918750142
65.8061508755606
68.0457762072596
70.2082582786615
71.6047927329033
72.7018042201145
74.4885737711871
77.0992200696886
79.5036408312658
80.6601754201584
80.6371467484332
80.310488162466
80.1274830598551
79.5932708741044
78.1067338541525
75.9663192722307
74.1659532117302
73.2241320126328
72.5692673886485
71.2752805120593
69.1924385142577
67.0418938198031
65.423529721047
64.0859311248816
62.4087901601356
60.4179211409561
58.9480235870539
58.6957915538777
59.3681988086979
60.0171247933249
60.127694285419
60.0841687331157
60.4777096875894
61.220589221504
61.6406569459084
61.4101589922548
61.0610034965669
61.38448536888
62.4745247623885
63.6406556370509
64.2955366325259
64.6786727763352
65.5137635585053
67.0796669404245
68.9039944345317
70.4424421549222
71.813209496772
73.5971675536722
75.9486504896687
78.1747274771584
79.3543702491773
79.2508973843018
78.4166121914848
77.4294483954576
76.2788657714133
74.6612714881294
72.7254185127449
71.2211348548212
70.7942158877633
71.2926094703489
71.9517599602554
72.2221593720498
72.2195731954127
72.302785228547
72.4062242171804
72.0250939385923
70.8545677885471
69.2157568009089
67.6853232060791
66.3913303718972
64.8755838878189
62.6934732285338
59.9838445636509
57.3028154081235
54.9732974292945
52.8019435607728
50.4959422409403
48.1785325377054
46.2818048714776
44.9339267911343
43.6457078462066
41.7348351796864
38.9836561740828
35.7337674818926
32.3501510126432
28.7823582762185
24.7815329654562
20.4381472224013
16.2688487007456
12.6769457052726
9.45685229894148
5.99342970024364
1.93470486651201
-2.48248172235076
-6.82459425010619
-11.0279741704955
-15.4007648651862
-20.0866346104579
-24.7357579142278
-28.8589322640339
-32.4342969115587
-35.9789984202706
-39.9642580429462
-44.2847662801437
-48.4181805645452
-52.031036499952
-55.2446895428947
-58.2604773821434
-60.9045676132443
-62.7547786738212
-63.7235299783428
-64.3351405686613
-65.2976554451282
-66.8661848530616
-68.7578918217579
-70.6651868248836
-72.6573587158375
-74.9487811889658
-77.3869574635913
-79.4109665380579
-80.6128809375241
-81.20993419715
-81.8032730071604
-82.6969545452163
-83.6157158686309
-84.1465828346844
-84.2981527429114
-84.4377404151624
-84.7074655270879
-84.729572603958
-84.0438007711869
-82.743022077517
-81.4724583519314
-80.7507377042926
-80.4416393122987
-80.0169236010812
-79.2383648251399
-78.3661804400863
-77.6509258429353
-76.8314372768905
-75.3648244032434
-73.1378496053002
-70.7349223444385
-68.8724940844568
-67.6770078968353
-66.6912421672024
-65.5579577264016
-64.4652115952379
-63.7774664631469
-63.3770374694998
-62.6474862144736
-61.1894336396275
-59.3638871238431
-57.9317087121968
-57.2046798882008
-56.758002643524
-56.0366180636738
-55.041264067265
-54.2001001176436
-53.6254860102597
-52.7859289648199
-51.0864474360629
-48.6381521502517
-46.207283098618
-44.3705701207878
-42.927580082492
-41.2894777742923
-39.3012020260138
-37.4101201090492
-35.9816733094246
-34.7099437153175
-32.955619556228
-30.6049384471655
-28.3169099554178
-26.7927956294113
-25.9744125515996
-25.1818753203547
-23.9849727557168
-22.6575773286064
-21.6390112651288
-20.7647439267788
-19.3521794278867
-17.0871085808831
-14.5532989087301
-12.6636812826853
-11.6722241064187
-11.0059977141927
-10.098648421145
-9.10662904534356
-8.56600499216854
-8.47912450857806
-8.10903500405161
-6.83362658994702
-4.97431249635876
-3.48427692563213
-2.84379915280943
-2.55782385729299
-1.88177802349221
-0.799196794223924
0.0494234416988419
0.382258316554839
0.84422612733443
2.29466913032538
4.68837857194705
7.02275421929579
8.4767821567669
9.3083799106269
10.3686445781071
11.8897267519959
13.1565157995858
13.5034282378649
13.3030929090745
13.5875720430982
14.741648989653
15.9765888942287
16.322691459905
15.8968984204302
15.8097703808653
16.828019932722
18.5307644427414
20.045408892776
21.3533161306707
23.3768231257275
26.6608666537727
30.3637576790053
32.9462329732903
33.7684393160879
33.6083429274231
33.4949474941332
33.4255089444787
32.6548856162728
31.1370048816985
30.1346518782881
31.0758911256542
34.0494490361475
37.8464202725063
41.4678286228543
45.1289436062984
49.4929055048281
54.2327171983762
57.9128548339216
59.4082497253264
59.0014414268696
57.7074230257003
55.7480894145672
52.2564309583131
46.6428252925597
39.7796380502987
33.3387470301428
28.0777007256501
23.3285612526992
18.3731666688096
13.8256121741466
11.0587809660921
10.3340908280371
10.1563963277242
8.88218125987526
6.61245172944137
4.89911311097113
4.59900970109284
4.69554014957138
3.70389407154333
1.83932934777369
0.997908580918747
2.41099766731379
4.98067446230695
6.55818529339032
6.61312715445371
6.83946106568015
8.87465459048875
12.1089162359942
14.4780979924925
15.1632440652641
15.5121258753728
16.8564330772834
18.201815019775
17.1707903751041
13.2655417534595
9.1307470374477
7.80755649608175
9.26420026672162
10.7451139966667
10.6638296794072
10.9757967692443
14.7177332977916
21.7605857838427
28.4267638350777
31.6176310569057
31.8073064627754
30.3753275893051
24.5536050000339
7.59615907953417
-24.0390569063934
-64.2897661197946
-100.58476724337
-124.851437756686
-141.102776013591
-161.249124171444
-193.520516959506
-235.247417816889
-275.18305552917
-299.111954167328
-291.247426619802
-233.91506269054
-114.127746842775
63.2251741605848
269.81891131564
468.5821819697
640.084380362474
794.021257263221
949.225390111304
1098.63428616026
1196.68382995863
1188.51996630036
1057.72652295338
846.537266918452
626.490810661134
445.661178974833
301.325224467218
160.619319671576
4.30909373187717
-150.804439219778
-269.416880242952
-332.585726286945
-353.769566146171
-363.791395399928
-384.278057465597
-415.768912096335
-446.492775827878
-466.937320489075
-475.082162443829
-472.244462894065
-459.371175867669
-438.709532242325
-416.086608456598
-398.203226404983
-387.18158245559
-379.331227654843
-370.074198025613
-359.062183340863
-349.292392271402
-341.747717121929
-332.727721846339
-317.49416799154
-295.841842688887
-272.835290368425
-253.889615923515
-239.966852097134
-227.984793759777
-215.059526428691
-201.191203796427
-187.854984013069
-175.290615284115
-162.276434043063
-148.254302927061
-134.496619883131
-122.613786708175
-112.501470347741
-102.563840891582
-91.8919240500394
-81.4328084824357
-72.5876280642499
-65.1433941571891
-57.3175010120033
-47.8775725476864
-37.5829736960761
-28.1280968302585
-20.0314962378968
-12.2023015628494
-3.63343037408617
5.09328798967269
12.4622571077914
17.9331875519467
22.6071358106648
27.8480614129909
33.708547074925
39.1527844885313
43.6427627871423
47.9172736321899
52.9658153434942
58.6239819872079
63.6792373847153
67.3470324118472
70.1929256366777
73.3500368907985
77.112044664681
80.7206464862497
83.5216952466265
85.8780380413724
88.6305730012446
91.8727736404219
94.7013578393595
96.2854142802466
96.8585921451995
97.3699954636838
98.2978934695563
99.1773698186097
99.385709853291
99.0631775976617
98.9245983791042
99.2404859683356
99.3760237214205
98.5219552359606
96.6740257313897
94.6077043625202
92.9227917778006
91.416612977459
89.5495246017014
87.3028172812655
85.2488754288599
83.7523649614853
82.3996898416616
80.4496380195387
77.7421685412279
74.9011350122849
72.5950399374739
70.8301401725229
69.1587212630571
67.4532677055726
66.1710436534227
65.749516777211
65.9515314388657
66.0579905780716
65.6988451905394
65.2853652425709
65.5249346619076
66.6590689766089
68.3594423864448
70.3126483030652
72.6446785891033
75.6119141313629
78.9983053923774
82.053763572935
84.0961956017278
85.0496571937025
85.3065536672234
85.18030336439
84.6798271921612
83.8213135167222
82.9439171969896
82.5230273845703
82.7004456011152
83.1644862898415
83.5573420364429
83.8909222998283
84.4550762303765
85.3862180325536
86.5003053871504
87.6047494151068
88.8315215873913
90.4942589006363
92.6200512895409
94.7691153277653
96.4068491533347
97.3872494786614
97.9692229933301
98.3891151013661
98.5594665227346
98.2551063222204
97.4867466095348
96.5285267822825
95.5474849287776
94.3218265164467
92.422060488923
89.6330271405385
86.1066351210344
82.1095806706727
77.7436797168569
72.9954201990378
67.9843863090583
63.0083060773637
58.2835036916979
53.7219917182585
49.0577843901179
44.1752220969362
39.2267592089674
34.4124485863714
29.7379593081003
25.073443245629
20.404831568333
15.8954879225423
11.6357217498379
7.40113835336168
2.76505932159773
-2.53020245912443
-8.36889316905018
-14.4393680734709
-20.5370725498063
-26.6160321221047
-32.5804652822844
-38.1621230566546
-43.1025280755323
-47.43322045665
-51.4918255705577
-55.6286541193978
-59.9298903178016
-64.2381006038571
-68.3739527944233
-72.253818339997
-75.7997425287937
-78.8440706034558
-81.2257518359176
-82.9892230098898
-84.4338724339884
-85.9381401399913
-87.7492204445797
-89.9360203876298
-92.4701131271254
-95.2621540206218
-98.1104279191232
-100.697880868182
-102.728974028197
-104.090818260544
-104.860004320045
-105.161923220261
-105.069793088383
-104.651835422781
-104.04868233584
-103.416626656827
-102.78248537453
-102.024197982037
-101.055757440664
-100.014431769127
-99.2084176730579
-98.8665095113959
-98.9783956791707
-99.3929503839538
-100.005186163677
-100.75956244316
-101.471673841928
-101.753406145661
-101.223273313572
-99.8106936279527
-97.8101492453877
-95.6231412941208
-93.4874793930437
-91.4719795339342
-89.6505568214636
-88.15072695736
-86.9816296506586
-85.8897184743656
-84.4920834284256
-82.5856680647493
-80.2923939406281
-77.8943622532614
-75.583945464494
-73.4166547010209
-71.4469002758407
-69.780339744902
-68.4244620576003
-67.1436993285714
-65.5635249853876
-63.4526694501074
-60.8699881203449
-58.0283363428528
-55.0820828252519
-52.1090246041491
-49.252211070912
-46.7456519217472
-44.7173166150143
-43.0132428401462
-41.3156028642954
-39.4608857530107
-37.5854343789614
-35.9288490718153
-34.5609870760451
-33.383975898453
-32.3715284123907
-31.6674839738341
-31.3515415106725
-31.1612287160763
-30.5788618305055
-29.2525814588186
-27.2794524937235
-25.0282816685747
-22.746218364087
-20.4413918874007
-18.1369812121806
-16.079400334549
-14.5466775127289
-13.4676754622384
-12.3694916029917
-10.7853586778319
-8.6664727995333
-6.32625282035956
-4.03502266147947
-1.80507409760555
0.392541590879034
2.34860141647827
3.73520482139016
4.52570689572569
5.15975536397856
6.18153400317323
7.75175603031492
9.60519614734637
11.4562468262149
13.2930304241293
15.1915347236899
16.9638993866579
18.2004272886946
18.72607267074
18.8889257814119
19.2627069625303
20.0902160051131
21.1371694504123
22.0971764255716
22.9806890893546
23.9769632924798
25.023316643712
25.7393223971349
25.8931681365179
25.8089637066434
26.1356380930625
27.205648779802
28.7569060500172
30.3327297589546
31.8015992441049
33.3113841595644
34.7890537912607
35.7463909361175
35.7577622303516
35.0401511986416
34.3527795845618
34.2748070494585
34.7275313342834
35.2985484532186
35.8835700733318
36.7649865964506
38.0358417793401
39.2043273466931
39.6128040454671
39.2060731492642
38.6500715557125
38.5923430301611
38.9679232772662
39.213193488883
39.0747484763472
38.9260312444835
39.1703400447662
39.5521304159106
39.3607226318727
38.3390067082683
37.134681626366
36.6667964780519
37.163903538666
38.0591614458045
38.8279310493687
39.6557545521869
41.0925035890554
43.2127114121332
45.4474025570586
47.3276917043359
49.1307885089336
51.5242747759781
54.6289745486636
57.6921976039175
59.7523558617383
60.384124299136
59.5849973699314
57.1172382705096
52.4097518275247
45.3290213580274
36.819919123957
28.4393737689391
21.2234296318489
15.2481021298022
10.355558622569
6.95042906973143
5.66466667185296
6.27536570830619
7.42566561037703
7.77034729118863
7.25930203107611
6.93877885027255
7.47424545599922
8.26441497933948
8.28190917537164
7.51248194014671
7.0375425425891
7.5776637634275
8.4043602613195
8.13349846643455
6.46683630991167
4.65221409206898
4.05494275945561
4.68085343959609
5.51513325287694
6.08448423121613
7.01240318754495
8.77265250456532
10.4364263018206
10.3531020339935
8.05620210630943
4.83238419390052
2.06793323917012
-0.370069308670024
-3.23995593518135
-5.46277965124507
-3.69502853235063
4.52224949201075
17.2050630899568
28.4317300641086
33.0005109289977
30.2397394461539
22.6329875814449
11.0009420656005
-7.75043428704956
-37.2442597222075
-76.3899993956987
-118.627676155838
-157.102370914088
-190.495109670224
-223.267401307639
-259.540199134663
-295.550813743209
-316.445669610237
-299.992468598572
-226.26882964674
-89.4550182648502
95.1839167741833
296.548350684284
485.670267723799
654.182011084413
814.995224791597
979.165431233691
1127.35215823754
1206.51236841732
1163.98291044542
994.085188052515
753.60233457368
526.122870844452
362.904756979815
252.555541056319
146.026853454632
10.8956367585365
-137.727892849825
-256.391242056664
-318.560515821346
-338.813136154305
-354.7804360159
-390.071333148144
-437.098738701336
-472.908186924391
-485.744576107566
-483.347147829329
-478.683778962556
-473.774812871622
-460.384792791726
-433.959294018707
-402.381871403975
-379.473625767726
-371.848001781478
-374.072733419905
-375.767630634154
-370.907506051516
-359.627805138396
-343.617780275527
-323.038931980652
-298.497749296743
-273.653894204606
-253.474162158565
-239.791146824793
-229.956194008314
-220.375750440243
-210.26954558419
-200.887569273793
-191.715436384738
-179.357659341199
-161.217869310196
-139.493694268389
-120.093759406411
-107.194113066075
-99.5559774979583
-92.6392408312906
-83.681264806394
-73.7936035955175
-65.2682045539417
-58.1162817345133
-50.1959239766894
-40.2791273232521
-29.7847156872002
-21.0330096848513
-14.5175029840281
-8.7138169174907
-2.3644809326361
4.00834602771781
9.2919021662811
13.8260174122203
19.360305102529
26.9037326635105
35.329742208423
42.6035458615405
48.0402218774462
52.7122054911846
57.6363184897841
62.2688480108828
65.3086443180589
66.6621892843555
67.8853874843345
70.469852866791
74.1914459769001
77.6196288469991
80.0327078573286
82.2088786215727
85.1515756234398
88.5649581188015
91.1588547729543
92.3577671230043
93.0993689427567
94.6269803851059
96.8445344202845
98.3736449107907
98.2137059866738
96.8441385818273
95.4110258481587
94.1800129112891
92.340843824265
89.3780719640772
86.1123815168987
83.9589190418412
83.3168830275985
83.15170679099
82.2746938384149
80.6520349712311
79.1256938756139
78.0626135388657
76.8116096341108
74.6835008022385
72.0920912856154
70.2722076019058
69.8822599438398
70.2697710328023
70.3043634540822
69.6605141915789
68.9291780266763
68.5526500556712
68.116539688641
66.9748906096418
65.3373702570379
64.3038244202818
64.7288709997089
66.3489581672251
68.2515336594781
70.0125567129697
72.0135886749092
74.6145602230807
77.3996382538136
79.5708787721256
80.968338090229
82.3163585817192
84.3149512394645
86.7386044024366
88.7059939440404
89.7482450358631
90.2804771992872
90.9160942441587
91.6147457101672
91.8447130479237
91.5328775387676
91.4743999347773
92.5648836715544
94.7842173621491
97.2169412305782
99.0642151246539
100.347416569567
101.468883953113
102.334519225955
102.298671243049
101.040843861961
99.1841432317875
97.7636539701701
97.1578264769757
96.8092326643193
96.0396407762997
94.8641654094832
93.7718130386147
92.8517823383007
91.5112460778791
89.2067339911466
86.2157468810244
83.382300783986
81.1110847798756
78.8809947561817
75.8811092348339
71.9270021061924
67.4957810121398
62.9206974490424
57.8944832212361
51.9785675783713
45.4270461270072
39.1740090254073
33.9185182026552
29.4326368137761
24.9392134269455
20.0335004869882
14.9675019317645
10.0170346039455
4.88234854154788
-1.0047100430769
-7.65397991722934
-14.2987633815412
-20.1398604604087
-25.1447091620444
-29.9193769011854
-34.8736938533698
-39.7841427464244
-44.2728955935318
-48.4751199131571
-52.9315480574714
-57.8189352471144
-62.561046892237
-66.3922013187004
-69.1952043657999
-71.5676343455019
-74.0710774100813
-76.6578406012748
-78.9813036119361
-81.0878502893317
-83.4843163496036
-86.4425963784628
-89.4703967971833
-91.7053023479522
-92.7938805534736
-93.1794755109502
-93.484410938079
-93.8251146828478
-93.9286495794427
-93.8131914074364
-94.039364669586
-95.1332306037579
-96.9182794218595
-98.6502853430813
-99.8153405281255
-100.597518038374
-101.468448536278
-102.4900342482
-103.248108584534
-103.448445817598
-103.317831414529
-103.245123957857
-103.153002797194
-102.476969235826
-100.826233909488
-98.4916140541398
-96.1640010387402
-94.2566867065071
-92.7046968440206
-91.4211772877657
-90.6852497175462
-90.8505019503775
-91.735504839238
-92.5537657573481
-92.5656214838411
-91.6816523195435
-90.2995015246331
-88.6537805369474
-86.5696226562921
-83.9187733713417
-81.0873786628851
-78.724600800543
-77.0218793102305
-75.4561067793645
-73.3732983560827
-70.7057814043844
-67.9414060154689
-65.4391996260331
-63.0235393058623
-60.3799643392311
-57.6733107258334
-55.4942345033234
-54.1434251431271
-53.1796842165257
-51.8523729626891
-49.8981309491645
-47.7121478731803
-45.7276048334642
-43.8604864050945
-41.7470842790484
-39.4062184727397
-37.3729244704976
-36.0637846006322
-35.1909745685019
-34.0188362118749
-32.1682326371169
-29.9611179719069
-27.9072081566821
-26.0537942970125
-24.0612054146233
-21.8548366072009
-19.908593564597
-18.710469052595
-18.0857923084222
-17.2895341774727
-15.7908060489586
-13.7682469009762
-11.7212011164469
-9.76526405698253
-7.56890007322233
-4.98662861709498
-2.47288807401733
-0.638912019366117
0.516427262834192
1.68367297820099
3.48271151990592
5.81167479939004
8.10699257027871
10.119493947172
12.1503274343426
14.4463491873235
16.6146837982402
17.9175569199314
18.1315691015685
17.8666130307727
17.9073509089612
18.3985501985094
18.8828687360521
19.0693695729058
19.265626303867
19.8975937878942
20.8003268316351
21.2931769265469
21.0037396201477
20.379319781137
20.2061371261772
20.749134690443
21.6084039264112
22.4186703422368
23.3976742260246
24.9822727078279
27.0606598628306
28.8937442369293
29.9090256192826
30.3565630852896
30.9577057189521
31.9938367405039
33.0223380508326
33.5672130136573
33.8248285745959
34.4090916359083
35.4727159352507
36.4196793857248
36.6597047641978
36.4430245802924
36.6530459444991
37.7820771394444
39.3987179534459
40.7775035071384
41.8271029016072
43.064937873143
44.6799965754584
45.9844704412918
46.0758070871178
44.9164945862278
43.4332531448202
42.4779573253128
41.9647277278018
41.2531186646237
40.2006184247369
39.4404438534525
39.5068205388908
40.0062916880924
40.0040385383549
39.1798672190875
38.2595852580463
38.1585521570246
38.9584825655391
40.0307157958693
41.0625278343303
42.53070385666
44.9394854914192
47.8633307215415
50.1646010978952
51.2021941106906
51.4789311525216
51.8665473732351
52.4219269628468
52.3605871107042
51.2048910901644
49.5241521027821
48.203282464216
47.1693787289003
45.3065606966932
41.7686192274402
37.0336957317223
32.3346058809837
28.2090363849997
24.0618473722289
19.272975094261
14.3119347432238
10.3095181676414
7.62648006672659
5.35155856073982
2.45644410018959
-0.883634199092526
-3.54042918448756
-4.89627382767298
-5.53350638859939
-6.22439988840713
-6.64422552940572
-5.65984554581227
-2.90297567659657
0.498392750109317
3.11369279031845
4.79791198846899
6.51471252640272
8.5807425873352
9.75028106415934
8.56057291524978
5.29407103351503
1.89313794994399
-0.244575007452721
-1.75840388338871
-4.02903981725419
-6.68362123964185
-7.29279989663218
-4.00837131641799
1.97274314480973
7.26593468656549
9.58572686686575
9.54978770084656
8.99597126869972
8.21229259531477
5.69183926849072
0.528670065677276
-5.97453232340595
-11.8318915411074
-17.1656399135066
-24.7033192784666
-37.4527423764351
-56.6194980252229
-82.1711093832555
-114.636190729494
-155.116879673679
-203.113603491686
-254.513283601
-300.96626560065
-329.277457632462
-320.731345634725
-254.610437790957
-119.532222454093
73.1990040202065
288.676210089141
487.884651241642
654.706878531534
803.633885545089
954.994237110643
1097.97738949687
1180.63276123438
1144.8580067818
979.06830820697
738.082611397725
506.983398360958
339.398962275394
226.339399082629
121.783715169575
-4.1076337060465
-137.232050841513
-240.056951488441
-293.14706653873
-313.251169567373
-333.359568553792
-370.736697624178
-416.695717037441
-453.387666176027
-473.916392837412
-483.893404333933
-487.999905211968
-481.762678192294
-458.824733327217
-422.947409738841
-388.435029260563
-367.802968962251
-361.163977558306
-359.04130681235
-353.927760936296
-346.5323641398
-340.687358140544
-335.061625939826
-322.719836076341
-298.936207276823
-267.549848148593
-238.438321418596
-219.307010253471
-210.637821561703
-207.673004310376
-205.286086678993
-200.233954283887
-190.486093626652
-175.03646177514
-155.334098158877
-135.593780186559
-119.962595939149
-108.992885513559
-99.6249418981341
-88.9786641015956
-77.5403721658416
-68.0280881930685
-61.5816509194853
-56.1379349900384
-48.9006648451908
-39.613916475573
-30.536494274318
-23.3956637716691
-17.3575561561426
-10.4643901821784
-2.39718027683985
5.12408194524169
10.6885133988358
15.0659394999932
20.1577972914804
26.5190257343838
32.7497525850486
37.4644126705436
41.1332774522606
45.3668688880554
50.680110510546
55.7604412971403
59.2005131281109
61.3752429030813
63.9950226858072
67.9617808244055
72.3435548412763
75.7269087819926
78.060363183508
80.5410146088577
83.7762727011865
86.7487486326468
88.0032097807149
87.5008740562739
86.7101481949092
86.8369602521423
87.5099799150319
87.565365359009
86.7830130525202
86.2295885970034
86.78739146148
87.8772823294779
88.1039509479519
86.9894547566909
85.5366300246946
84.9255214849624
85.0786421701628
84.9307578470693
83.945250422907
82.8106475839623
82.417217785014
82.5345229797461
81.9882752523548
80.114768926188
77.5785350789701
75.5049241543856
74.1055926915282
72.5939235742391
70.4243847823477
68.1377957354001
66.6760584573847
66.1186742707603
65.5720896367476
64.3855861520311
63.0794924868136
62.7452223390322
63.7012203922708
65.1600378928636
66.3007396943334
67.2803161727416
68.8351213995025
71.041251325195
72.9478138421422
73.6403754942227
73.3760985249083
73.3059500442039
74.1315539608558
75.4136098541074
76.3621764630993
76.9909646803838
78.0827887870029
80.0368901659715
82.17513454168
83.480783925724
83.8465719493137
84.2304855597912
85.535849937818
87.6609057631076
89.8763807076343
91.9164481880534
94.2735867102379
97.31918413178
100.477214766553
102.614648226702
103.191166223387
102.707052100922
101.920673358019
100.90781979182
99.1785667361851
96.6046692825559
93.8283963998793
91.5599676778377
89.7049400878782
87.5159004811697
84.5952955016308
81.4307075230056
78.7603622339857
76.6183405229212
74.319017397794
71.3682135531145
68.0487573417482
64.8852692329704
61.7288089381411
57.7451535601401
52.3957579536237
46.1558431907195
40.0234690020939
34.4422036460461
29.0111635763812
23.295032051552
17.5880953769387
12.57230473519
8.32163307295538
4.02027015373159
-1.15372454155462
-7.07152679680314
-12.8392979425521
-17.8722904306034
-22.473048995979
-27.2199306080445
-32.0539017032682
-36.3266593622814
-39.7574818507744
-43.0012882458378
-47.0166812847972
-51.9982766046546
-57.2175122189359
-61.9386635206672
-66.2020161494409
-70.4968910343969
-74.8471624484895
-78.5960776472854
-81.2058222895554
-82.9990943885361
-84.8254188418803
-87.0561303053875
-89.2008061822436
-90.6155128948172
-91.3435832262572
-91.9930606794073
-92.8715357407894
-93.5905125660213
-93.6916848652317
-93.4361035503414
-93.6451757969669
-94.7427287004274
-96.2347655410216
-97.3106257356995
-97.7799330372302
-98.1317890281517
-98.6897908573118
-99.0508870668809
-98.6050727286061
-97.4505612630285
-96.4361152409459
-96.1882273576539
-96.3409449615739
-95.964411328227
-94.649802862261
-92.8712186275141
-91.214442760568
-89.5580853176827
-87.3348067835124
-84.5328051733369
-82.0692336424405
-80.9542666811004
-81.2440940008608
-82.0759927551383
-82.6988328784994
-83.1669411475702
-83.8719907928186
-84.6473794959173
-84.7207509251631
-83.6162098822289
-81.8023872184366
-80.1897305064556
-79.0885804536731
-77.9432912610291
-76.1313642462457
-73.7352141376271
-71.2874347871709
-68.9056559249572
-66.056631732775
-62.3171865541197
-58.1145804190457
-54.4087088426314
-51.670862226425
-49.4609786187322
-47.1294240977114
-44.6932175443802
-42.7282371457716
-41.4584520764924
-40.3161445704403
-38.6183011690596
-36.4830607748791
-34.7396077221919
-33.8908925657007
-33.4524629543609
-32.5225647397174
-30.8379816434788
-28.9501075151913
-27.3394744572818
-25.7014136083433
-23.3942688991471
-20.4602660926423
-17.8195605168132
-16.3003264482052
-15.7103886892716
-15.1289992929807
-14.0200398654965
-12.7188853153613
-11.709863041559
-10.7360119051828
-9.00103059150386
-6.23911316060482
-3.22177882276069
-0.968385741586145
0.374083873386115
1.5659114707203
3.21556227093153
5.03027053759923
6.33277244057962
7.09610235753569
8.05901329329378
9.73045918588426
11.609145241952
12.6971477560895
12.6853105597386
12.2898876578634
12.3269760879408
12.7602086376928
12.95873150235
12.7607598524579
12.8527220525465
13.9054008505934
15.6140366828226
16.9703633032456
17.4764084292157
17.7378675181659
18.664347694082
20.3307452136836
21.9909663067304
23.1870166153324
24.4210733059047
26.4398119189233
29.0649019023402
31.1706410393141
31.9294721744426
31.7559011529413
31.7360836323773
32.2946818090394
32.8330893371761
32.7632278806238
32.4919766128761
32.9781055624721
34.4147406923459
35.8120080632686
36.1070240838993
35.4058288673902
34.7575352793892
34.7771387633779
34.9409733413945
34.4636353509837
33.5332603333815
33.1864333349356
33.9371342143632
34.9995459897254
35.2190637784206
34.5597807043708
34.2028281555676
35.0979010944261
36.8485394751115
38.3778844680549
39.4484287378166
40.9449639025153
43.4721875868485
46.1287978982835
47.1980444627288
46.0149358237943
43.6721743407075
41.6691150721166
40.2581091456247
38.6198910033868
36.5680207376724
35.4233626130504
36.7580147277147
40.5376987780911
45.0671329836588
48.8607966079491
52.0772763239514
55.7338922067535
59.8214308393448
62.8600174132174
63.5062131531199
62.0893919594177
60.0407799426589
57.9735348927736
54.9659604957528
49.9961388854771
43.5978442047261
37.4965998822616
32.6770187032809
28.4392504792953
23.6831959557019
18.6546584288481
14.7424855189181
12.5529447549044
10.8908636063333
8.15236533753128
4.39126720358118
1.30546260045587
0.0757964951374324
-0.121483632758677
-0.924621217194501
-2.47248502308641
-3.10580055810057
-1.60681663695014
0.947558582541206
2.29153267080167
1.75636271562832
1.13475832193223
2.40451353784793
5.17876337407967
7.16553434607389
7.02012225326997
5.84268761981173
5.38192175205361
5.41721008401732
3.93698765323442
0.00205567571111676
-4.49652017734934
-6.6215890639628
-5.4660466989339
-2.52879760247129
0.942722828955649
5.7809894310198
13.1073022789325
21.2463562912247
25.8815341102379
23.9129242508124
16.2825972647945
5.89976819787137
-6.86089986256595
-25.0347688202174
-50.6537571553731
-80.5298228831769
-108.202938230628
-130.586437688946
-151.662348632351
-178.661937501864
-214.734544175092
-255.303538253167
-289.598931589867
-302.870687279179
-277.280377363473
-196.244967113352
-55.7549456944842
125.264223139556
310.343893626297
469.398751413373
601.371886526159
729.510526469413
867.491968436511
988.396522963762
1033.19046015393
958.863601436298
782.857609301486
577.711672117264
416.040008251479
315.898791141339
237.666550442948
132.913794171437
-4.79164389008372
-135.90966192225
-216.824171350993
-241.842203640753
-244.568534383677
-262.832874131137
-306.152357960559
-355.612255130621
-388.903524415317
-400.549943050433
-399.610751270669
-394.558773747769
-385.464732595981
-369.669768437008
-349.812312358167
-332.944764639541
-323.092681479583
-317.785100128216
-312.506939090922
-306.195043779054
-300.381491477034
-294.056662774983
-282.404587097625
-262.178842923547
-237.091416669783
-215.774523254909
-203.858108350887
-199.041518018116
-194.526192023751
-186.363194645897
-176.259713474125
-167.570238981188
-160.351540404365
-151.576491244111
-139.482807884026
-126.037835202087
-114.531530033319
-105.756659615299
-97.6778663795865
-88.5856648173509
-79.290833488121
-71.5891457550342
-65.3752415201025
-58.4620098945378
-49.3694012895674
-39.3358100273474
-30.8690435633352
-24.7296056478536
-19.2323863193673
-12.6468243500286
-5.46668958080261
0.372162530029133
4.17986318077629
7.52853385802743
12.3040903208219
18.3776944167801
23.8846007269718
27.6411616272787
30.5194872572663
34.0962761204741
38.4903340113039
42.2645051546541
44.4518133568809
45.970711367643
48.5557842937027
52.6124927721652
56.7697152873977
59.6410840618254
61.462053761218
63.540422330092
66.3768240070284
68.9958492050464
70.3341959842722
70.7835625778213
71.8093266228763
74.1271913869779
76.8054927728335
78.4243969712758
78.748365440348
78.7684646172804
79.1669934957705
79.3105189503464
78.1137510483431
75.6046595934886
73.0904552204777
71.6687058851684
70.9927580048066
69.8565536011967
67.800552742624
65.6611649709683
64.4193619376515
63.9230456054671
63.1652964988745
61.7141279487464
60.3795984519421
60.2266770401251
61.2144049951258
62.2158828745546
62.3692184361377
62.0140675085857
62.0676644408934
62.7440100898008
63.3218021141571
63.2211020198554
62.9076455773552
63.3923460720889
64.9633164602427
66.799133497878
67.9573958006216
68.4569678294195
69.0967305281841
70.3320733171106
71.7308923472396
72.7010227447276
73.4616114424596
74.9062156418404
77.486022049806
80.5556844367403
83.0403483750075
84.5782784280274
85.7053732331902
86.9243306508031
87.9451520244843
88.1073299372883
87.391675966013
86.629401981717
86.5686802113851
86.971642115021
86.8992683204838
85.8216254838817
84.1521089442481
82.5837700967662
81.15987771218
79.309434404692
76.7633614098384
74.0908884023755
72.1002691302425
70.853052275549
69.5634984629852
67.5170496178385
64.8414163970159
62.1903200591214
59.8285040717163
57.3531901083429
54.3934772578786
51.3024368035394
48.8570181069932
47.3025918935139
45.9717914470617
43.9889574049654
41.1795426158179
38.0573635282461
34.9747014903044
31.5967103442519
27.3988025923936
22.5064274326907
17.7223521224964
13.6445871277299
9.9828189552595
5.95218326429521
1.25174780178848
-3.60039775884376
-7.95835118187333
-11.832970759626
-15.7552827702425
-19.9382231851161
-23.8787669509184
-26.954372854474
-29.2523125961536
-31.5512907413555
-34.4616990563509
-37.8021973260912
-40.9629695948258
-43.7301958654743
-46.490818036311
-49.5991776651576
-52.8045818295597
-55.5393548583077
-57.7009974931104
-59.8828487140381
-62.7138643850273
-66.127433321784
-69.4679132271226
-72.2542009059868
-74.5913133029959
-76.7344359672281
-78.4663996098853
-79.2038757613856
-78.7570978396568
-77.7494880885887
-77.0929549538574
-77.1239048565492
-77.4510308802089
-77.652732207637
-77.8767257582415
-78.5574193450901
-79.6626553430888
-80.5318923971944
-80.6014110632183
-80.1213445668277
-79.9241194845931
-80.4920593951355
-81.4653220058554
-82.1685683267593
-82.4391926643964
-82.6858873573486
-83.1424698185359
-83.3488242889673
-82.5943001157412
-80.7874889624
-78.632592599705
-76.863659446386
-75.4861845027535
-73.9504734433341
-71.9769874599019
-69.941144618222
-68.3455860477256
-67.1246647980217
-65.7356177615673
-63.9294875607006
-62.1735706303003
-61.1374366908723
-60.879690697693
-60.7698724246325
-60.2262603637131
-59.301458357981
-58.3811783295139
-57.4588262347221
-56.0149850809448
-53.7077263019378
-50.9576898217934
-48.5970131658201
-46.9624236199021
-45.5638496872891
-43.7425148090259
-41.4647679881353
-39.2397576780172
-37.317204143001
-35.2825145172462
-32.6412316837619
-29.6469506973917
-27.2435970602361
-26.1043051420552
-25.9288488541551
-25.8615115991985
-25.4770956096368
-25.0822980994496
-25.0039295403054
-24.8760666049076
-23.9354653012692
-21.98442287352
-19.755416333076
-18.1455019162982
-17.2442463942859
-16.3579747734602
-14.9590600888052
-13.3154399564641
-12.0106008429693
-11.0444960658708
-9.75997354242059
-7.7315738105273
-5.44342979997996
-3.81454541676514
-3.1256686770671
-2.7045035403562
-1.76419250189032
-0.306665361395153
1.05924866265726
2.0894849105131
3.32192187180221
5.33821813029664
7.83614275824349
9.78787681982704
10.5665180126095
10.6372848225629
10.9378925171167
11.7533377230612
12.5301060785061
12.8238067050377
13.0692690626459
14.0949742517093
15.9871727881215
17.8228281871003
18.6962824754824
18.7681335519122
19.0004187479985
19.9265308844208
21.0464418104888
21.6019734238123
21.6630119291135
22.0501999705279
23.1813278187084
24.3952729066917
24.7132710154401
24.0956697803095
23.558627939362
23.9819300316287
25.1527546990184
26.2719730497433
27.1962204178802
28.6971160013283
31.346553877159
34.5420459701414
37.087628759892
38.6879261367903
40.4053868444388
43.3910184824168
47.4565772206351
51.3221570205671
54.2033624265413
56.6065773990419
59.2097745902558
61.2893984860942
60.9048180015015
56.8549869783986
50.0530934847007
42.5669915715516
35.4909903950913
28.3061777531763
20.4557134890564
12.9550970182903
7.77719080009932
5.67575350526606
5.25177559561383
4.56341699225994
3.30902114932701
2.83768915634257
4.04045567852343
5.93154140483812
6.8078817572862
6.44093624713416
6.33826226765491
7.6537835690072
9.50996583387408
10.0420551873735
8.86607245891726
7.67731402220656
8.08537282992071
9.52279723332029
10.1010353657818
9.37425135254047
9.24070969158839
11.5059018550154
15.1709080038709
17.2202665524267
16.2466059557003
14.2753117263757
14.1190598757753
15.4027986417856
14.5666547893529
9.4022027592539
2.68024718233028
0.00162143854547203
3.9505423632439
11.4201765233228
17.319436974913
20.0068219150834
21.5916743267643
22.7271879483421
18.7115546718191
2.44904781139883
-28.5661023102644
-69.2128513613768
-111.110374852753
-149.363166114105
-184.611855432325
-219.533694278312
-254.746955778231
-287.295029693872
-309.571718088825
-306.916275193165
-258.466118575516
-147.482086746255
22.6449010711576
222.378901369709
411.93236361324
569.517412862115
704.815062833727
840.233197957195
975.042954782771
1069.57369043175
1070.92332930643
959.906730821646
774.001501698959
581.567721920084
430.00505657499
316.283313378036
205.435581687319
74.943690613352
-60.3205429999863
-164.600282626244
-218.166125113511
-235.898147082187
-251.519951625247
-286.946005899097
-337.311823252535
-381.851974087653
-404.731774502397
-405.065701733164
-391.546571545751
-372.756104448445
-353.641575493829
-337.530690457894
-327.10050545728
-322.29789893329
-319.424303505885
-314.321440796938
-306.372356601226
-298.204093661794
-291.369288759088
-283.61847364129
-271.403908492258
-254.482103257434
-236.728629004586
-222.068353661819
-210.531745212392
-199.122292834866
-186.05446706117
-172.903926952836
-162.20474866721
-153.898041890089
-145.263056455014
-134.279524691342
-122.021467198427
-111.135684169741
-102.545154673621
-94.6007899217248
-85.5279654186495
-75.783399685467
-67.2822523684059
-60.6735547867993
-54.3232994984972
-46.3092759021383
-36.7923486642927
-27.7368978007944
-20.4544110744344
-14.177669531686
-7.37773384277742
0.0655143829087592
6.71212363545001
11.531601779081
15.3193084152741
19.697825495538
25.0463023337394
30.0567812486404
33.4364824739423
35.5067556514958
37.6865848616054
40.661001137353
43.680912943643
45.8383961649717
47.5238427515379
50.077979210433
54.0803378900277
58.5179567847651
61.9142456699253
63.9563001811649
65.5753407320704
67.5047077483322
69.2922428131156
70.0481029506568
69.8600676934916
69.9294196764556
71.1914607937481
73.1913002675257
74.6554364482024
75.0042962440565
74.879749810924
75.1037992670486
75.52683949599
75.2939002559965
74.1247130381235
72.8523660537055
72.4589119587214
72.8412348701112
72.9055720004265
71.8670985665045
70.0945349818169
68.4771780640861
67.2249034816638
65.6997924348209
63.4604050341329
61.0793308109794
59.5993783042482
59.2966833007398
59.3422953222715
58.8018079431552
57.7064118155612
56.8794044996542
56.8306264387519
57.1927612687755
57.3882790333946
57.5674240270805
58.5180796655669
60.628888033187
63.2481068671522
65.278765578875
66.2696729527213
66.6677823471817
67.0227210118821
67.2663535239058
67.0013713431954
66.3320164094455
66.03849618857
66.7847391818441
68.3538462766846
69.8965468605472
70.8793383866174
71.5451914067783
72.3774175013127
73.3623446999464
74.056913603654
74.3383161514938
74.7697548433028
76.0156654235144
78.013495779213
79.965542331692
81.1771591455473
81.695407234342
81.9908281833693
82.1785265606207
81.8434637439276
80.6897904629414
79.1103143159789
77.8593403753047
77.1948701939109
76.5765081996431
75.3138077944618
73.3545747239667
71.2459506161085
69.380079083969
67.5362660226557
65.2953040608346
62.7273192507727
60.3905355304912
58.5938497010674
56.8640761353469
54.3270067708472
50.5626313821171
45.9136053236512
40.9426315611031
35.7987713567891
30.2967339477558
24.5231818408008
19.0803053622171
14.5695632684452
10.9387616180667
7.52186050280798
3.73476935758053
-0.413787494342486
-4.5550927642031
-8.53241423677156
-12.5284933523535
-16.6278576203185
-20.4813007385561
-23.6026609582731
-25.9645745475167
-28.1294280160987
-30.7280010057346
-33.9207408279329
-37.4689641895681
-41.2328708940314
-45.3790807148144
-50.0179231645966
-54.7992835242861
-59.0856449314446
-62.561237076895
-65.5300720381661
-68.5159083603425
-71.6506727313271
-74.593790864636
-77.0333063437696
-79.0817756697154
-81.0500102602983
-82.9248294383123
-84.2824662879124
-84.8033489091373
-84.7535178441919
-84.80770078738
-85.403937104579
-86.3957563242511
-87.3762109712986
-88.2067848375862
-89.0726554069815
-90.0487136289822
-90.8136643584087
-90.9443681785091
-90.4421073648262
-89.8125339200372
-89.5700244461355
-89.7520791578707
-89.995826236235
-90.0111669191749
-89.8199120415315
-89.4975475321881
-88.8409103756252
-87.4800906328423
-85.342158013263
-82.8735834099758
-80.7023228731127
-79.116216789265
-77.9517562096254
-76.9559568989725
-76.1037328505299
-75.4688840439655
-74.88133201375
-73.9058675710532
-72.2479047380129
-70.1002324808365
-67.9780355409826
-66.216610673374
-64.7195903532866
-63.2152307501816
-61.6391511504109
-60.1401793929098
-58.7424187747973
-57.1718346282231
-55.138810451005
-52.7444877876218
-50.474709848758
-48.7441502027799
-47.5184603669447
-46.4433530931238
-45.2730968928462
-44.0384503918413
-42.7745630731465
-41.2352051176954
-39.0484413655609
-36.1730939277928
-33.0733742366625
-30.3365634671926
-28.1447753814753
-26.2029914093034
-24.1684216112197
-22.0227237470935
-19.9420851073852
-17.8962643784045
-15.5701526733114
-12.7772048517434
-9.8651640789007
-7.56765068209981
-6.41042155680019
-6.32204934622547
-6.84777148408196
-7.64216629876062
-8.62723631802968
-9.68880869308466
-10.4015648750433
-10.2279643101665
-8.99952203169834
-7.09080901675661
-5.05310935760053
-3.12983989842628
-1.19756717631661
0.874236259689912
2.95659258067439
4.82229981239379
6.4713268239089
8.13623353642738
9.92666289861367
11.5812962565685
12.6845594974869
13.1079874488728
13.1363937430409
13.1379031657505
13.2162355884421
13.2814764321232
13.3952453809004
13.8637295124405
14.8925335638474
16.2414365742147
17.3806066555881
18.0270287262621
18.4270183346493
19.0401273312446
20.0278850484071
21.1892519539221
22.3837522136942
23.8190498880681
25.7455634243514
27.91561160962
29.5597082554437
30.0356197626548
29.438100713257
28.4505099117788
27.6364062199127
27.0601686384755
26.6817795478835
26.9333770310413
28.6019873013035
32.0299682186712
36.5906801500529
41.1500099698503
45.0319523174402
48.3650786541678
51.4456865801733
53.9829762548124
55.2256302615717
54.8165502307828
53.2542429434789
51.3204118545364
49.1696630233384
46.2430347278127
42.1302620395053
37.282245737074
32.6550793837467
28.7387834411495
25.2127047346585
21.6364108040091
18.2116844647697
15.5559871315202
13.766120721086
12.0596207670925
9.57762283997114
6.38822279527399
3.39304242953787
1.23043173034866
-0.400011652524505
-2.09331122500868
-3.64358972486423
-4.04086211131436
-2.69943413154441
-0.34837233642682
1.68603438233441
3.01445159923635
4.57201990687905
7.26423937089726
10.5440336091365
12.7992521307171
13.1620815982001
12.4600053680499
12.0386624604358
11.9317059261302
10.8048665360698
7.90860572491631
4.64918435944553
3.72650111654721
6.73955668480779
12.9776406910109
20.4912226209578
27.6739609713458
33.3188993638389
35.7243988953164
33.1353808662364
25.8844473777305
17.4288151924602
11.7607565130931
8.95358517729766
3.78367101897726
-10.1704614208719
-34.5814820536686
-64.6921263387203
-93.6672751541569
-118.446512153756
-141.536349545087
-168.038336662219
-201.43753439802
-240.487233165974
-276.307076169077
-289.95717245122
-255.385223602256
-152.090472187962
18.1721747616796
226.199650817108
431.994391539769
612.800427608452
775.999754044964
940.342519244468
1100.51674087857
1211.71812029372
1216.01774222855
1091.13229361657
875.899908424371
645.34016843364
455.985176156012
311.281501467161
176.86154948559
26.5225198356013
-128.090314568736
-250.696197618823
-318.083575263663
-341.787387416901
-354.271496057613
-378.213651771468
-411.462931651501
-438.878762177799
-452.876442586352
-459.275912361816
-465.751301569612
-470.151549209011
-463.171028370767
-440.795870663906
-410.67837150579
-385.160201903228
-369.809747658121
-360.489751537571
-350.735698379086
-339.428726525084
-330.063353855592
-324.078767997138
-317.413350048487
-304.409856167637
-283.91151972049
-260.35177186958
-239.26041368357
-222.872354749651
-210.170839069522
-199.673703636365
-190.67153014794
-181.988725838363
-171.250153879766
-156.692197426478
-139.457567231645
-123.029103392439
-109.933064121375
-99.4646924370625
-89.0823317527303
-77.6313849516178
-66.4399900375545
-57.1927153126745
-49.5453779202225
-41.543531193535
-32.1450609791391
-22.5042310946401
-14.4435034603209
-8.21604942845985
-2.43803397559415
3.89377951391936
10.0760997858246
14.7959829864946
18.1212457116924
21.7091833500364
26.9424127151642
33.397571340857
39.5559852334938
44.7319506842016
49.7046077103629
55.3552782548812
61.241117952507
66.0292322840014
69.1844539610716
71.6487821871959
74.6156975725953
78.0170813376348
80.6818938970859
81.9039342767089
82.34138942578
83.1197681259683
84.3995848653979
85.3275663946119
85.3965125402471
85.3489723874594
86.3726735838079
88.6095616132587
90.9175386261768
92.191547374761
92.53833036171
92.8412200210606
93.3874315862545
93.4286609421098
92.255079191504
90.3242586877404
88.8978446450563
88.6003322399895
88.7326815620762
88.195849856607
86.8084298160595
85.3472473777435
84.3545828882064
83.3558200917404
81.5308901930403
78.919263599907
76.5220253081839
75.1250701198185
74.3579808487164
73.1979166807308
71.248097220042
69.1458080061898
67.6412254132833
66.6380511669057
65.4892575420062
64.122567079739
63.4314962990337
64.3249838709436
66.6146390560502
69.1693654200955
71.1449734081779
72.7288773750328
74.5119197604699
76.4105820686702
77.6268612527281
77.7206301019863
77.3562286371826
77.6735542205008
79.0207138560699
80.6301442324324
81.6188370116016
82.015144377184
82.5350463649554
83.4911290504135
84.329383790498
84.4154307933163
84.0115811099859
84.1172364367584
85.3301432826936
87.1662824888868
88.6808679711979
89.5597461778888
90.2902563189223
91.2748541769148
92.1388803379465
92.1825473674681
91.3655687261521
90.4772027183553
90.2100633033266
90.3089267364756
89.8840369641967
88.4702661105459
86.4646404964088
84.4234697960211
82.211846289588
79.1738017775488
75.1077253222965
70.7287411644341
66.946558022808
63.8416470437087
60.6397605163388
56.7090534487097
52.2994866245527
48.1088763462994
44.3023030002092
40.3059217479966
35.6446030404641
30.69315064017
26.3088327696698
22.7786504883681
19.4233312414081
15.3633215198745
10.4685870125299
5.31510727451851
0.290682325860303
-4.91681340223603
-10.7728337524379
-17.0563253883538
-22.8998845890928
-27.7222066327666
-31.8743831328705
-36.1740954713754
-40.9322923338209
-45.7062033377908
-50.0281867362371
-54.0768401171086
-58.3690850542763
-62.8956637863898
-66.9019123986165
-69.6846501405177
-71.4246642813453
-72.99095028718
-74.9617957373029
-77.0999967547156
-78.9003414131768
-80.4186817954396
-82.2469269088755
-84.6622087259561
-87.1058894914697
-88.742416489466
-89.4343777993175
-89.9051088176919
-90.8902527385362
-92.3612243016928
-93.7700030020973
-94.9110324753251
-96.2098502308011
-98.0515042832084
-100.073551623227
-101.421975620915
-101.701109355594
-101.415363743526
-101.339543478185
-101.631054448749
-101.804191762923
-101.528890195693
-101.131048577243
-101.095690519277
-101.241784034473
-100.72363461111
-98.9504882473458
-96.2907000453539
-93.6643125584585
-91.5414150143381
-89.6127762843095
-87.501238005547
-85.5119990772938
-84.377394665242
-84.2979587911293
-84.54747529402
-84.2121451030756
-83.1668614720308
-82.0683345410887
-81.3973582030742
-80.7898691784498
-79.4962913680115
-77.333450321884
-74.8695639417519
-72.6128615642966
-70.2957996040772
-67.2244429825909
-63.260148322984
-59.1589350915919
-55.8148419190639
-53.3614237327963
-51.2443616987177
-49.0968816881396
-47.2202088100902
-46.0379030855533
-45.2903531746508
-44.1070454823225
-41.9416452991589
-39.1964573897978
-36.7328386555053
-34.8899775670196
-33.2526078038635
-31.4115971100029
-29.6607383366413
-28.6758902220643
-28.589368878373
-28.6992368625647
-28.2422402858793
-27.265271955928
-26.4811262662851
-26.2942586322554
-26.2417562545383
-25.540177527511
-23.9950836431532
-22.0898397049019
-20.1814153338521
-17.9177186513781
-14.6921472318397
-10.5673433329625
-6.45677647990213
-3.29569214399265
-1.22400298833295
0.242263756033383
1.37634651966053
1.9020425404987
1.59032648045595
0.93568653606293
0.919379271003098
2.0750539280694
4.02042140130775
6.03930065675474
7.94721839871662
10.1333564075397
12.7885828366114
15.4170886781526
17.3378241244155
18.5296627914902
19.6708097444419
21.2646145260356
22.9667327581078
23.9987430959074
24.1238925157127
23.9205201715942
24.0085435813919
24.2660838128126
24.0883643602112
23.3504535160427
22.7701631810567
23.1262606388134
24.3010060371253
25.3916098514917
25.7778091002739
25.7970865035829
26.1875727578291
27.0612770496731
27.7729268142839
27.8560284840848
27.7704425715719
28.4294013893956
30.0731356420925
31.9372209439466
33.1562794722868
33.7515627914052
34.4554783019915
35.6525153761925
36.8592531080251
37.4244130060314
37.4886070106847
37.8826062608809
39.0539705572334
40.4302220740394
41.0880774744566
40.8894947346842
40.6232016058357
40.9966268942625
41.8403931585568
42.5908591611393
43.3756853889487
45.1613489481334
48.6316350390715
53.1928820542323
57.4351713268901
60.531968482469
62.828651975474
64.9084511164892
66.4201694117954
66.2830072409667
64.0652957120767
60.7247236426757
57.649018575875
55.1316211172723
52.1997635959163
48.0107748441167
43.0194024009555
38.4221192845483
34.6355935380576
30.8328207516236
26.1659964490552
21.0618185981521
16.8434206042736
14.1236245797916
12.0592696698548
9.45992170860849
6.31229995981003
3.72392451305251
2.38110525235744
1.61043471185106
0.350056659382446
-1.24122385071271
-1.75117330787738
-0.235629491969263
2.51065652182933
4.85437306310713
6.27960587475256
7.81293070830908
10.2832614051144
12.7024071750245
13.0499098333066
10.6495344844602
7.11083778018418
4.49950488737113
2.97591828178467
0.964108711227839
-2.25819652512669
-4.86307447575254
-4.03554384778156
0.886052731039646
7.42571372061989
12.289416767345
14.1786492114319
13.9505150458641
12.5344815646446
9.71889964599299
5.28792586375554
0.412639909274775
-3.30156536393807
-6.33266080957473
-11.9328789294283
-23.5919629640106
-42.0865313278131
-65.7029284520616
-93.2690423563881
-126.05894807792
-166.16931657714
-213.381577525298
-263.602932622713
-308.480669839648
-333.763885466072
-318.030976643666
-238.279585252007
-84.8410719291866
124.559990217446
348.38222461834
546.695091185964
708.897533569325
855.176448168671
1004.84436929975
1139.89969956309
1203.38254050004
1141.81463691169
955.699589765705
708.847814406497
483.804909863736
322.619239456313
206.70589607762
90.9914692879694
-44.8554825288118
-178.323044557309
-271.901815409015
-313.15287247678
-325.459609269147
-342.817379946768
-378.991805510117
-422.084028792103
-454.273221711759
-470.841443977321
-478.958481953347
-483.051714940077
-477.561807517017
-455.541731157297
-420.810908686917
-387.671171237214
-368.190491135974
-361.944275238867
-359.325979100076
-353.146187593261
-344.555415334937
-337.711936212537
-331.505371603522
-319.178501659579
-296.075771940449
-265.853841054708
-237.883413762704
-219.149716940588
-209.538977366522
-204.293086959055
-199.145259154032
-192.230916408338
-182.518757117664
-168.879188334263
-151.692206421981
-134.15644139943
-120.248719200109
-110.932014082497
-103.183966181112
-93.3660997870894
-81.1194348234801
-69.2593943679993
-60.049491030608
-52.562598051651
-44.2142326377159
-34.224918111198
-24.5413171279685
-17.231400871593
-11.8778851704053
-6.28552824488385
0.591621226171728
7.38440630184309
12.2712045139384
15.5109016047734
19.2475660975023
24.9081160561214
31.5841635755596
37.3955657193873
41.9407208071181
46.6405430305607
52.6417891283107
59.1189301544243
64.1988695863032
67.2588532807741
69.6017111239347
72.6951524881441
76.3252715256084
79.03722198329
80.1894151846481
80.8745917496374
82.521925438798
85.0576502914635
87.0419775560213
87.5742467795423
87.4569733570527
88.1219072536016
89.760808236906
91.1069404012237
91.1153606188349
90.3143384369869
90.0724314510432
90.7746317328534
91.3074604654244
90.5109835253239
88.6858302731485
87.2001656301131
86.7370475074376
86.4721256316269
85.2198479568541
83.0146834847711
81.0631193097886
80.1594943312627
79.6518563645048
78.2916207858613
75.8353937772
73.3210288147493
71.7051949795495
70.6759651710665
69.1758879441649
66.9079285683216
64.8359876839787
64.047503052414
64.4897963791709
65.2121119306559
65.7337080575902
66.6941430274396
68.9315459490678
72.2308399381717
75.4104882663043
77.6365724031659
79.2414597518375
81.0036826669178
82.8940951412892
83.9904552812805
83.6934029411203
82.6284332623457
82.009995991254
82.2627402492558
82.6775421152695
82.5265297841867
82.149273383546
82.5668091379778
84.1255026268041
85.9642298901395
87.0360268167098
87.3847036921625
88.0338054811827
89.6399310919513
91.6544708765827
93.0583112171843
93.6811411338513
94.3696183049507
95.7872316266039
97.4185399657219
98.0817317551841
97.2940958255819
95.7449499203209
94.3106607031701
92.9329192892661
90.8176317604153
87.6531899116877
84.2144664830389
81.5412461574848
79.7512381972094
78.0122743475437
75.6721778928029
73.0497017002253
70.8741544459901
69.1564676294192
67.0093899940521
63.6635930457554
59.3475569159832
54.8907180965957
50.5976124730485
45.887633447122
40.1629563171227
33.7366704124582
27.5797257816748
22.2126582321535
17.1945588859886
11.8623067074327
6.31594242636301
1.32818660108899
-2.70558198375441
-6.3752530489905
-10.5930565960248
-15.5071819123236
-20.402411442672
-24.7010641059537
-28.7316715768208
-33.2488092285913
-38.3495639400364
-43.2429691820544
-47.2098026204733
-50.5111811598668
-54.0513471989661
-58.2228106298899
-62.4314593300841
-65.9063363240044
-68.7133956611863
-71.6302499558196
-75.0467727332017
-78.3517431381871
-80.6400661294992
-81.8430987135589
-82.8190103831379
-84.2879113685758
-85.9953232442612
-87.1762833717975
-87.6831347054868
-88.2756054524346
-89.6819629565241
-91.6622981018484
-93.308186478786
-94.1945265805539
-94.8843690054107
-96.1366606500593
-97.8625020004684
-99.195008331527
-99.5708396051986
-99.4002517099578
-99.4576217754484
-99.8152837406995
-99.7419563050078
-98.709753569659
-97.1859899979933
-96.1586690416206
-95.9966385084202
-96.106295568892
-95.7936603300609
-95.1675754842969
-94.8934449385003
-95.1477506352859
-95.1904225455125
-94.1589605347602
-92.072935275366
-89.7521916924569
-87.7698101374546
-85.8104538062318
-83.2451805396852
-80.1166068301056
-77.1958632208245
-75.023288865589
-73.212673982637
-70.9637127120008
-68.127763630345
-65.4283637147187
-63.5440377752605
-62.2604969193736
-60.8062282836437
-58.9158194393148
-57.1952762963887
-56.2866652821029
-55.9340447915337
-55.2098888050659
-53.6420744954355
-51.7798444057025
-50.4500255378962
-49.6640709280517
-48.5984335029954
-46.6675402209166
-44.2760465336088
-42.2605823696569
-40.760796215823
-39.0208046094233
-36.4047773161532
-33.3063884553206
-30.7519828614525
-29.1941165859155
-28.044608835269
-26.5242267566259
-24.6867647662195
-23.2669862263878
-22.5737677750012
-21.9256814389524
-20.418267139484
-18.0483604290584
-15.7281910856368
-14.1602177141821
-13.0276633468974
-11.5326186408141
-9.53835148034499
-7.78388237878934
-6.87881305154088
-6.41916973311576
-5.42711126430788
-3.57529946722772
-1.60246369981274
-0.363211514028732
0.263714913544387
1.19747968380247
2.95723925866384
5.02568809293492
6.605358472509
7.75048778996366
9.3466056954584
11.9219818218724
14.8305476310321
16.8938741556365
17.7070951391062
17.9590772121443
18.4082912388238
18.8998189119527
18.722155542156
17.8081255596709
17.1484962106766
17.8075825917498
19.7676295415027
22.0681472792886
24.0325105977756
25.9828144481308
28.5517778341081
31.5603303098988
33.9884556625377
35.1010537393195
35.2502912351531
35.300474972746
35.4440734366678
34.9808280006212
33.3513804624537
31.0505773662074
29.2029377288341
28.3532947363526
28.0563909538882
27.7694036227328
27.8002753784465
28.9849960910502
31.4816719318106
34.2969713923951
36.2408500517273
37.1286541980274
37.7059870092583
38.4431026589607
38.8327844123294
38.1440575666275
36.6160143554346
35.4379276023694
35.4393568333093
36.1478537352842
36.4493996817008
36.0182005068935
35.674695287604
36.2302127898009
37.3634111367357
38.0287034762949
37.8626917768458
37.7105862488055
38.5353474532674
40.1158536073677
41.2539125691317
41.2517975663688
40.7564291934735
40.8966258307108
41.8821900321753
42.9234509535778
43.5436614725207
44.4631685722656
46.7745639543857
50.4209797470329
53.9886803623848
56.1530074047784
56.9454594097654
57.2297737413626
57.1428393410364
55.6489609960608
51.8834755468427
46.5286036312468
41.3178671629154
37.1829883026105
33.3894659347531
28.7865133952798
23.5506823414325
19.1301964170986
16.4394846125531
14.6751750447436
12.3482901976296
9.21647478049941
6.57235931208767
5.46769955834469
5.18474062725671
3.9960407315828
1.27612055421529
-1.76704141333963
-3.68812307087343
-4.61813609938759
-5.89327877300186
-8.0022066599768
-9.63600437513573
-9.21145340358053
-6.93315459650685
-4.65219285250335
-3.63369311260782
-3.14593275198382
-1.76236256264211
0.337503648807942
1.21317853903393
-0.465854380988638
-3.56543596523401
-5.68911788372369
-6.02773748526857
-6.1634890007686
-7.65799331684052
-9.47484742278635
-8.7078617356819
-3.97644043609431
2.6215542670013
7.44683432480949
8.83331210602395
8.03719518104431
6.83771678926664
5.15309205184142
1.66118221019821
-3.78772131921596
-9.5429112262006
-14.3416700278848
-19.4467346302717
-27.9183367144356
-42.0594970375231
-62.3749457784149
-89.0007456645491
-122.955831168183
-164.911456924332
-212.875922647382
-261.578034436876
-303.107366888872
-325.79019546996
-311.858084567101
-240.388308721232
-99.9972526160438
96.3592874764459
311.204935601636
504.527221989496
662.060934219038
801.1874826639
943.125122252503
1075.38705997305
1144.73810641969
1095.42246452639
921.315167717322
681.433710871465
459.825484824898
304.374703656833
200.215701387021
99.5679153442719
-24.7933057076771
-155.003092851003
-251.850624188209
-296.941936702129
-309.214049004694
-323.269195505739
-356.820879787564
-400.794579387846
-436.655429956474
-456.988461404887
-467.357452025902
-472.735953867168
-468.644077902945
-447.902065511764
-413.048627792773
-377.945889071641
-356.102380426057
-349.22092544964
-348.390970545634
-345.020367303213
-338.21836956889
-331.359425297373
-324.132937372547
-310.854003721838
-287.00933535679
-255.755751522184
-226.544732201664
-207.492891046049
-199.660674177522
-198.119978260464
-196.927198325162
-192.339487645494
-182.665490751623
-167.487282348809
-148.232683183512
-128.538861909416
-112.296351798241
-100.604199371285
-91.1528176053625
-81.1122027608138
-70.2988626149494
-60.8975708442557
-54.2105581434314
-48.5703710474652
-41.0467842225587
-30.8198313752512
-20.0714209675127
-11.4026173922621
-5.02666480845687
0.958769042447798
7.89020435555123
14.9735216708783
20.645986549458
24.8463791521493
29.1783138619099
34.8569973210711
41.2005192876392
46.5943768214891
50.5786409873965
54.3137203542553
58.8897762922848
63.7664149094405
67.3977687320612
69.2110003027539
70.3676748255696
72.3518667668396
75.2245061832747
77.7447731095592
79.1077641143641
80.0129183188015
81.7377272170002
84.5001366009651
87.2491470055439
89.0990263827574
90.4917525496424
92.5786686355217
95.6468762249502
98.6190355008761
100.227368970467
100.328008948618
99.7336589997827
98.9221063874643
97.3944489277593
94.5115664168937
90.6486612133974
87.0955679490227
84.7849216454478
83.4466588747514
82.2052432175702
80.7699946829296
79.6693582971062
79.3087728888813
79.1921315699648
78.3945024727727
76.6853532835487
74.8242111773832
73.6273512980042
73.0014195719499
72.1655252660439
70.727288879435
69.1910434686317
68.2616684522447
67.9039073892587
67.422648138284
66.4621308371206
65.5949301827594
65.6977358854412
66.8956911396013
68.4250327851328
69.5783306074216
70.5090727219402
71.8832076119186
73.8806867160864
75.8849065674083
77.2736440415543
78.2635595129396
79.6744901045759
81.8799362410064
84.2731034505938
85.926361867646
86.6057949811698
86.8790633611288
87.2490951894853
87.4918565572286
87.0675533806088
86.0400289003826
85.2585422607613
85.5079074863487
86.6703716820934
87.9331783270008
88.7463355150616
89.3120123326251
90.0426802431101
90.7764242424007
90.824351219354
89.8005125123769
88.1394757566057
86.6041602119317
85.3958074688264
83.9892851280757
81.876241334038
79.240830315248
76.7137784902608
74.5659341770845
72.4149970530642
69.8152821722844
66.9252788155106
64.3460542131063
62.3181452841194
60.3142207404188
57.561418368271
53.8363649054354
49.5490097310664
45.0753932264348
40.2631181566801
34.7622309461454
28.7084876842839
22.8013973416063
17.6139464245372
12.9935152782593
8.31532525556197
3.25769118307933
-1.88746743130039
-6.72348877803111
-11.3530792744282
-16.2483767637772
-21.5564289014156
-26.7849448089533
-31.3317846126204
-35.2087634173316
-39.0317543906953
-43.2829618226515
-47.7841189462684
-52.0329242108605
-55.9247733754136
-59.8882624440433
-64.2515616239336
-68.6895765186848
-72.5161965725129
-75.4837670765867
-78.0729234155998
-80.8955553736403
-83.9674200570195
-86.7627151347528
-88.942257869762
-90.782856768224
-92.750083237257
-94.7972727011122
-96.3410193808189
-96.9760407041114
-97.0142079726571
-97.1465509290843
-97.6551983959989
-98.1728263675703
-98.2626822805139
-98.0293933476472
-97.9590274565889
-98.226521554503
-98.4197624711835
-98.0738183120775
-97.3234653753216
-96.8050579457203
-96.9102934659082
-97.3387592783506
-97.5028264312938
-97.2273698315183
-96.822849871229
-96.4687734548934
-95.7812288015776
-94.2019430032019
-91.7408327535353
-89.0967223991191
-86.9625439833837
-85.3775582861869
-83.9262055209643
-82.4729336118542
-81.4245060786139
-81.1536673113078
-81.3585205212819
-81.2534164098534
-80.4043199871229
-79.1507090359962
-78.0627429540875
-77.129892805294
-75.734921609108
-73.4485367124803
-70.6043118007705
-67.8942065930999
-65.5091642718353
-62.9577810133942
-59.8169281934647
-56.4370969216026
-53.6574319730541
-51.8593648389435
-50.5536677070138
-49.0200609359492
-47.1709584879469
-45.5403290434083
-44.4528383527999
-43.4975994481806
-42.018909683203
-39.9865933900881
-38.0925711124383
-36.9177320076983
-36.2213625610172
-35.2463037412707
-33.6199516006356
-31.6839107822335
-29.870232800909
-28.0097180392304
-25.5323927954418
-22.3114844460679
-19.0191659927763
-16.4829116098878
-14.8407682519697
-13.5599666753114
-12.2506322232125
-11.1726452791773
-10.7684592886516
-10.8783350738076
-10.7391297504902
-9.82667796203257
-8.45218609365423
-7.31002568809843
-6.54608648169068
-5.56186185790157
-3.81323911222302
-1.54857511999994
0.498723876745306
2.06414994949295
3.67968865950894
5.91459197745578
8.51825016941071
10.6201267709475
11.7718613516686
12.4948933815709
13.6146153890418
15.2354635081579
16.6811786845554
17.4597036990856
17.9635822539222
18.9638355804998
20.5554553264581
21.9602672173189
22.4853706105042
22.4127462204675
22.6646798579018
23.6769564615493
24.9395200002688
25.7773242272709
26.3067436990414
27.2779157978971
29.0052912200273
30.8244725156915
31.8413007955923
32.0281311498686
32.2366556019506
33.101566130154
34.26476283814
34.9250529785085
34.9592893038774
35.0960534684791
35.8855896509588
36.8406201955387
36.9411937804753
35.9037991569127
34.5707784153554
33.892709717239
33.815521254811
33.5168315740136
32.6579727929181
31.9627600316555
32.3132934060217
33.5353037819117
34.5064795593388
34.5095106804679
34.0958919172292
34.3289122093347
35.3831647173764
36.3300930575612
36.3890403099256
35.988457464327
36.2181978695245
37.376010123016
38.5304916096686
38.7085373508119
38.173694676033
38.118185796585
39.1598736100235
40.6044961560443
41.4273320765848
41.6641315862031
42.370495187955
44.2193515812892
46.6226273789155
48.5597882306005
49.9969591495328
51.9592637419724
55.1032128953916
58.6630161210941
61.1840715480998
62.0839155679107
61.9672067116963
61.3035655978913
59.3334643725712
54.8277289117097
47.8206408707705
40.000465758067
33.0959121506293
27.2462436897355
21.4432300729348
15.4346254156936
10.503202022991
7.97745877215878
7.38631759221942
6.78224593534265
4.98530309802984
2.91740896223533
2.27247000464858
3.21406923561211
4.10450517163633
3.6366074793549
2.55560844816515
2.65127409837752
4.30755553275107
5.87215394600998
5.75665896514154
4.53472411522839
4.23388524550733
5.71591267238587
7.62555179836417
8.3220699905472
8.15276935399469
8.86450941478058
10.8161448306237
11.8355543663119
9.5901813523565
4.58237726068521
-0.265173134444751
-3.12057382035675
-5.25457694987355
-8.66615567392444
-12.3067555091006
-12.2039876583411
-6.00502604040352
3.57398708910247
11.092213477003
13.985567183951
14.3535537042824
14.3348726188784
10.7996211506467
-3.40652222516667
-32.2317950337371
-71.4129447027689
-111.666834684684
-146.509855089959
-176.155649995415
-204.418888963638
-233.766342643345
-263.712269036281
-290.603443461449
-304.218495973221
-284.115092055444
-205.741928617632
-59.0931163622417
134.955588624827
331.517884533196
493.139811387083
618.473368609839
736.55151535829
866.966218424464
984.620864879347
1029.23375873808
956.810348416715
784.919310116401
585.243947566139
427.487231712557
327.261727584919
246.334829540794
140.872405998161
7.21001634171594
-118.226696825748
-198.685227119186
-232.183144464909
-248.294650269215
-275.913529336269
-318.421711781958
-358.61692324991
-381.563511358461
-388.153551066863
-388.23700669879
-386.543930336948
-379.275669250597
-362.927343408139
-342.032509476698
-325.940487859478
-319.383252207352
-318.46604699595
-315.906525800178
-308.286138463068
-297.253560126642
-285.239179833232
-272.376579905773
-258.052929716722
-243.611046247815
-231.643640130294
-222.703237194192
-214.163030772369
-203.112760850761
-189.685900872691
-176.574783467471
-165.466590249226
-155.05505041981
-143.07716648299
-129.557021751436
-117.008263534507
-107.421218616015
-99.9701410268842
-92.2690901682327
-83.3636776413735
-74.5799471379451
-67.3490192967522
-61.0617099566554
-53.7817235626131
-44.7785521573369
-35.5082792552757
-27.8094249823933
-21.7204890151909
-15.7021727103983
-8.82835670099692
-2.01233461381354
3.26001361346764
6.91264786271721
10.3541240838728
14.6165208848799
19.0537797956705
22.2799220211507
24.0662425886374
25.7252402150233
28.5506551523838
32.3840786085802
36.0979627007352
39.2204079718259
42.5028223067629
46.7357301899864
51.4605049834161
55.3181071578158
57.5865603473362
58.9239629643279
60.4227348195425
62.2754745316446
63.7631540154739
64.4539851285139
64.9219723089463
66.0120284504557
67.6601996419134
68.8688335757049
68.8958099305954
68.124826509439
67.5286350711951
67.4804690589245
67.4642871981273
66.9828938869078
66.3737330482004
66.4114239248475
67.2294971428288
68.0136573575564
67.9051095731855
66.9701886278387
66.0214256668859
65.5735737536169
65.3003819911168
64.6383372951171
63.6612727007336
63.033365113131
63.1085512420275
63.3840279797387
63.0455215778065
61.916246888928
60.6183369391604
59.7962041037803
59.436453454256
59.1181423758214
58.7688466388017
58.8706572304153
59.8481615191594
61.4808783931171
63.1392022633658
64.5397908977476
66.0391411972836
68.1106316850974
70.7166088911593
73.3805696297357
75.8008530318732
78.1389585391201
80.5950703148088
82.877873035679
84.3387573336704
84.6560425394469
84.2076926531014
83.6554536217213
83.2688439692151
82.8223040569399
82.1215448863729
81.3980135681015
81.0236705309676
80.9357608307648
80.5705585517903
79.4496178876153
77.7109211051464
75.9416021367803
74.5488758657052
73.4511759598226
72.4025920169995
71.433603103191
70.7888724011966
70.4632231178105
69.9968554879992
