Value(μV)
29.3740653991699
29.4694347381592
31.9490642547607
33.4749908447266
29.1833248138428
29.9462871551514
38.9110984802246
41.6768379211426
41.3907279968262
43.8703575134277
40.913875579834
36.431468963623
34.7148017883301
31.3768424987793
30.70924949646
35.1916542053223
37.3851737976074
36.1453590393066
38.3388748168945
39.2925796508789
39.5786895751953
43.2027626037598
37.9573936462402
29.9462871551514
34.1425819396973
34.3333206176758
37.0036926269531
32.9981384277344
31.3768424987793
33.4749908447266
33.1888771057129
35.5731353759766
36.2407302856445
32.8073959350586
34.6194343566895
37.6712837219238
37.2898025512695
36.2407302856445
38.148136138916
42.3444290161133
39.1018409729004
33.5703582763672
34.4286918640137
35.2870254516602
34.1425819396973
31.7583236694336
31.7583236694336
31.9490642547607
29.7555465698242
37.099063873291
45.0148010253906
43.5842437744141
44.0610961914063
46.6360969543457
49.2110939025879
53.4073905944824
53.5027618408203
50.2601699829102
44.0610961914063
33.5703582763672
26.8944358825684
22.5074005126953
14.8777732849121
6.86666440963745
-0.286111027002335
-3.05185079574585
-0.286111027002335
4.1962947845459
5.34073925018311
2.8611102104187
8.67870044708252
8.86944198608398
-2.95648050308228
-9.72777462005615
-16.8805503845215
-20.5046234130859
-14.7824029922485
-12.4935140609741
-12.8749961853027
-8.3925895690918
-2.67036962509155
-3.91018390655518
-3.33796191215515
1.62129580974579
2.76573991775513
0.0953703373670578
-4.7685170173645
-6.38981294631958
-7.34351634979248
-8.10647869110107
-3.5287024974823
-0.47685170173645
4.48240613937378
11.9212923049927
7.43888664245605
1.23981440067291
0
-3.147221326828
-4.10092449188232
-4.38703584671021
-0.47685170173645
2.00277709960938
-5.1499981880188
-7.24814605712891
-13.256477355957
-41.5814666748047
-79.5388641357422
-115.970336914063
-145.43977355957
-167.279571533203
-203.234191894531
-257.023071289063
-295.934173583984
-316.820281982422
-318.536926269531
-257.595275878906
-110.724967956543
96.9916381835938
291.261016845703
466.742431640625
645.466430664063
778.889587402344
930.051574707031
1109.53857421875
1175.1533203125
1095.13757324219
935.964538574219
725.005310058594
461.020233154297
259.788818359375
204.664749145508
145.916625976563
-16.2129573822021
-177.29345703125
-270.374908447266
-308.236938476563
-309.762878417969
-320.348968505859
-352.870269775391
-392.162841796875
-433.64892578125
-467.982269287109
-485.14892578125
-489.440582275391
-482.669281005859
-459.39892578125
-426.019317626953
-392.067474365234
-360.690612792969
-344.286926269531
-345.526733398438
-353.537841796875
-358.401733398438
-353.633209228516
-341.330444335938
-318.250823974609
-286.778625488281
-256.069366455078
-225.455490112305
-204.092529296875
-197.035125732422
-200.086975097656
-206.762893676758
-201.708267211914
-191.694381713867
-179.677719116211
-154.786056518555
-129.417556762695
-109.580520629883
-88.1221923828125
-77.4407196044922
-78.012939453125
-78.9666442871094
-80.4925689697266
-78.8712692260742
-74.3888626098633
-62.8490524291992
-41.5814666748047
-19.1694374084473
-1.62129580974579
6.77129411697388
3.05185079574585
-0.9537034034729
1.04907369613647
2.1935179233551
7.72499752044678
18.787956237793
28.4203605651855
38.8157272338867
47.6851692199707
52.453685760498
54.170352935791
52.453685760498
53.121280670166
59.1296119689941
65.0425720214844
66.9499816894531
66.1870193481445
70.7647933959961
78.6805267333984
85.0703430175781
89.1712646484375
92.2231216430664
93.9397811889648
90.6018218994141
86.5009002685547
86.4055252075195
88.0268249511719
90.8879318237305
91.5555267333984
86.4055252075195
88.2175674438477
95.1795959472656
92.8907089233398
91.3647842407227
94.702751159668
94.9888610839844
94.3212661743164
92.6045989990234
89.4573822021484
88.5990447998047
89.1712646484375
87.2638626098633
86.2147903442383
85.4518280029297
86.3101577758789
88.9805297851563
84.2120132446289
75.3425674438477
68.8573837280273
65.7101669311523
67.1407165527344
70.6694183349609
73.5305328369141
75.7240524291992
79.1573791503906
81.4462738037109
76.0101623535156
69.9064559936523
72.2907180786133
73.8166427612305
71.8138656616211
76.7731246948242
86.4055252075195
91.269416809082
93.2721939086914
94.3212661743164
90.8879318237305
85.9286727905273
83.5444183349609
81.9231185913086
83.4490509033203
91.269416809082
100.138854980469
101.569412231445
99.6620025634766
102.713859558105
103.190704345703
95.084228515625
87.1684875488281
85.2610855102539
85.2610855102539
85.1657104492188
89.5527496337891
93.6536712646484
96.800895690918
102.332374572754
102.809226989746
101.664779663086
97.182373046875
88.7897872924805
86.0240478515625
83.6397857666016
82.7814559936523
91.269416809082
96.0379333496094
91.3647842407227
86.5009002685547
78.2036819458008
67.7129440307617
62.1814613342285
51.8814659118652
45.1101722717285
49.1157264709473
44.5379486083984
43.5842437744141
53.5027618408203
51.1185035705566
39.3879508972168
28.1342506408691
18.4064750671387
11.5398111343384
3.91018390655518
-4.57777643203735
-10.7768487930298
-11.0629596710205
-9.25092315673828
-10.204626083374
-16.022216796875
-23.2703628540039
-26.0361022949219
-34.810173034668
-49.6879463195801
-52.6444282531738
-48.2573928833008
-50.1647987365723
-51.6907234191895
-50.1647987365723
-57.5083160400391
-64.9472045898438
-63.2305335998535
-68.4759063720703
-75.9147872924805
-77.5360870361328
-81.827751159668
-80.3018264770508
-74.7703475952148
-77.1546020507813
-84.1166381835938
-90.6018218994141
-94.1305236816406
-95.5610809326172
-99.6620025634766
-99.948112487793
-95.2749710083008
-98.0407104492188
-103.381446838379
-103.76293182373
-102.904594421387
-100.329597473145
-100.329597473145
-101.664779663086
-100.806449890137
-102.52311706543
-103.858299255371
-103.858299255371
-104.144409179688
-103.953666687012
-100.138854980469
-98.2314529418945
-102.046264648438
-98.4221878051758
-93.2721939086914
-96.4194107055664
-96.0379333496094
-92.1277465820313
-89.3620071411133
-88.0268249511719
-88.5036773681641
-90.0296020507813
-90.6971969604492
-84.4027481079102
-77.7268295288086
-77.9175643920898
-76.2009048461914
-72.2907180786133
-70.6694183349609
-69.0481262207031
-70.5740509033203
-71.5277557373047
-67.7129440307617
-64.756462097168
-63.039794921875
-60.1786842346191
-57.4129447937012
-56.3638725280762
-55.219425201416
-52.2629470825195
-50.832389831543
-50.355541229248
-47.5897979736328
-43.9657249450684
-42.0583190917969
-41.7722091674805
-39.6740608215332
-38.2435073852539
-39.7694320678711
-38.8157272338867
-36.9083213806152
-34.3333206176758
-28.8018417358398
-26.7036952972412
-24.6055469512939
-22.0305480957031
-24.0333251953125
-24.4148063659668
-23.9379558563232
-23.1749935150146
-22.9842510223389
-23.8425846099854
-18.9786968231201
-14.7824029922485
-12.2074031829834
-1.9074068069458
2.1935179233551
-4.95925760269165
-9.25092315673828
-8.67870044708252
-6.00833129882813
-6.48518323898315
-9.25092315673828
-8.77407169342041
-7.53425693511963
-2.28888821601868
5.24536848068237
8.10647869110107
7.34351634979248
7.91573810577393
11.7305517196655
13.0657367706299
13.4472179412842
15.9268465042114
16.4990692138672
16.022216796875
17.8342533111572
20.5999927520752
17.9296245574951
16.5944385528564
15.1638841629028
7.6296272277832
7.43888664245605
13.1611070632935
18.9786968231201
23.7472152709961
24.4148063659668
26.7990646362305
32.3305435180664
33.9518394470215
31.3768424987793
31.3768424987793
32.5212860107422
29.7555465698242
27.3712882995605
29.8509159088135
31.4722118377686
29.278694152832
28.1342506408691
27.943510055542
30.8046188354492
32.4259147644043
31.4722118377686
36.3360977172852
41.2953567504883
40.4370231628418
40.2462844848633
43.8703575134277
46.6360969543457
45.1101722717285
41.2953567504883
40.0555419921875
43.2981338500977
44.8240585327148
41.1999855041504
43.2027626037598
46.0638732910156
43.1073951721191
43.2027626037598
40.4370231628418
34.9055442810059
35.7638778686523
38.7203598022461
39.1018409729004
36.0499877929688
34.2379531860352
38.2435073852539
40.6277656555176
40.5323944091797
44.3472061157227
41.1046180725098
33.4749908447266
34.810173034668
35.0962867736816
32.1398048400879
33.1888771057129
33.6657295227051
38.4342460632324
45.300910949707
44.251838684082
37.8620262145996
35.0962867736816
35.0009155273438
35.8592491149902
40.5323944091797
36.8129501342773
24.1286964416504
28.9925842285156
47.6851692199707
54.9333152770996
53.4073905944824
55.219425201416
59.8925743103027
58.652759552002
55.6962776184082
55.0286865234375
45.6823921203613
33.3796195983887
26.4175834655762
23.2703628540039
18.2157344818115
9.34629344940186
4.57777643203735
5.34073925018311
4.95925760269165
2.38425850868225
2.95648050308228
5.24536848068237
-0.667592406272888
-9.9185152053833
-11.8259220123291
-14.7824029922485
-16.9759197235107
-11.4444408416748
-4.38703584671021
0.572222054004669
-0.9537034034729
-2.00277709960938
-0.0953703373670578
-3.71944332122803
-6.19907188415527
-6.1037015914917
-3.91018390655518
-2.47962880134583
-9.72777462005615
-11.635181427002
-4.10092449188232
-0.190740674734116
-1.43055510520935
0
2.67036962509155
0.762962698936462
-3.33796191215515
-6.58055353164673
-6.00833129882813
-3.62407302856445
-7.24814605712891
-10.7768487930298
-5.7222204208374
1.23981440067291
1.52592539787292
-3.05185079574585
-12.8749961853027
-31.1861019134521
-62.5629425048828
-111.011077880859
-151.543472290039
-163.941619873047
-180.059204101563
-225.074005126953
-276.955474853516
-308.046203613281
-317.964721679688
-307.092498779297
-243.480484008789
-82.7814559936523
129.036071777344
310.144348144531
476.947082519531
616.092407226563
728.820129394531
883.987670898438
1023.51446533203
1047.45239257813
964.00341796875
825.144165039063
621.337768554688
386.440612792969
280.00732421875
268.181396484375
140.099029541016
-49.783317565918
-154.690689086914
-203.711044311523
-228.888809204102
-247.295288085938
-273.712860107422
-297.07861328125
-333.510070800781
-387.298950195313
-421.346160888672
-422.204498291016
-412.38134765625
-396.263763427734
-370.418395996094
-347.529510498047
-334.940643310547
-324.735992431641
-318.250823974609
-322.256378173828
-327.120269775391
-322.82861328125
-313.100830078125
-301.179534912109
-281.437866210938
-254.066589355469
-229.079559326172
-213.248077392578
-204.855484008789
-199.610122680664
-197.702713012695
-193.411056518555
-183.301788330078
-174.623092651367
-163.750869750977
-143.723098754883
-121.883293151855
-103.095336914063
-87.2638626098633
-80.3018264770508
-84.4981231689453
-89.2666397094727
-83.8305282592773
-70.0971984863281
-57.7944259643555
-45.7777633666992
-32.8073959350586
-25.2731399536133
-18.8833274841309
-12.4935140609741
-11.1583299636841
-11.1583299636841
-9.15555286407471
-5.43610954284668
1.71666610240936
14.8777732849121
25.177770614624
24.891658782959
28.4203605651855
39.864803314209
44.9194297790527
43.0120239257813
45.3962821960449
53.7888717651367
56.7453536987305
55.6962776184082
57.3175735473633
58.2712783813477
63.039794921875
68.3805313110352
67.3314590454102
68.6666412353516
76.0101623535156
78.1083068847656
71.8138656616211
69.9064559936523
75.4379425048828
76.3916397094727
71.9092330932617
71.5277557373047
78.5851593017578
86.2147903442383
86.5009002685547
83.925895690918
83.8305282592773
78.6805267333984
73.1490478515625
71.4323883056641
68.1897964477539
67.4268264770508
66.854606628418
67.0453491210938
66.1870193481445
61.8953514099121
63.5166473388672
66.9499816894531
65.0425720214844
61.6092376708984
59.0342407226563
61.7999801635742
66.854606628418
67.2360916137695
69.5249786376953
71.1462707519531
68.1897964477539
67.9990539550781
65.137939453125
60.274055480957
58.7481307983398
55.9823913574219
57.7944259643555
66.4731292724609
72.6721954345703
76.9638671875
84.1166381835938
85.5471954345703
76.8684921264648
72.0999755859375
74.4842376708984
75.9147872924805
77.2499771118164
79.9203414916992
84.4981231689453
88.2175674438477
88.3129348754883
89.1712646484375
88.3129348754883
85.5471954345703
83.4490509033203
81.3508987426758
83.925895690918
86.5962677001953
83.925895690918
84.3073806762695
88.1221923828125
85.3564529418945
77.7268295288086
72.4814605712891
69.9064559936523
69.2388687133789
71.9092330932617
70.4786834716797
64.756462097168
67.5222015380859
71.4323883056641
67.0453491210938
64.2796096801758
64.5657196044922
59.5110931396484
50.6416511535645
47.1129493713379
46.0638732910156
41.1999855041504
39.864803314209
43.0120239257813
41.3907279968262
36.1453590393066
32.4259147644043
26.7990646362305
18.4064750671387
15.0685138702393
15.1638841629028
12.302773475647
7.15277528762817
2.5749990940094
-2.38425850868225
-10.204626083374
-17.2620315551758
-19.6462898254395
-23.6518440246582
-31.5675830841064
-40.4370231628418
-47.3036880493164
-46.0638732910156
-42.8212814331055
-46.0638732910156
-50.2601699829102
-55.5055389404297
-60.8462753295898
-62.2768325805664
-61.99072265625
-61.2277565002441
-63.9934997558594
-69.8110885620117
-67.9990539550781
-63.5166473388672
-68.2851638793945
-72.8629379272461
-74.0073852539063
-79.4434967041016
-82.6860809326172
-83.1629333496094
-83.1629333496094
-81.0647888183594
-79.9203414916992
-76.1055297851563
-74.5796051025391
-80.3018264770508
-81.9231185913086
-81.5416412353516
-83.5444183349609
-81.4462738037109
-79.729606628418
-83.8305282592773
-87.4546051025391
-85.2610855102539
-82.3046035766602
-82.6860809326172
-84.4981231689453
-86.2147903442383
-85.4518280029297
-81.0647888183594
-77.0592346191406
-73.0536804199219
-73.9120101928711
-76.9638671875
-73.6259002685547
-70.9555358886719
-70.6694183349609
-68.9527587890625
-69.9064559936523
-73.1490478515625
-68.6666412353516
-58.0805358886719
-53.8842430114746
-53.2166481018066
-50.355541229248
-50.4509086608887
-54.0749816894531
-57.1268348693848
-55.9823913574219
-53.0259094238281
-51.4999847412109
-50.7370223999023
-46.9222068786621
-41.8675804138184
-46.9222068786621
-48.4481315612793
-40.4370231628418
-37.099063873291
-33.6657295227051
-30.0416564941406
-32.2351760864258
-35.382396697998
-36.8129501342773
-33.3796195983887
-26.9898052215576
-24.7962875366211
-25.7499923706055
-26.4175834655762
-22.7935104370117
-20.3138828277588
-18.9786968231201
-13.256477355957
-15.9268465042114
-23.9379558563232
-20.5046234130859
-16.4036979675293
-16.5944385528564
-13.256477355957
-9.44166374206543
-7.15277528762817
-5.24536848068237
-4.29166507720947
-0.9537034034729
-3.62407302856445
-12.1120328903198
-13.4472179412842
-9.63240432739258
-5.05462789535522
-1.81203651428223
3.62407302856445
9.25092315673828
9.82314491271973
8.86944198608398
6.00833129882813
8.29721927642822
15.5453653335571
15.6407356262207
13.1611070632935
12.9703664779663
13.1611070632935
17.5481433868408
21.1722145080566
18.3111057281494
14.3055505752563
15.35462474823
18.5018463134766
17.8342533111572
17.4527721405029
18.1203651428223
19.9324016571045
27.7527694702148
33.4749908447266
30.3277683258057
28.0388793945313
26.0361022949219
25.6546211242676
32.1398048400879
33.2842483520508
31.3768424987793
30.995361328125
25.7499923706055
26.3222141265869
30.2323970794678
26.8944358825684
22.9842510223389
23.5564746856689
25.6546211242676
25.5592517852783
27.7527694702148
34.6194343566895
37.6712837219238
36.1453590393066
35.382396697998
34.6194343566895
30.2323970794678
30.0416564941406
34.3333206176758
34.7148017883301
35.6685066223145
38.0527648925781
41.6768379211426
47.5897979736328
49.0203552246094
50.0694274902344
49.783317565918
38.6249885559082
32.4259147644043
39.4833221435547
45.1101722717285
48.066650390625
50.6416511535645
50.2601699829102
55.1240577697754
62.0860900878906
59.1296119689941
54.7425765991211
57.3175735473633
54.170352935791
41.4860992431641
30.8999900817871
22.4120292663574
11.5398111343384
1.23981440067291
-0.381481349468231
6.86666440963745
5.53147983551025
-4.57777643203735
-5.1499981880188
1.33518481254578
0.286111027002335
-4.67314672470093
-6.1037015914917
-8.67870044708252
-7.72499752044678
-5.81759071350098
-9.72777462005615
-8.20184898376465
-4.00555419921875
-3.24259161949158
-2.8611102104187
-4.1962947845459
-1.81203651428223
7.82036781311035
8.86944198608398
0.0953703373670578
-2.5749990940094
-3.33796191215515
-6.38981294631958
-0.858333051204681
7.72499752044678
7.24814605712891
7.53425693511963
9.537034034729
3.24259161949158
0.572222054004669
5.05462789535522
5.81759071350098
4.86388731002808
6.86666440963745
8.48795986175537
8.96481227874756
7.34351634979248
2.1935179233551
-5.62685012817383
-21.4583263397217
-54.170352935791
-96.9916381835938
-132.087921142578
-154.976806640625
-177.29345703125
-217.635116577148
-269.802703857422
-300.511932373047
-309.762878417969
-296.220275878906
-220.782333374023
-49.2110939025879
174.241607666016
365.173034667969
548.474853515625
722.525695800781
852.61083984375
1021.2255859375
1182.78295898438
1200.6171875
1094.18395996094
928.620971679688
701.0673828125
445.474853515625
294.598968505859
234.134185791016
102.999969482422
-82.6860809326172
-217.062896728516
-286.873992919922
-309.381378173828
-322.923980712891
-344.859161376953
-373.088775634766
-419.438751220703
-458.159118652344
-472.655395507813
-484.385955810547
-488.772979736328
-470.747985839844
-442.136901855469
-413.621154785156
-383.484130859375
-361.072113037109
-352.679504394531
-352.202667236328
-360.118408203125
-364.791564941406
-357.257293701172
-340.758209228516
-313.196197509766
-281.533233642578
-251.682327270508
-227.649002075195
-214.869369506836
-206.572158813477
-204.187896728516
-207.525863647461
-202.185119628906
-188.833267211914
-174.146240234375
-149.159210205078
-118.831443786621
-101.283302307129
-93.8444137573242
-87.2638626098633
-81.16015625
-78.6805267333984
-77.345344543457
-70.6694183349609
-57.8897972106934
-42.9166526794434
-31.1861019134521
-19.1694374084473
-3.91018390655518
3.91018390655518
5.7222204208374
8.67870044708252
9.82314491271973
7.6296272277832
10.1092557907104
21.7444381713867
30.8999900817871
38.8157272338867
50.5462799072266
60.274055480957
65.137939453125
66.0916442871094
64.2796096801758
64.4703521728516
68.5712738037109
71.5277557373047
73.3397903442383
79.6342315673828
89.0758972167969
92.6999740600586
89.4573822021484
89.9342269897461
92.1277465820313
86.4055252075195
79.5388641357422
81.7323837280273
87.9314498901367
87.8360824584961
87.5499725341797
88.6944122314453
93.8444137573242
100.043487548828
96.800895690918
94.416633605957
97.182373046875
92.7953414916992
84.1166381835938
79.3481216430664
76.8684921264648
74.8657150268555
73.9120101928711
71.3370132446289
70.1925735473633
76.9638671875
80.3971939086914
73.2444229125977
65.3286819458008
58.652759552002
51.9768333435059
56.3638725280762
66.5684967041016
67.6175689697266
67.903678894043
73.8166427612305
77.2499771118164
73.4351654052734
68.0944213867188
66.1870193481445
63.4212760925293
64.3749771118164
69.7157211303711
71.6231231689453
75.247200012207
81.3508987426758
81.827751159668
80.778678894043
81.0647888183594
75.247200012207
68.7620162963867
70.4786834716797
76.6777496337891
82.3046035766602
87.1684875488281
95.9425582885742
101.37866973877
98.5175628662109
97.182373046875
96.4194107055664
92.0323791503906
89.2666397094727
85.5471954345703
86.6916351318359
95.751823425293
96.3240432739258
94.7981185913086
104.049041748047
105.574966430664
93.5583038330078
84.8796005249023
82.5907135009766
85.7379379272461
89.1712646484375
84.7842330932617
85.8333053588867
93.6536712646484
94.8934860229492
87.6453399658203
75.1518249511719
67.5222015380859
63.7073860168457
56.936092376709
55.9823913574219
55.6962776184082
50.0694274902344
50.5462799072266
48.1620216369629
38.9110984802246
35.8592491149902
32.3305435180664
22.4120292663574
11.635181427002
3.8148136138916
5.81759071350098
6.29444265365601
-3.71944332122803
-6.19907188415527
-3.43333220481873
-11.7305517196655
-21.1722145080566
-28.0388793945313
-33.4749908447266
-32.9981384277344
-35.5731353759766
-41.962947845459
-48.1620216369629
-54.0749816894531
-53.8842430114746
-50.832389831543
-58.2712783813477
-66.4731292724609
-67.903678894043
-72.4814605712891
-74.9610900878906
-74.9610900878906
-80.111083984375
-83.4490509033203
-84.8796005249023
-87.5499725341797
-90.1249694824219
-95.4657135009766
-98.899040222168
-96.0379333496094
-96.0379333496094
-98.7083053588867
-101.664779663086
-99.8527450561523
-93.7490463256836
-96.4194107055664
-101.37866973877
-99.4712677001953
-97.849967956543
-97.3731155395508
-98.1360778808594
-102.141632080078
-103.953666687012
-101.187927246094
-101.37866973877
-102.046264648438
-95.6564483642578
-92.5092315673828
-97.0870056152344
-97.9453353881836
-97.4684906005859
-97.182373046875
-95.751823425293
-96.800895690918
-96.6101531982422
-92.6999740600586
-88.0268249511719
-84.6888580322266
-82.876823425293
-81.9231185913086
-84.4981231689453
-87.2638626098633
-83.3536758422852
-79.5388641357422
-77.2499771118164
-74.0073852539063
-71.2416458129883
-66.854606628418
-65.6147918701172
-67.4268264770508
-66.6638641357422
-64.0888671875
-59.2249794006348
-54.5518341064453
-51.8814659118652
-48.2573928833008
-47.9712791442871
-48.4481315612793
-44.3472061157227
-39.6740608215332
-34.5240631103516
-31.3768424987793
-36.7175827026367
-43.1073951721191
-41.4860992431641
-37.5759124755859
-35.7638778686523
-28.7064723968506
-23.1749935150146
-23.2703628540039
-19.5509204864502
-18.5018463134766
-20.8861045837402
-16.7851791381836
-14.7824029922485
-15.4499950408936
-14.0194396972656
-18.2157344818115
-20.8861045837402
-14.4962921142578
-8.96481227874756
-8.58333015441895
-8.67870044708252
-6.29444265365601
-7.0574049949646
-10.204626083374
-5.62685012817383
-1.04907369613647
-0.47685170173645
5.43610954284668
6.48518323898315
1.71666610240936
8.3925895690918
15.6407356262207
10.8722190856934
9.9185152053833
14.4009208679199
15.4499950408936
13.8286991119385
9.72777462005615
14.5916624069214
22.8888816833496
20.2185115814209
20.6953639984131
25.8453617095947
25.0823993682861
22.6981410980225
22.6981410980225
23.9379558563232
26.7036952972412
30.8046188354492
28.9925842285156
26.6083240509033
30.6138782501221
28.6111011505127
21.0768451690674
21.7444381713867
28.6111011505127
33.8564720153809
36.431468963623
39.3879508972168
39.197208404541
36.1453590393066
36.0499877929688
37.7666549682617
38.6249885559082
39.3879508972168
41.6768379211426
43.0120239257813
41.0092468261719
39.6740608215332
41.2953567504883
42.8212814331055
42.8212814331055
40.8185043334961
38.9110984802246
37.2898025512695
37.0036926269531
36.8129501342773
34.0472106933594
38.6249885559082
45.3962821960449
42.0583190917969
39.1018409729004
38.4342460632324
40.1509132385254
43.4888763427734
37.1944313049316
32.4259147644043
35.0962867736816
35.0009155273438
36.6222114562988
41.7722091674805
45.1101722717285
41.1046180725098
36.1453590393066
38.7203598022461
40.913875579834
39.9601707458496
37.0036926269531
35.1916542053223
39.5786895751953
38.9110984802246
31.5675830841064
29.1833248138428
32.6166572570801
38.6249885559082
43.2981338500977
39.6740608215332
34.9055442810059
36.9083213806152
41.5814666748047
49.6879463195801
51.5953521728516
50.4509086608887
57.7944259643555
58.3666496276855
52.0722045898438
52.7397994995117
50.1647987365723
37.1944313049316
29.9462871551514
30.2323970794678
25.9407329559326
19.360179901123
9.72777462005615
-1.23981440067291
-3.24259161949158
-2.38425850868225
-0.47685170173645
3.91018390655518
-3.43333220481873
-10.9675893783569
-6.00833129882813
-8.58333015441895
-14.1148099899292
-11.3490705490112
-12.8749961853027
-16.7851791381836
-15.0685138702393
-12.1120328903198
-8.77407169342041
-5.24536848068237
-5.62685012817383
-4.29166507720947
-2.38425850868225
-3.147221326828
-5.05462789535522
-10.4907369613647
-10.2999963760376
-5.34073925018311
-8.67870044708252
-10.8722190856934
-4.7685170173645
-0.381481349468231
1.04907369613647
0
-4.95925760269165
-6.58055353164673
-5.34073925018311
-4.1962947845459
-2.5749990940094
-5.34073925018311
-5.43610954284668
-5.1499981880188
-11.8259220123291
-18.0249938964844
-29.9462871551514
-58.2712783813477
-99.0897827148438
-136.188842773438
-156.979583740234
-177.198089599609
-221.736038208008
-275.81103515625
-308.332305908203
-326.261932373047
-320.158233642578
-239.188812255859
-66.9499816894531
145.725875854492
334.654510498047
519.100769042969
694.677551269531
829.435852050781
994.998779296875
1156.55615234375
1188.12365722656
1084.93298339844
908.974731445313
676.843322753906
413.144317626953
247.104553222656
207.525863647461
123.886070251465
-56.7453536987305
-205.523086547852
-275.143432617188
-302.133239746094
-311.956390380859
-328.073974609375
-362.884155273438
-411.332275390625
-449.289672851563
-475.135040283203
-491.347991943359
-491.538726806641
-475.707244873047
-443.376708984375
-408.089691162109
-376.998962402344
-349.818420410156
-336.848052978516
-340.758209228516
-351.535064697266
-360.785980224609
-360.881378173828
-346.385070800781
-323.591552734375
-293.740661621094
-255.401763916016
-222.308258056641
-208.956420898438
-212.389739990234
-213.915664672852
-211.054565429688
-209.814743041992
-202.85270690918
-185.209197998047
-161.461990356445
-136.284210205078
-111.583297729492
-90.5064544677734
-82.0184936523438
-86.6916351318359
-90.4110794067383
-87.7407150268555
-83.6397857666016
-72.2907180786133
-51.0231323242188
-31.8536930084229
-15.5453653335571
-4.10092449188232
0.190740674734116
3.5287024974823
7.0574049949646
7.43888664245605
4.57777643203735
8.10647869110107
19.074068069458
28.4203605651855
37.8620262145996
49.783317565918
59.701831817627
61.7999801635742
57.0314636230469
51.9768333435059
51.7860946655273
59.7972030639648
68.4759063720703
70.0018310546875
69.5249786376953
72.1953506469727
77.9175643920898
86.0240478515625
90.220344543457
88.2175674438477
88.7897872924805
90.5064544677734
89.6481170654297
85.6425628662109
82.1138610839844
87.2638626098633
92.6045989990234
92.4138565063477
94.8934860229492
101.092559814453
103.667556762695
95.9425582885742
89.1712646484375
95.1795959472656
91.3647842407227
80.2064590454102
81.9231185913086
82.6860809326172
82.5907135009766
90.1249694824219
93.4629364013672
88.2175674438477
84.4981231689453
80.8740463256836
71.5277557373047
63.8027572631836
62.5629425048828
65.805534362793
70.9555358886719
76.5823822021484
80.5879364013672
80.778678894043
76.6777496337891
73.4351654052734
70.7647933959961
62.7536849975586
59.2249794006348
62.8490524291992
64.5657196044922
69.9064559936523
78.2036819458008
85.8333053588867
92.1277465820313
88.3129348754883
82.2092361450195
84.1166381835938
82.876823425293
81.827751159668
87.1684875488281
88.4083023071289
90.4110794067383
96.2286758422852
97.7546005249023
98.0407104492188
97.4684906005859
91.0786743164063
88.2175674438477
90.5064544677734
91.3647842407227
94.7981185913086
100.997192382813
102.046264648438
99.6620025634766
95.9425582885742
90.5064544677734
86.7870101928711
85.9286727905273
84.4027481079102
81.4462738037109
82.1138610839844
88.8851547241211
92.6999740600586
90.220344543457
89.0758972167969
88.5036773681641
82.5907135009766
71.7184982299805
66.1870193481445
64.1842422485352
57.7944259643555
56.8407211303711
59.4157218933105
56.0777587890625
50.832389831543
43.9657249450684
34.9055442810059
30.4231376647949
23.7472152709961
13.1611070632935
10.1092557907104
4.38703584671021
-0.190740674734116
4.10092449188232
0.572222054004669
-9.63240432739258
-16.4990692138672
-20.8861045837402
-27.4666576385498
-35.4777679443359
-39.6740608215332
-41.3907279968262
-44.3472061157227
-48.2573928833008
-50.2601699829102
-53.7888717651367
-64.5657196044922
-72.1953506469727
-75.1518249511719
-78.9666442871094
-80.2064590454102
-80.0157165527344
-80.3018264770508
-81.7323837280273
-86.5009002685547
-90.1249694824219
-89.9342269897461
-90.6018218994141
-97.9453353881836
-104.907371520996
-100.52033996582
-92.6999740600586
-92.7953414916992
-95.751823425293
-96.7055282592773
-101.950889587402
-103.095336914063
-97.849967956543
-98.9944152832031
-102.61848449707
-100.234230041504
-96.3240432739258
-96.800895690918
-98.8036727905273
-96.5147857666016
-90.9833068847656
-88.6944122314453
-93.8444137573242
-98.7083053588867
-100.234230041504
-99.948112487793
-92.8907089233398
-89.0758972167969
-91.7462692260742
-89.0758972167969
-87.3592300415039
-87.8360824584961
-81.0647888183594
-78.394416809082
-82.0184936523438
-79.06201171875
-76.1055297851563
-78.394416809082
-77.9175643920898
-77.1546020507813
-79.729606628418
-78.394416809082
-74.1027526855469
-75.0564575195313
-70.8601608276367
-60.274055480957
-59.9879455566406
-62.5629425048828
-56.6499824523926
-53.5981292724609
-55.1240577697754
-49.2110939025879
-42.8212814331055
-45.2055397033691
-47.2083168029785
-45.3962821960449
-43.7749862670898
-42.3444290161133
-42.2490615844727
-41.1999855041504
-34.7148017883301
-27.8481388092041
-24.6055469512939
-21.5536975860596
-22.8888816833496
-27.7527694702148
-25.4638805389404
-22.9842510223389
-26.3222141265869
-26.226842880249
-25.7499923706055
-25.4638805389404
-20.3138828277588
-15.35462474823
-10.7768487930298
-6.96203470230103
-3.91018390655518
-2.00277709960938
-3.5287024974823
-5.24536848068237
-4.86388731002808
-3.71944332122803
-3.24259161949158
-1.62129580974579
0.572222054004669
1.9074068069458
7.24814605712891
11.3490705490112
7.53425693511963
6.96203470230103
10.6814785003662
6.77129411697388
2.5749990940094
8.20184898376465
12.8749961853027
13.1611070632935
19.4555492401123
25.2731399536133
21.6490669250488
16.6898097991943
18.5018463134766
22.9842510223389
21.3629570007324
20.1231422424316
24.5101776123047
24.4148063659668
26.0361022949219
33.2842483520508
33.3796195983887
30.4231376647949
31.3768424987793
28.1342506408691
22.5074005126953
23.5564746856689
28.3249912261963
33.6657295227051
38.0527648925781
37.3851737976074
32.7120246887207
30.5185089111328
36.6222114562988
42.0583190917969
37.6712837219238
33.6657295227051
38.4342460632324
39.1018409729004
39.6740608215332
43.0120239257813
39.4833221435547
36.431468963623
37.1944313049316
39.197208404541
42.7259140014648
43.2981338500977
40.0555419921875
39.864803314209
43.8703575134277
45.300910949707
44.3472061157227
39.1018409729004
30.2323970794678
29.5648059844971
27.943510055542
24.7962875366211
32.5212860107422
38.2435073852539
40.4370231628418
41.8675804138184
34.5240631103516
28.3249912261963
28.5157318115234
32.4259147644043
35.382396697998
31.2814712524414
27.8481388092041
31.6629524230957
34.2379531860352
30.8999900817871
26.4175834655762
25.8453617095947
30.3277683258057
34.5240631103516
32.4259147644043
28.9925842285156
25.4638805389404
23.4611034393311
29.0879535675049
31.4722118377686
29.1833248138428
30.2323970794678
29.278694152832
27.657398223877
25.177770614624
20.6953639984131
19.5509204864502
24.9870281219482
28.7064723968506
25.8453617095947
26.3222141265869
32.2351760864258
35.1916542053223
34.5240631103516
34.7148017883301
40.5323944091797
48.2573928833008
50.1647987365723
53.121280670166
53.9796104431152
41.0092468261719
28.8972129821777
25.177770614624
18.8833274841309
14.1148099899292
13.6379585266113
9.15555286407471
0.47685170173645
-1.23981440067291
0
-1.52592539787292
-3.24259161949158
-9.06018257141113
-14.4962921142578
-13.256477355957
-14.5916624069214
-16.7851791381836
-16.30832862854
-21.839807510376
-22.6981410980225
-13.7333288192749
-9.63240432739258
-9.82314491271973
-8.58333015441895
-7.0574049949646
-6.29444265365601
-11.1583299636841
-16.4990692138672
-16.7851791381836
-17.0712909698486
-17.357400894165
-17.6435127258301
-17.0712909698486
-12.2074031829834
-6.77129411697388
-3.43333220481873
-4.48240613937378
-8.0111083984375
-8.3925895690918
-10.5861072540283
-13.5425882339478
-10.2999963760376
-9.44166374206543
-10.4907369613647
-6.48518323898315
-6.19907188415527
-9.15555286407471
-13.6379585266113
-28.8018417358398
-63.6120147705078
-108.436073303223
-142.101806640625
-162.224945068359
-182.252716064453
-224.215667724609
-279.72119140625
-310.621185302734
-324.449890136719
-322.447113037109
-248.439727783203
-74.0073852539063
144.581436157227
331.602661132813
509.849822998047
676.271057128906
803.4951171875
972.682067871094
1138.62646484375
1161.61071777344
1051.4580078125
881.221923828125
655.384948730469
397.026733398438
248.725845336914
221.926788330078
126.747184753418
-59.701831817627
-198.179565429688
-263.126770019531
-293.263793945313
-308.523040771484
-325.880462646484
-352.393402099609
-393.021179199219
-432.981353759766
-460.066528320313
-476.374847412109
-476.756317138672
-459.685028076172
-429.643371582031
-396.645233154297
-365.745239257813
-341.7119140625
-331.602661132813
-333.510070800781
-343.523956298828
-353.919342041016
-352.965637207031
-336.657287597656
-305.280456542969
-270.088806152344
-243.003631591797
-218.779556274414
-201.422164916992
-202.471237182617
-207.43049621582
-205.809188842773
-205.332336425781
-195.032348632813
-168.996246337891
-140.766616821289
-113.776817321777
-96.13330078125
-84.9749755859375
-72.7675704956055
-72.2907180786133
-77.8221969604492
-81.2555313110352
-79.1573791503906
-64.9472045898438
-49.8786888122559
-35.8592491149902
-17.1666603088379
-7.82036781311035
-7.24814605712891
-1.23981440067291
6.6759238243103
6.19907188415527
5.7222204208374
12.9703664779663
21.2675857543945
31.2814712524414
40.4370231628418
45.9685020446777
54.170352935791
59.8925743103027
56.3638725280762
57.2222023010254
64.5657196044922
64.756462097168
64.4703521728516
67.5222015380859
72.6721954345703
79.5388641357422
84.2120132446289
81.827751159668
80.2064590454102
85.4518280029297
87.3592300415039
85.5471954345703
85.7379379272461
88.0268249511719
89.4573822021484
87.0731201171875
86.4055252075195
91.4601593017578
99.5666351318359
103.095336914063
98.899040222168
94.1305236816406
90.1249694824219
81.3508987426758
75.4379425048828
78.2036819458008
82.0184936523438
82.4953460693359
81.2555313110352
84.4981231689453
87.6453399658203
82.3999710083008
76.7731246948242
71.2416458129883
62.0860900878906
59.7972030639648
62.4675712585449
64.0888671875
67.6175689697266
71.9092330932617
74.7703475952148
78.4897918701172
81.827751159668
77.6314544677734
66.6638641357422
58.4620170593262
58.2712783813477
61.7046089172363
67.3314590454102
76.5823822021484
83.6397857666016
86.5009002685547
86.6916351318359
82.876823425293
78.5851593017578
78.8712692260742
80.0157165527344
77.9175643920898
79.729606628418
85.5471954345703
88.5990447998047
92.2231216430664
97.4684906005859
97.6592254638672
90.0296020507813
84.5934906005859
86.9777526855469
86.7870101928711
86.9777526855469
94.5120086669922
99.3758926391602
101.283302307129
102.046264648438
97.4684906005859
92.4138565063477
88.8851547241211
81.5416412353516
76.3916397094727
77.6314544677734
80.3018264770508
82.7814559936523
84.3073806762695
84.9749755859375
82.7814559936523
76.5823822021484
70.5740509033203
67.1407165527344
64.1842422485352
57.2222023010254
51.9768333435059
55.0286865234375
57.8897972106934
55.1240577697754
51.2138710021973
44.7286911010742
32.9027671813965
20.6953639984131
14.687032699585
14.9731435775757
10.4907369613647
0.9537034034729
1.14444410800934
4.38703584671021
1.14444410800934
-1.33518481254578
-8.96481227874756
-23.2703628540039
-32.9981384277344
-35.7638778686523
-35.382396697998
-39.2925796508789
-44.7286911010742
-46.7314682006836
-48.8296127319336
-51.4999847412109
-52.5490570068359
-59.701831817627
-68.5712738037109
-70.7647933959961
-71.6231231689453
-71.6231231689453
-71.5277557373047
-70.9555358886719
-67.3314590454102
-73.0536804199219
-84.9749755859375
-88.2175674438477
-88.9805297851563
-90.8879318237305
-90.5064544677734
-91.3647842407227
-91.5555267333984
-93.6536712646484
-96.800895690918
-97.6592254638672
-98.5175628662109
-96.9916381835938
-97.849967956543
-102.427742004395
-104.812004089355
-105.288856506348
-103.190704345703
-101.283302307129
-98.4221878051758
-92.6999740600586
-94.03515625
-97.182373046875
-92.0323791503906
-92.986083984375
-101.283302307129
-102.237007141113
-98.6129302978516
-97.3731155395508
-95.2749710083008
-91.269416809082
-88.2175674438477
-86.4055252075195
-85.6425628662109
-82.0184936523438
-77.1546020507813
-75.4379425048828
-76.3916397094727
-76.2009048461914
-71.7184982299805
-71.2416458129883
-72.4814605712891
-65.9962768554688
-61.1323890686035
-60.9416465759277
-59.1296119689941
-58.0805358886719
-54.5518341064453
-51.6907234191895
-57.7944259643555
-56.8407211303711
-50.832389831543
-52.6444282531738
-52.7397994995117
-49.5925750732422
-45.1101722717285
-38.148136138916
-38.5296173095703
-45.3962821960449
-44.5379486083984
-35.4777679443359
-29.6601753234863
-28.8972129821777
-24.1286964416504
-16.7851791381836
-18.5972156524658
-19.360179901123
-14.1148099899292
-17.9296245574951
-24.5101776123047
-22.9842510223389
-19.8370304107666
-21.4583263397217
-17.8342533111572
-8.77407169342041
-6.6759238243103
-10.3953666687012
-12.3981437683105
-10.2999963760376
-9.44166374206543
-9.82314491271973
-10.5861072540283
-10.6814785003662
-4.48240613937378
2.67036962509155
7.15277528762817
11.3490705490112
9.25092315673828
6.1037015914917
8.29721927642822
7.72499752044678
8.67870044708252
13.4472179412842
14.5916624069214
15.6407356262207
20.2185115814209
22.3166599273682
22.8888816833496
25.5592517852783
25.5592517852783
23.1749935150146
22.0305480957031
20.7907333374023
21.5536975860596
25.6546211242676
30.3277683258057
33.5703582763672
30.6138782501221
24.0333251953125
22.6981410980225
22.125919342041
19.074068069458
19.2648086547852
21.7444381713867
20.9814739227295
21.0768451690674
27.8481388092041
32.8073959350586
34.2379531860352
35.8592491149902
32.7120246887207
29.6601753234863
31.1861019134521
31.6629524230957
31.6629524230957
32.2351760864258
34.0472106933594
33.0935096740723
31.2814712524414
34.7148017883301
33.8564720153809
30.995361328125
34.7148017883301
33.3796195983887
28.2296199798584
31.1861019134521
38.6249885559082
43.1073951721191
41.1046180725098
39.0064697265625
42.1536903381348
45.0148010253906
43.0120239257813
37.3851737976074
32.3305435180664
34.810173034668
40.2462844848633
41.6768379211426
41.1046180725098
40.6277656555176
37.1944313049316
32.1398048400879
34.3333206176758
38.2435073852539
34.7148017883301
34.0472106933594
34.9055442810059
31.5675830841064
30.995361328125
32.5212860107422
31.2814712524414
30.6138782501221
35.2870254516602
39.9601707458496
39.9601707458496
39.6740608215332
42.4398002624512
39.7694320678711
33.5703582763672
38.7203598022461
46.1592445373535
42.7259140014648
37.099063873291
34.2379531860352
33.5703582763672
38.9110984802246
40.2462844848633
34.5240631103516
41.962947845459
54.2657241821289
52.6444282531738
50.0694274902344
48.734245300293
38.3388748168945
27.2759170532227
21.3629570007324
15.35462474823
10.2999963760376
9.82314491271973
3.8148136138916
-2.67036962509155
-1.71666610240936
-0.858333051204681
1.14444410800934
3.91018390655518
0.667592406272888
-2.76573991775513
-6.86666440963745
-13.256477355957
-14.2101802825928
-14.2101802825928
-16.4990692138672
-12.8749961853027
-5.53147983551025
-2.00277709960938
-3.8148136138916
-4.48240613937378
-6.38981294631958
-13.5425882339478
-14.0194396972656
-9.63240432739258
-11.7305517196655
-17.9296245574951
-18.8833274841309
-12.4935140609741
-5.91296100616455
-1.14444410800934
1.81203651428223
1.62129580974579
-0.858333051204681
-5.53147983551025
-7.91573810577393
-7.34351634979248
-11.2537002563477
-14.8777732849121
-12.4935140609741
-12.302773475647
-10.5861072540283
-4.7685170173645
-7.34351634979248
-21.5536975860596
-46.4453544616699
-85.1657104492188
-125.888847351074
-149.445327758789
-165.467544555664
-204.187896728516
-261.791595458984
-298.223052978516
-311.956390380859
-323.114715576172
-292.977691650391
-169.091613769531
27.4666576385498
219.065673828125
391.781341552734
547.807250976563
666.3525390625
814.558044433594
981.456176757813
1051.83947753906
997.764465332031
869.109924316406
691.721069335938
445.856353759766
259.121215820313
254.161956787109
220.210113525391
37.3851737976074
-119.975891113281
-194.174011230469
-228.507339477539
-239.856399536133
-255.401763916016
-282.677673339844
-326.166564941406
-378.715606689453
-415.528564453125
-433.458190917969
-438.798919677734
-423.062835693359
-387.871185302734
-355.445251464844
-334.368408203125
-315.771209716797
-302.610076904297
-303.849914550781
-314.626739501953
-322.923980712891
-321.684143066406
-310.716552734375
-288.495269775391
-256.641571044922
-225.169372558594
-205.713821411133
-192.648086547852
-185.495315551758
-189.691604614258
-190.836044311523
-185.590682983398
-179.296234130859
-164.895324707031
-145.630508422852
-125.602737426758
-100.997192382813
-83.2583084106445
-77.6314544677734
-76.9638671875
-81.16015625
-83.5444183349609
-76.2009048461914
-63.4212760925293
-48.734245300293
-33.3796195983887
-17.4527721405029
-5.24536848068237
-1.23981440067291
-0.47685170173645
-5.05462789535522
-7.0574049949646
-0.47685170173645
2.67036962509155
6.58055353164673
18.0249938964844
29.1833248138428
35.8592491149902
37.1944313049316
36.8129501342773
40.8185043334961
48.1620216369629
51.2138710021973
50.5462799072266
52.8351669311523
56.8407211303711
59.8925743103027
64.0888671875
71.6231231689453
79.1573791503906
78.2990493774414
75.1518249511719
77.345344543457
80.0157165527344
73.9120101928711
69.0481262207031
76.7731246948242
77.5360870361328
71.5277557373047
76.296272277832
84.8796005249023
86.5009002685547
83.925895690918
83.8305282592773
79.6342315673828
72.1953506469727
70.7647933959961
69.3342361450195
70.6694183349609
75.1518249511719
77.6314544677734
81.5416412353516
81.2555313110352
75.9147872924805
74.1027526855469
74.0073852539063
70.2879409790039
62.0860900878906
57.4129447937012
61.323127746582
68.7620162963867
73.9120101928711
75.0564575195313
74.2934951782227
75.0564575195313
73.7212753295898
70.7647933959961
64.8518295288086
59.5110931396484
66.2823867797852
72.7675704956055
72.2907180786133
79.1573791503906
84.4027481079102
81.2555313110352
79.4434967041016
77.2499771118164
77.0592346191406
76.2009048461914
75.3425674438477
83.0675659179688
88.8851547241211
89.7434921264648
93.9397811889648
95.2749710083008
90.3157119750977
80.5879364013672
71.8138656616211
72.6721954345703
76.6777496337891
77.8221969604492
82.3046035766602
88.5990447998047
88.6944122314453
82.5907135009766
79.1573791503906
74.6749725341797
67.903678894043
67.5222015380859
71.5277557373047
75.8194198608398
79.9203414916992
81.9231185913086
78.5851593017578
76.2009048461914
74.198127746582
66.2823867797852
60.0833129882813
55.6962776184082
45.5870208740234
37.7666549682617
36.2407302856445
34.3333206176758
34.5240631103516
38.2435073852539
35.9546165466309
28.9925842285156
21.1722145080566
15.6407356262207
13.3518476486206
4.95925760269165
-3.147221326828
0.667592406272888
5.05462789535522
4.38703584671021
1.23981440067291
-9.82314491271973
-17.5481433868408
-17.0712909698486
-25.7499923706055
-35.9546165466309
-36.0499877929688
-39.9601707458496
-44.0610961914063
-41.4860992431641
-44.4425773620605
-48.8296127319336
-53.5027618408203
-66.4731292724609
-72.0999755859375
-71.4323883056641
-74.7703475952148
-73.0536804199219
-70.0018310546875
-71.3370132446289
-74.198127746582
-78.8712692260742
-80.778678894043
-80.778678894043
-84.3073806762695
-88.6944122314453
-89.5527496337891
-87.1684875488281
-88.9805297851563
-89.6481170654297
-85.3564529418945
-86.8823776245117
-91.3647842407227
-96.2286758422852
-93.5583038330078
-86.8823776245117
-90.7925643920898
-91.9370040893555
-90.9833068847656
-94.416633605957
-88.7897872924805
-79.6342315673828
-74.0073852539063
-71.8138656616211
-73.3397903442383
-73.5305328369141
-72.9583129882813
-74.5796051025391
-77.2499771118164
-78.2036819458008
-73.8166427612305
-70.4786834716797
-72.9583129882813
-77.4407196044922
-76.3916397094727
-70.1925735473633
-69.2388687133789
-70.1925735473633
-71.4323883056641
-75.247200012207
-72.0999755859375
-65.2333145141602
-60.6555366516113
-58.8434982299805
-59.4157218933105
-57.6990547180176
-56.7453536987305
-51.4999847412109
-43.9657249450684
-47.017578125
-48.8296127319336
-46.4453544616699
-49.3064651489258
-46.0638732910156
-34.6194343566895
-28.7064723968506
-31.1861019134521
-33.9518394470215
-31.0907306671143
-29.1833248138428
-33.0935096740723
-32.3305435180664
-26.7036952972412
-20.5999927520752
-17.5481433868408
-20.9814739227295
-22.4120292663574
-22.5074005126953
-21.839807510376
-16.6898097991943
-14.0194396972656
-14.3055505752563
-16.4036979675293
-19.7416610717773
-14.7824029922485
-5.24536848068237
-4.00555419921875
-6.96203470230103
-9.06018257141113
-13.9240694046021
-13.256477355957
-8.20184898376465
-6.38981294631958
-1.9074068069458
0
-3.71944332122803
2.28888821601868
7.91573810577393
3.147221326828
1.04907369613647
-0.47685170173645
-1.14444410800934
2.38425850868225
3.71944332122803
4.1962947845459
8.0111083984375
11.635181427002
13.5425882339478
14.687032699585
13.7333288192749
12.302773475647
12.302773475647
14.3055505752563
14.9731435775757
11.5398111343384
11.8259220123291
21.6490669250488
27.7527694702148
25.2731399536133
25.4638805389404
24.9870281219482
21.839807510376
21.2675857543945
22.7935104370117
30.70924949646
34.6194343566895
28.4203605651855
30.0416564941406
32.9027671813965
27.943510055542
29.0879535675049
30.70924949646
27.4666576385498
26.0361022949219
21.7444381713867
21.0768451690674
26.8944358825684
26.7990646362305
28.3249912261963
34.0472106933594
34.4286918640137
34.6194343566895
33.9518394470215
30.2323970794678
29.4694347381592
31.7583236694336
32.2351760864258
34.1425819396973
36.3360977172852
38.148136138916
37.099063873291
32.6166572570801
32.8073959350586
31.5675830841064
24.7009181976318
21.5536975860596
23.7472152709961
31.0907306671143
44.1564674377441
53.0259094238281
52.6444282531738
55.0286865234375
60.8462753295898
60.5601654052734
59.701831817627
59.8925743103027
57.0314636230469
48.4481315612793
33.4749908447266
23.0796222686768
22.0305480957031
19.7416610717773
15.1638841629028
14.8777732849121
16.7851791381836
17.357400894165
18.9786968231201
18.8833274841309
11.2537002563477
2.95648050308228
1.23981440067291
1.43055510520935
-0.667592406272888
-5.24536848068237
-7.43888664245605
-5.1499981880188
-1.14444410800934
5.05462789535522
10.204626083374
10.8722190856934
8.96481227874756
3.05185079574585
0
2.47962880134583
2.47962880134583
3.147221326828
5.34073925018311
4.67314672470093
8.77407169342041
14.4009208679199
12.1120328903198
8.48795986175537
5.05462789535522
0
0
5.05462789535522
8.48795986175537
8.67870044708252
8.3925895690918
7.0574049949646
6.86666440963745
7.72499752044678
-6.1037015914917
-37.1944313049316
-76.4870147705078
-120.73885345459
-150.017547607422
-157.456436157227
-177.961059570313
-230.70085144043
-280.102691650391
-293.073059082031
-293.073059082031
-287.350830078125
-202.185119628906
-8.0111083984375
199.610122680664
374.423950195313
539.033142089844
665.208129882813
779.84326171875
921.563598632813
1031.90710449219
1045.16357421875
960.951538085938
806.737731933594
575.559997558594
371.562835693359
312.814727783203
252.826766967773
77.4407196044922
-80.6833038330078
-163.369384765625
-209.147155761719
-228.030487060547
-249.584182739258
-278.195281982422
-308.999908447266
-346.861938476563
-384.723937988281
-411.141540527344
-406.182281494141
-381.481353759766
-362.121185302734
-342.760986328125
-321.779541015625
-311.098052978516
-310.811950683594
-313.863800048828
-315.103607177734
-309.095275878906
-296.124908447266
-283.917510986328
-270.374908447266
-246.913803100586
-222.594375610352
-206.858261108398
-195.795303344727
-189.310119628906
-186.544387817383
-183.111053466797
-177.102722167969
-166.039764404297
-154.118469238281
-139.717544555664
-119.308296203613
-108.245338439941
-106.814781188965
-100.234230041504
-90.6971969604492
-84.1166381835938
-77.7268295288086
-70.9555358886719
-60.3694267272949
-44.7286911010742
-35.6685066223145
-30.0416564941406
-18.1203651428223
-6.6759238243103
-3.24259161949158
-3.147221326828
0.0953703373670578
-0.381481349468231
-2.09814739227295
6.1037015914917
16.022216796875
25.9407329559326
34.6194343566895
35.9546165466309
39.6740608215332
44.8240585327148
43.2981338500977
45.2055397033691
49.4018363952637
50.355541229248
55.0286865234375
59.3203506469727
62.6583137512207
69.9064559936523
70.6694183349609
66.1870193481445
66.4731292724609
71.2416458129883
74.6749725341797
73.2444229125977
74.2934951782227
77.6314544677734
77.2499771118164
78.7759017944336
80.9694213867188
81.6370086669922
85.2610855102539
87.4546051025391
84.0212707519531
77.7268295288086
71.1462707519531
66.7592391967773
65.6147918701172
69.6203460693359
74.5796051025391
73.4351654052734
69.6203460693359
68.1897964477539
67.1407165527344
63.4212760925293
60.4647941589355
57.1268348693848
53.8842430114746
55.219425201416
57.0314636230469
60.1786842346191
66.1870193481445
69.2388687133789
66.9499816894531
63.4212760925293
62.7536849975586
62.1814613342285
59.3203506469727
58.2712783813477
60.9416465759277
64.756462097168
69.5249786376953
74.1027526855469
77.345344543457
77.4407196044922
71.1462707519531
68.4759063720703
71.5277557373047
71.9092330932617
73.8166427612305
79.1573791503906
81.16015625
81.9231185913086
85.5471954345703
86.4055252075195
81.16015625
73.3397903442383
66.1870193481445
64.6610870361328
64.2796096801758
64.756462097168
73.1490478515625
77.2499771118164
76.1055297851563
78.1083068847656
74.198127746582
70.8601608276367
72.5768280029297
67.6175689697266
60.1786842346191
58.5573883056641
57.4129447937012
54.5518341064453
55.1240577697754
58.7481307983398
58.0805358886719
52.9305381774902
47.8759117126465
45.300910949707
44.1564674377441
38.4342460632324
31.6629524230957
30.8046188354492
34.3333206176758
35.8592491149902
32.8073959350586
26.0361022949219
17.0712909698486
10.0138854980469
6.29444265365601
4.10092449188232
2.47962880134583
-2.67036962509155
-8.86944198608398
-9.44166374206543
-9.72777462005615
-17.8342533111572
-26.4175834655762
-30.4231376647949
-34.3333206176758
-37.4805450439453
-38.148136138916
-39.1018409729004
-43.0120239257813
-50.7370223999023
-57.2222023010254
-57.5083160400391
-56.5546112060547
-60.6555366516113
-68.4759063720703
-70.9555358886719
-69.4296035766602
-69.6203460693359
-67.9990539550781
-68.0944213867188
-69.7157211303711
-69.9064559936523
-73.7212753295898
-76.1055297851563
-75.0564575195313
-80.3971939086914
-85.9286727905273
-84.8796005249023
-86.2147903442383
-86.1194152832031
-83.2583084106445
-86.3101577758789
-88.5990447998047
-85.8333053588867
-82.2092361450195
-78.4897918701172
-77.345344543457
-81.6370086669922
-82.2092361450195
-77.9175643920898
-77.8221969604492
-77.1546020507813
-74.9610900878906
-76.3916397094727
-74.6749725341797
-73.5305328369141
-75.4379425048828
-72.3860855102539
-70.5740509033203
-70.9555358886719
-65.9009017944336
-62.0860900878906
-62.2768325805664
-59.5110931396484
-57.3175735473633
-58.5573883056641
-57.0314636230469
-56.0777587890625
-60.9416465759277
-62.5629425048828
-59.1296119689941
-57.1268348693848
-54.0749816894531
-51.8814659118652
-51.8814659118652
-51.6907234191895
-50.5462799072266
-47.3990592956543
-44.1564674377441
-41.2953567504883
-38.4342460632324
-37.3851737976074
-38.5296173095703
-39.0064697265625
-36.431468963623
-31.5675830841064
-28.4203605651855
-29.0879535675049
-29.8509159088135
-29.6601753234863
-24.2240657806396
-21.3629570007324
-26.7036952972412
-25.5592517852783
-20.6953639984131
-17.6435127258301
-13.7333288192749
-14.1148099899292
-11.7305517196655
-8.29721927642822
-13.0657367706299
-12.6842555999756
-9.44166374206543
-14.4962921142578
-13.7333288192749
-6.86666440963745
-4.10092449188232
-4.86388731002808
-6.19907188415527
-3.33796191215515
-2.38425850868225
-3.43333220481873
0.190740674734116
0.858333051204681
-1.62129580974579
0.762962698936462
6.29444265365601
7.15277528762817
4.38703584671021
5.1499981880188
4.38703584671021
4.1962947845459
8.86944198608398
13.5425882339478
13.4472179412842
13.7333288192749
18.2157344818115
17.357400894165
16.30832862854
17.6435127258301
11.5398111343384
7.72499752044678
12.1120328903198
17.9296245574951
23.2703628540039
26.1314735412598
25.8453617095947
23.5564746856689
23.3657341003418
29.0879535675049
33.8564720153809
31.5675830841064
27.7527694702148
28.8018417358398
33.3796195983887
35.5731353759766
38.8157272338867
41.3907279968262
37.2898025512695
31.8536930084229
30.2323970794678
37.7666549682617
48.734245300293
50.5462799072266
48.1620216369629
49.4972076416016
55.5055389404297
60.7509078979492
62.0860900878906
62.0860900878906
56.936092376709
45.3962821960449
27.943510055542
17.5481433868408
18.0249938964844
12.8749961853027
8.67870044708252
11.0629596710205
7.6296272277832
8.0111083984375
13.3518476486206
10.204626083374
4.57777643203735
1.71666610240936
0.667592406272888
1.33518481254578
-0.762962698936462
0.47685170173645
1.71666610240936
0.0953703373670578
3.147221326828
5.91296100616455
6.1037015914917
10.6814785003662
17.4527721405029
16.1175880432129
10.3953666687012
6.96203470230103
7.15277528762817
11.4444408416748
12.3981437683105
11.7305517196655
15.35462474823
16.6898097991943
16.4036979675293
19.1694374084473
18.4064750671387
15.7361059188843
15.5453653335571
11.3490705490112
5.91296100616455
6.00833129882813
10.5861072540283
16.30832862854
15.6407356262207
9.15555286407471
-3.33796191215515
-33.761100769043
-78.2036819458008
-118.73607635498
-146.298095703125
-159.173095703125
-181.966613769531
-242.145294189453
-293.740661621094
-304.422119140625
-304.136016845703
-271.519348144531
-146.011993408203
70.3833084106445
282.200836181641
461.306335449219
652.333129882813
804.067321777344
947.981201171875
1130.90148925781
1229.60974121094
1185.64404296875
1050.31359863281
855.281188964844
606.4599609375
389.301727294922
286.778625488281
179.010131835938
-12.4935140609741
-178.247161865234
-271.137878417969
-318.536926269531
-337.229522705078
-352.774871826172
-370.418395996094
-398.552642822266
-442.232269287109
-471.987823486328
-482.860015869141
-486.293365478516
-474.848907470703
-454.725769042969
-431.455413818359
-402.462829589844
-378.23876953125
-361.930450439453
-353.728576660156
-353.442474365234
-353.537841796875
-354.300811767578
-348.769317626953
-329.218414306641
-303.659149169922
-276.383239746094
-249.011962890625
-227.458267211914
-213.72492980957
-205.523086547852
-200.468460083008
-199.610122680664
-195.604568481445
-180.440689086914
-160.794387817383
-137.428665161133
-109.866630554199
-96.800895690918
-92.2231216430664
-82.876823425293
-82.1138610839844
-83.1629333496094
-75.4379425048828
-67.6175689697266
-56.8407211303711
-42.1536903381348
-30.4231376647949
-15.5453653335571
-2.00277709960938
1.62129580974579
5.34073925018311
9.25092315673828
7.34351634979248
13.1611070632935
26.9898052215576
34.2379531860352
37.8620262145996
44.1564674377441
51.404613494873
57.5083160400391
58.5573883056641
58.2712783813477
63.3259048461914
69.7157211303711
69.3342361450195
67.9990539550781
75.8194198608398
82.2092361450195
86.5009002685547
94.702751159668
96.13330078125
95.3703384399414
97.9453353881836
96.5147857666016
97.849967956543
97.849967956543
91.1740417480469
92.0323791503906
94.7981185913086
94.702751159668
98.1360778808594
98.4221878051758
98.4221878051758
101.092559814453
99.8527450561523
95.6564483642578
88.9805297851563
84.8796005249023
84.9749755859375
80.111083984375
74.9610900878906
78.394416809082
84.6888580322266
84.2120132446289
80.2064590454102
77.4407196044922
69.0481262207031
60.3694267272949
60.274055480957
61.5138702392578
63.4212760925293
66.854606628418
67.0453491210938
66.9499816894531
70.1925735473633
70.1925735473633
66.7592391967773
65.9962768554688
64.0888671875
62.8490524291992
70.0971984863281
78.5851593017578
82.9721984863281
90.0296020507813
96.7055282592773
91.8416366577148
81.4462738037109
78.2990493774414
75.9147872924805
73.2444229125977
76.9638671875
81.2555313110352
84.2120132446289
90.6971969604492
92.8907089233398
88.2175674438477
86.1194152832031
84.1166381835938
80.5879364013672
82.3999710083008
89.1712646484375
93.1768188476563
94.5120086669922
98.5175628662109
100.806449890137
99.5666351318359
97.5638580322266
94.03515625
96.0379333496094
99.2805252075195
96.4194107055664
91.9370040893555
90.5064544677734
92.2231216430664
92.5092315673828
90.9833068847656
89.7434921264648
81.0647888183594
67.4268264770508
60.1786842346191
56.936092376709
52.7397994995117
52.0722045898438
54.7425765991211
54.2657241821289
45.300910949707
35.9546165466309
30.8046188354492
21.5536975860596
12.302773475647
7.82036781311035
5.05462789535522
4.86388731002808
5.7222204208374
4.38703584671021
-1.04907369613647
-7.6296272277832
-15.4499950408936
-27.657398223877
-36.6222114562988
-38.9110984802246
-44.8240585327148
-53.5027618408203
-55.6962776184082
-53.9796104431152
-57.6990547180176
-65.9962768554688
-66.854606628418
-65.7101669311523
-72.3860855102539
-79.5388641357422
-85.1657104492188
-86.5009002685547
-82.5907135009766
-84.8796005249023
-91.0786743164063
-88.3129348754883
-84.7842330932617
-91.8416366577148
-98.4221878051758
-100.806449890137
-107.196258544922
-110.629592895508
-105.384223937988
-101.950889587402
-102.999969482422
-101.950889587402
-102.52311706543
-105.098114013672
-101.474044799805
-97.182373046875
-97.5638580322266
-98.2314529418945
-100.234230041504
-101.187927246094
-100.234230041504
-100.806449890137
-102.046264648438
-104.144409179688
-101.474044799805
-95.3703384399414
-94.702751159668
-96.6101531982422
-96.8962631225586
-98.9944152832031
-97.4684906005859
-90.3157119750977
-87.1684875488281
-85.5471954345703
-84.2120132446289
-85.7379379272461
-83.3536758422852
-79.8249740600586
-81.3508987426758
-82.3999710083008
-78.2036819458008
-69.9064559936523
-67.903678894043
-70.6694183349609
-67.3314590454102
-64.3749771118164
-63.8027572631836
-61.8953514099121
-56.6499824523926
-52.1675758361816
-56.6499824523926
-57.8897972106934
-51.7860946655273
-49.2110939025879
-45.8731346130371
-38.5296173095703
-33.761100769043
-33.2842483520508
-33.0935096740723
-33.0935096740723
-36.3360977172852
-39.5786895751953
-37.099063873291
-33.5703582763672
-33.761100769043
-31.4722118377686
-25.6546211242676
-22.8888816833496
-21.0768451690674
-19.1694374084473
-19.5509204864502
-19.6462898254395
-18.9786968231201
-18.5018463134766
-17.2620315551758
-15.5453653335571
-10.2999963760376
-7.15277528762817
-6.77129411697388
-3.24259161949158
-2.8611102104187
-5.05462789535522
-3.8148136138916
0.762962698936462
7.91573810577393
10.3953666687012
10.0138854980469
12.8749961853027
12.0166625976563
9.06018257141113
12.588885307312
15.1638841629028
12.3981437683105
10.7768487930298
13.1611070632935
17.5481433868408
20.5999927520752
24.9870281219482
29.3740653991699
26.7990646362305
20.409252166748
22.5074005126953
28.8018417358398
26.7036952972412
21.5536975860596
21.3629570007324
25.4638805389404
30.8999900817871
33.6657295227051
33.4749908447266
33.1888771057129
31.2814712524414
29.8509159088135
31.6629524230957
35.0962867736816
38.6249885559082
39.5786895751953
38.0527648925781
36.5268402099609
36.1453590393066
35.0009155273438
36.9083213806152
37.7666549682617
35.5731353759766
39.6740608215332
43.7749862670898
41.4860992431641
38.8157272338867
39.4833221435547
41.4860992431641
43.9657249450684
44.1564674377441
38.7203598022461
36.2407302856445
37.6712837219238
37.0036926269531
37.8620262145996
37.6712837219238
37.3851737976074
39.9601707458496
43.9657249450684
47.1129493713379
47.5897979736328
41.0092468261719
32.2351760864258
38.5296173095703
50.2601699829102
50.9277610778809
52.6444282531738
59.6064605712891
62.3722038269043
64.5657196044922
65.4240493774414
60.0833129882813
57.2222023010254
53.5027618408203
42.9166526794434
34.810173034668
26.0361022949219
17.2620315551758
14.0194396972656
9.25092315673828
5.53147983551025
6.48518323898315
8.86944198608398
16.1175880432129
21.839807510376
18.8833274841309
11.8259220123291
7.91573810577393
6.86666440963745
2.47962880134583
0.0953703373670578
1.9074068069458
-1.33518481254578
1.9074068069458
10.6814785003662
9.34629344940186
9.537034034729
12.588885307312
14.9731435775757
16.1175880432129
8.77407169342041
2.76573991775513
4.00555419921875
2.09814739227295
0.9537034034729
3.5287024974823
6.1037015914917
7.91573810577393
7.24814605712891
9.63240432739258
14.687032699585
12.302773475647
7.24814605712891
8.77407169342041
12.0166625976563
13.256477355957
14.8777732849121
11.1583299636841
1.81203651428223
-5.05462789535522
-24.3194370269775
-69.1434936523438
-118.926811218262
-146.011993408203
-156.502731323242
-192.361968994141
-256.546203613281
-297.650817871094
-313.673034667969
-318.441558837891
-261.982330322266
-112.918479919434
96.9916381835938
294.789733886719
472.464660644531
661.488647460938
811.6015625
969.439514160156
1161.03857421875
1239.71899414063
1163.04125976563
1006.44317626953
794.148803710938
523.010925292969
308.618408203125
244.052703857422
176.911987304688
-5.1499981880188
-181.68049621582
-276.192504882813
-317.106384277344
-328.360076904297
-340.948974609375
-370.704498291016
-413.048950195313
-453.390594482422
-481.715576171875
-499.263732910156
-500.026702880859
-490.298919677734
-470.461883544922
-436.033203125
-401.413757324219
-371.9443359375
-351.725799560547
-351.535064697266
-361.358215332031
-368.129516601563
-372.516540527344
-368.415618896484
-346.957305908203
-311.574890136719
-273.045288085938
-243.003631591797
-222.403625488281
-210.386962890625
-208.765670776367
-213.152709960938
-215.060119628906
-206.381408691406
-186.544387817383
-162.224945068359
-138.382369995117
-115.49348449707
-97.9453353881836
-87.5499725341797
-81.5416412353516
-85.0703430175781
-87.4546051025391
-79.3481216430664
-70.9555358886719
-59.5110931396484
-41.1046180725098
-22.3166599273682
-8.58333015441895
1.23981440067291
5.7222204208374
0
-6.77129411697388
-2.38425850868225
8.20184898376465
18.5972156524658
22.8888816833496
27.4666576385498
42.0583190917969
53.3120193481445
59.0342407226563
64.9472045898438
65.6147918701172
63.2305335998535
61.2277565002441
62.2768325805664
67.8083114624023
72.4814605712891
72.2907180786133
76.1055297851563
86.0240478515625
92.6045989990234
92.6999740600586
93.8444137573242
95.084228515625
89.3620071411133
88.1221923828125
95.1795959472656
96.8962631225586
96.2286758422852
96.13330078125
97.6592254638672
96.800895690918
88.7897872924805
86.0240478515625
85.1657104492188
82.876823425293
85.0703430175781
81.6370086669922
77.5360870361328
82.2092361450195
84.5934906005859
81.5416412353516
77.0592346191406
73.0536804199219
72.7675704956055
71.3370132446289
66.5684967041016
63.6120147705078
61.7999801635742
59.7972030639648
63.1351661682129
72.6721954345703
78.5851593017578
73.8166427612305
70.0971984863281
69.9064559936523
66.1870193481445
61.0370178222656
58.652759552002
60.0833129882813
64.0888671875
72.4814605712891
80.9694213867188
84.2120132446289
88.9805297851563
91.269416809082
85.5471954345703
81.16015625
80.3971939086914
80.3971939086914
83.8305282592773
86.8823776245117
91.3647842407227
98.1360778808594
98.8036727905273
96.9916381835938
99.1851501464844
96.13330078125
85.4518280029297
83.2583084106445
92.6045989990234
100.615707397461
104.525894165039
106.814781188965
106.147186279297
105.193481445313
102.52311706543
96.0379333496094
91.269416809082
88.5990447998047
86.2147903442383
84.9749755859375
90.4110794067383
98.0407104492188
98.2314529418945
92.2231216430664
85.4518280029297
81.7323837280273
74.1027526855469
64.6610870361328
63.7073860168457
63.4212760925293
61.7046089172363
61.7999801635742
57.5083160400391
49.2110939025879
44.5379486083984
39.2925796508789
27.8481388092041
15.35462474823
7.15277528762817
5.53147983551025
6.48518323898315
7.24814605712891
3.43333220481873
-3.24259161949158
-9.06018257141113
-17.9296245574951
-23.5564746856689
-31.2814712524414
-42.630542755127
-46.6360969543457
-49.783317565918
-49.6879463195801
-49.0203552246094
-55.6009063720703
-61.1323890686035
-64.756462097168
-69.5249786376953
-71.7184982299805
-75.9147872924805
-84.6888580322266
-85.0703430175781
-79.2527542114258
-82.3999710083008
-88.8851547241211
-88.5036773681641
-86.5009002685547
-89.5527496337891
-93.8444137573242
-96.800895690918
-101.187927246094
-99.7573776245117
-92.7953414916992
-94.416633605957
-97.6592254638672
-93.4629364013672
-91.8416366577148
-96.9916381835938
-100.234230041504
-101.569412231445
-109.199035644531
-114.444404602051
-112.060150146484
-111.678665161133
-105.479598999023
-94.03515625
-92.7953414916992
-94.8934860229492
-93.2721939086914
-93.6536712646484
-94.6073760986328
-93.9397811889648
-96.13330078125
-98.2314529418945
-97.9453353881836
-97.7546005249023
-93.8444137573242
-92.8907089233398
-93.7490463256836
-86.5962677001953
-83.5444183349609
-86.4055252075195
-83.5444183349609
-80.6833038330078
-79.3481216430664
-77.6314544677734
-77.9175643920898
-74.2934951782227
-69.5249786376953
-67.2360916137695
-67.7129440307617
-66.2823867797852
-58.652759552002
-59.6064605712891
-62.8490524291992
-52.453685760498
-47.8759117126465
-52.6444282531738
-52.6444282531738
-50.9277610778809
-45.8731346130371
-38.2435073852539
-37.6712837219238
-39.2925796508789
-38.5296173095703
-38.9110984802246
-41.1046180725098
-41.2953567504883
-33.5703582763672
-24.891658782959
-24.2240657806396
-23.9379558563232
-22.4120292663574
-22.6027698516846
-22.8888816833496
-22.5074005126953
-20.7907333374023
-16.4990692138672
-12.6842555999756
-12.588885307312
-12.6842555999756
-9.25092315673828
-4.7685170173645
-4.00555419921875
-4.1962947845459
-3.5287024974823
-6.1037015914917
-5.1499981880188
3.8148136138916
11.4444408416748
12.2074031829834
12.588885307312
16.5944385528564
18.5972156524658
16.6898097991943
12.6842555999756
9.82314491271973
11.4444408416748
19.2648086547852
24.2240657806396
19.2648086547852
18.8833274841309
24.6055469512939
21.6490669250488
18.4064750671387
20.8861045837402
19.6462898254395
17.4527721405029
18.4064750671387
18.5972156524658
19.8370304107666
27.0851764678955
32.7120246887207
27.3712882995605
22.0305480957031
24.5101776123047
28.1342506408691
30.8999900817871
32.2351760864258
32.6166572570801
33.761100769043
35.4777679443359
35.5731353759766
34.7148017883301
33.8564720153809
34.0472106933594
37.2898025512695
38.4342460632324
36.431468963623
35.2870254516602
38.6249885559082
43.7749862670898
44.4425773620605
44.4425773620605
47.7805404663086
47.017578125
41.6768379211426
42.630542755127
45.300910949707
41.5814666748047
41.3907279968262
43.2981338500977
39.5786895751953
37.5759124755859
41.962947845459
43.2027626037598
39.7694320678711
39.0064697265625
36.431468963623
37.099063873291
45.7777633666992
49.4972076416016
46.6360969543457
43.2981338500977
41.6768379211426
42.7259140014648
41.7722091674805
42.0583190917969
44.9194297790527
47.2083168029785
52.9305381774902
60.7509078979492
62.7536849975586
59.8925743103027
58.9388694763184
56.1731300354004
47.3036880493164
39.864803314209
35.0009155273438
25.9407329559326
20.0277709960938
19.1694374084473
12.2074031829834
5.24536848068237
6.96203470230103
12.4935140609741
15.7361059188843
11.1583299636841
3.71944332122803
2.38425850868225
0.858333051204681
-4.29166507720947
-6.29444265365601
-5.24536848068237
-5.43610954284668
-4.95925760269165
-4.67314672470093
-2.1935179233551
2.1935179233551
6.00833129882813
10.204626083374
8.77407169342041
6.77129411697388
9.537034034729
7.82036781311035
3.43333220481873
1.71666610240936
2.09814739227295
0.286111027002335
-1.62129580974579
-0.381481349468231
-2.1935179233551
-1.9074068069458
2.38425850868225
5.1499981880188
7.43888664245605
5.24536848068237
1.33518481254578
0.47685170173645
3.8148136138916
4.95925760269165
-3.33796191215515
-12.8749961853027
-32.4259147644043
-72.7675704956055
-115.111999511719
-137.428665161133
-146.584213256836
-180.059204101563
-243.957336425781
-289.639709472656
-308.904541015625
-315.294342041016
-264.748077392578
-123.695327758789
82.5907135009766
280.865661621094
460.352630615234
647.46923828125
791.859924316406
947.885803222656
1135.28857421875
1209.48669433594
1133.38110351563
975.257080078125
758.480285644531
490.585021972656
292.691558837891
245.101776123047
183.77864074707
5.62685012817383
-170.236053466797
-264.461944580078
-300.798065185547
-312.814727783203
-326.834167480469
-355.540618896484
-399.124877929688
-440.801696777344
-471.987823486328
-494.781311035156
-505.176696777344
-494.876678466797
-460.257263183594
-419.343383789063
-385.963775634766
-357.638763427734
-340.376739501953
-342.188781738281
-351.058227539063
-357.161926269531
-362.502655029297
-354.777648925781
-327.406372070313
-291.547119140625
-255.687881469727
-226.123077392578
-208.765670776367
-200.182342529297
-199.037902832031
-208.574935913086
-212.103637695313
-201.422164916992
-187.402725219727
-164.132354736328
-133.041625976563
-108.531448364258
-91.269416809082
-79.2527542114258
-77.4407196044922
-82.1138610839844
-81.7323837280273
-76.296272277832
-68.5712738037109
-55.6009063720703
-37.8620262145996
-22.2212886810303
-12.0166625976563
-4.57777643203735
-0.572222054004669
-1.23981440067291
0.47685170173645
3.8148136138916
5.53147983551025
15.6407356262207
28.5157318115234
33.761100769043
41.1999855041504
48.3527641296387
53.121280670166
57.8897972106934
55.4101676940918
55.7916488647461
61.1323890686035
59.9879455566406
60.274055480957
69.2388687133789
78.2036819458008
82.4953460693359
88.6944122314453
91.5555267333984
87.5499725341797
83.5444183349609
81.4462738037109
85.3564529418945
91.3647842407227
89.6481170654297
86.0240478515625
85.5471954345703
86.9777526855469
88.3129348754883
90.4110794067383
92.0323791503906
88.5990447998047
84.6888580322266
86.8823776245117
85.7379379272461
78.394416809082
76.5823822021484
80.111083984375
83.8305282592773
87.8360824584961
90.1249694824219
89.0758972167969
86.0240478515625
82.4953460693359
72.4814605712891
61.323127746582
57.5083160400391
57.6036834716797
62.2768325805664
68.7620162963867
75.0564575195313
77.4407196044922
70.5740509033203
65.0425720214844
62.5629425048828
62.0860900878906
61.6092376708984
57.6990547180176
61.5138702392578
70.7647933959961
76.5823822021484
83.4490509033203
85.6425628662109
79.6342315673828
74.8657150268555
71.4323883056641
66.4731292724609
64.9472045898438
71.6231231689453
82.3046035766602
87.1684875488281
90.6018218994141
94.1305236816406
92.8907089233398
89.9342269897461
82.6860809326172
76.0101623535156
79.4434967041016
87.4546051025391
97.5638580322266
107.86385345459
112.918479919434
114.730522155762
113.013854980469
105.956443786621
95.1795959472656
88.1221923828125
86.3101577758789
83.7351608276367
84.6888580322266
86.1194152832031
90.220344543457
97.0870056152344
95.4657135009766
90.1249694824219
82.1138610839844
68.3805313110352
57.9851684570313
54.3610954284668
58.8434982299805
62.4675712585449
60.0833129882813
58.9388694763184
53.8842430114746
46.0638732910156
39.1018409729004
29.4694347381592
20.3138828277588
11.3490705490112
3.24259161949158
2.09814739227295
2.1935179233551
-0.190740674734116
-0.858333051204681
-4.95925760269165
-15.9268465042114
-25.9407329559326
-34.4286918640137
-35.9546165466309
-32.1398048400879
-36.5268402099609
-44.3472061157227
-48.6388740539551
-50.7370223999023
-51.2138710021973
-56.0777587890625
-67.1407165527344
-78.012939453125
-84.6888580322266
-85.2610855102539
-82.876823425293
-84.5934906005859
-86.2147903442383
-82.5907135009766
-82.0184936523438
-86.5009002685547
-89.3620071411133
-90.6971969604492
-90.4110794067383
-90.8879318237305
-96.7055282592773
-102.046264648438
-100.138854980469
-96.800895690918
-97.4684906005859
-99.6620025634766
-102.713859558105
-99.1851501464844
-92.318489074707
-91.7462692260742
-94.7981185913086
-96.8962631225586
-99.4712677001953
-101.092559814453
-100.234230041504
-99.3758926391602
-99.3758926391602
-96.7055282592773
-87.6453399658203
-81.16015625
-83.7351608276367
-83.3536758422852
-81.827751159668
-85.5471954345703
-86.1194152832031
-82.6860809326172
-81.16015625
-86.0240478515625
-92.0323791503906
-88.8851547241211
-81.827751159668
-79.06201171875
-80.6833038330078
-82.5907135009766
-81.827751159668
-79.06201171875
-74.2934951782227
-71.8138656616211
-71.0509033203125
-66.1870193481445
-63.039794921875
-66.2823867797852
-69.1434936523438
-58.0805358886719
-48.2573928833008
-53.8842430114746
-49.8786888122559
-39.9601707458496
-41.6768379211426
-41.7722091674805
-36.9083213806152
-37.7666549682617
-40.913875579834
-37.8620262145996
-36.3360977172852
-38.3388748168945
-33.5703582763672
-28.8018417358398
-28.3249912261963
-24.7009181976318
-23.4611034393311
-24.0333251953125
-22.5074005126953
-24.0333251953125
-21.6490669250488
-16.2129573822021
-14.8777732849121
-13.9240694046021
-13.5425882339478
-9.25092315673828
-5.43610954284668
-8.29721927642822
-7.53425693511963
-7.0574049949646
-9.06018257141113
-3.33796191215515
1.9074068069458
1.52592539787292
4.00555419921875
8.96481227874756
10.0138854980469
12.4935140609741
12.588885307312
7.0574049949646
7.24814605712891
6.58055353164673
6.48518323898315
8.3925895690918
9.15555286407471
16.4036979675293
20.7907333374023
17.738883972168
17.357400894165
17.2620315551758
12.7796258926392
10.5861072540283
14.3055505752563
15.0685138702393
16.022216796875
21.5536975860596
25.4638805389404
26.4175834655762
26.7036952972412
28.8018417358398
30.3277683258057
29.5648059844971
29.8509159088135
31.4722118377686
31.4722118377686
29.9462871551514
30.6138782501221
34.1425819396973
36.431468963623
34.2379531860352
32.7120246887207
34.7148017883301
35.0962867736816
32.6166572570801
30.70924949646
33.4749908447266
36.3360977172852
35.6685066223145
33.9518394470215
34.6194343566895
36.0499877929688
31.2814712524414
28.6111011505127
32.3305435180664
33.8564720153809
35.4777679443359
40.6277656555176
44.4425773620605
45.2055397033691
43.2027626037598
39.3879508972168
38.3388748168945
38.3388748168945
37.4805450439453
40.5323944091797
46.7314682006836
46.8268356323242
46.2546157836914
50.832389831543
45.5870208740234
35.0962867736816
30.6138782501221
29.3740653991699
38.7203598022461
55.5055389404297
61.323127746582
59.5110931396484
64.0888671875
66.0916442871094
61.99072265625
64.756462097168
64.8518295288086
53.121280670166
43.2027626037598
36.5268402099609
29.6601753234863
23.3657341003418
17.357400894165
15.5453653335571
14.0194396972656
9.82314491271973
8.3925895690918
9.82314491271973
8.58333015441895
3.05185079574585
-0.572222054004669
-0.572222054004669
-2.38425850868225
-4.29166507720947
-0.667592406272888
2.67036962509155
-0.762962698936462
-4.29166507720947
1.9074068069458
5.43610954284668
0.572222054004669
4.38703584671021
7.82036781311035
0.762962698936462
-1.14444410800934
0.9537034034729
0.286111027002335
2.47962880134583
7.34351634979248
8.20184898376465
7.72499752044678
5.91296100616455
1.81203651428223
4.29166507720947
7.34351634979248
1.62129580974579
-0.190740674734116
4.1962947845459
5.05462789535522
1.23981440067291
0.9537034034729
0.858333051204681
-8.77407169342041
-24.2240657806396
-51.4999847412109
-96.9916381835938
-134.186065673828
-150.971252441406
-171.761978149414
-215.536972045898
-267.418426513672
-298.223052978516
-310.811950683594
-304.994354248047
-233.085113525391
-64.3749771118164
141.911071777344
318.34619140625
480.66650390625
617.427551269531
736.259033203125
890.377502441406
1019.50891113281
1033.05151367188
944.833984375
800.538635253906
582.426635742188
347.624877929688
268.276763916016
275.048065185547
147.633285522461
-37.099063873291
-144.199951171875
-200.659194946289
-222.308258056641
-236.327697753906
-260.456390380859
-286.3017578125
-331.22119140625
-386.154510498047
-416.386901855469
-422.585968017578
-416.482269287109
-395.786895751953
-370.036926269531
-343.428588867188
-318.918426513672
-305.948059082031
-303.373046875
-309.66748046875
-317.583221435547
-316.915649414063
-306.710998535156
-286.3017578125
-260.5517578125
-232.036041259766
-207.335113525391
-193.029571533203
-183.492538452148
-185.018463134766
-193.506423950195
-191.885116577148
-183.68327331543
-175.099945068359
-158.314758300781
-134.090698242188
-113.299964904785
-97.5638580322266
-90.0296020507813
-90.9833068847656
-89.0758972167969
-83.5444183349609
-80.0157165527344
-76.8684921264648
-67.8083114624023
-51.7860946655273
-35.4777679443359
-24.7962875366211
-17.0712909698486
-9.82314491271973
-7.6296272277832
-7.72499752044678
-5.53147983551025
-1.81203651428223
3.8148136138916
10.7768487930298
17.2620315551758
26.226842880249
36.3360977172852
36.0499877929688
32.6166572570801
38.7203598022461
42.8212814331055
43.0120239257813
46.3499870300293
47.6851692199707
51.0231323242188
58.7481307983398
61.7046089172363
61.323127746582
60.7509078979492
66.5684967041016
74.6749725341797
75.3425674438477
73.9120101928711
72.4814605712891
73.1490478515625
71.9092330932617
69.2388687133789
74.7703475952148
84.1166381835938
89.4573822021484
84.6888580322266
81.5416412353516
80.8740463256836
72.3860855102539
66.3777542114258
63.9934997558594
62.8490524291992
64.5657196044922
67.7129440307617
71.1462707519531
69.8110885620117
68.4759063720703
68.9527587890625
66.2823867797852
59.2249794006348
52.453685760498
51.3092422485352
53.121280670166
59.3203506469727
69.7157211303711
74.2934951782227
74.6749725341797
72.4814605712891
64.6610870361328
59.2249794006348
61.4184989929199
61.7046089172363
57.4129447937012
59.9879455566406
70.7647933959961
78.7759017944336
81.9231185913086
82.3999710083008
78.012939453125
72.7675704956055
74.4842376708984
77.9175643920898
77.6314544677734
76.4870147705078
82.3999710083008
90.6971969604492
93.6536712646484
96.9916381835938
97.182373046875
89.6481170654297
85.2610855102539
84.4981231689453
80.778678894043
77.7268295288086
79.8249740600586
83.925895690918
84.6888580322266
85.6425628662109
88.0268249511719
82.9721984863281
72.4814605712891
65.5194244384766
62.4675712585449
61.323127746582
60.274055480957
60.8462753295898
64.0888671875
64.756462097168
61.8953514099121
59.4157218933105
50.7370223999023
40.8185043334961
41.962947845459
41.0092468261719
34.2379531860352
35.7638778686523
40.7231369018555
37.099063873291
31.5675830841064
27.5620288848877
20.6953639984131
12.6842555999756
7.6296272277832
1.71666610240936
-1.62129580974579
-3.147221326828
-9.9185152053833
-13.3518476486206
-8.96481227874756
-10.6814785003662
-18.6925868988037
-25.177770614624
-35.5731353759766
-41.7722091674805
-36.2407302856445
-35.1916542053223
-41.962947845459
-40.913875579834
-38.8157272338867
-46.2546157836914
-49.1157264709473
-53.4073905944824
-63.5166473388672
-64.0888671875
-62.7536849975586
-67.5222015380859
-71.1462707519531
-70.9555358886719
-72.5768280029297
-77.0592346191406
-76.7731246948242
-74.2934951782227
-74.5796051025391
-80.5879364013672
-83.4490509033203
-77.9175643920898
-72.6721954345703
-71.7184982299805
-73.5305328369141
-77.9175643920898
-83.6397857666016
-85.6425628662109
-84.6888580322266
-81.7323837280273
-78.4897918701172
-80.0157165527344
-80.778678894043
-81.4462738037109
-83.4490509033203
-80.6833038330078
-76.3916397094727
-76.7731246948242
-78.6805267333984
-80.9694213867188
-83.2583084106445
-80.0157165527344
-76.9638671875
-77.345344543457
-76.6777496337891
-72.0999755859375
-67.2360916137695
-67.7129440307617
-64.4703521728516
-58.0805358886719
-58.652759552002
-58.8434982299805
-58.652759552002
-61.6092376708984
-60.6555366516113
-59.4157218933105
-58.5573883056641
-55.7916488647461
-58.4620170593262
-59.1296119689941
-52.6444282531738
-47.6851692199707
-46.2546157836914
-46.2546157836914
-45.8731346130371
-43.1073951721191
-37.6712837219238
-32.5212860107422
-29.5648059844971
-29.9462871551514
-30.5185089111328
-26.4175834655762
-25.8453617095947
-29.4694347381592
-26.8944358825684
-27.1805477142334
-29.5648059844971
-29.6601753234863
-31.3768424987793
-22.6027698516846
-12.6842555999756
-15.0685138702393
-15.5453653335571
-14.5916624069214
-19.360179901123
-18.3111057281494
-12.7796258926392
-12.588885307312
-13.8286991119385
-9.44166374206543
-4.29166507720947
-4.57777643203735
-7.34351634979248
-5.62685012817383
-4.57777643203735
-4.29166507720947
1.33518481254578
2.5749990940094
0.572222054004669
6.48518323898315
9.25092315673828
7.53425693511963
8.96481227874756
8.86944198608398
9.9185152053833
11.3490705490112
10.9675893783569
11.5398111343384
7.34351634979248
9.34629344940186
17.9296245574951
17.8342533111572
17.0712909698486
18.5972156524658
18.5018463134766
21.1722145080566
22.125919342041
18.0249938964844
16.7851791381836
21.9351787567139
24.7962875366211
24.1286964416504
26.8944358825684
24.6055469512939
18.3111057281494
20.1231422424316
21.4583263397217
22.3166599273682
30.4231376647949
32.5212860107422
30.0416564941406
34.9055442810059
36.2407302856445
28.9925842285156
24.891658782959
33.8564720153809
47.3036880493164
49.5925750732422
49.6879463195801
57.8897972106934
64.756462097168
65.805534362793
65.805534362793
65.9009017944336
57.4129447937012
42.9166526794434
34.4286918640137
26.1314735412598
15.4499950408936
11.2537002563477
11.2537002563477
11.5398111343384
11.5398111343384
11.4444408416748
15.6407356262207
14.1148099899292
3.5287024974823
-2.95648050308228
-3.24259161949158
-1.04907369613647
3.05185079574585
8.58333015441895
13.5425882339478
12.0166625976563
4.95925760269165
4.95925760269165
8.58333015441895
5.34073925018311
5.53147983551025
12.8749961853027
14.8777732849121
11.4444408416748
9.44166374206543
9.63240432739258
10.6814785003662
11.1583299636841
14.4962921142578
16.8805503845215
15.2592544555664
15.9268465042114
12.4935140609741
4.95925760269165
6.86666440963745
12.9703664779663
13.8286991119385
14.2101802825928
11.9212923049927
7.0574049949646
9.06018257141113
10.8722190856934
0.381481349468231
-28.2296199798584
-75.6286773681641
-123.313850402832
-149.159210205078
-160.889770507813
-186.258270263672
-235.087890625
-281.437866210938
-302.896209716797
-305.375823974609
-286.587860107422
-187.688827514648
14.4009208679199
218.111968994141
392.067474365234
569.742431640625
704.500671386719
828.577514648438
988.036743164063
1098.57092285156
1082.45336914063
975.447814941406
811.315490722656
573.557250976563
382.911926269531
327.692474365234
239.093444824219
49.5925750732422
-102.904594421387
-181.966613769531
-221.831405639648
-242.240661621094
-263.794372558594
-282.582305908203
-304.326751708984
-344.382293701172
-390.827667236328
-411.141540527344
-403.416534423828
-387.394317626953
-367.080444335938
-348.101745605469
-330.553588867188
-315.485076904297
-307.378601074219
-303.468414306641
-306.520263671875
-310.239715576172
-304.994354248047
-293.359161376953
-274.666564941406
-251.682327270508
-230.605484008789
-210.196228027344
-197.130493164063
-192.552719116211
-185.87678527832
-180.917541503906
-178.724014282227
-164.418472290039
-146.107360839844
-136.951812744141
-124.172180175781
-105.288856506348
-95.6564483642578
-92.2231216430664
-82.876823425293
-73.5305328369141
-71.9092330932617
-65.5194244384766
-53.8842430114746
-49.6879463195801
-43.1073951721191
-30.70924949646
-19.360179901123
-8.3925895690918
-0.47685170173645
4.10092449188232
6.00833129882813
6.6759238243103
10.7768487930298
17.2620315551758
22.125919342041
27.3712882995605
33.5703582763672
37.3851737976074
40.4370231628418
43.8703575134277
46.1592445373535
45.3962821960449
45.4916534423828
49.8786888122559
49.8786888122559
51.7860946655273
61.4184989929199
65.6147918701172
63.8027572631836
64.756462097168
72.2907180786133
78.8712692260742
76.4870147705078
70.2879409790039
66.0916442871094
65.3286819458008
65.0425720214844
67.7129440307617
77.1546020507813
83.3536758422852
80.6833038330078
80.5879364013672
80.5879364013672
73.6259002685547
69.5249786376953
70.0018310546875
69.5249786376953
67.3314590454102
61.4184989929199
61.7046089172363
70.2879409790039
72.2907180786133
68.7620162963867
67.4268264770508
62.3722038269043
54.4564628601074
53.2166481018066
54.4564628601074
55.0286865234375
62.6583137512207
62.7536849975586
57.2222023010254
63.6120147705078
63.2305335998535
53.7888717651367
52.9305381774902
53.5981292724609
55.7916488647461
62.8490524291992
66.7592391967773
71.1462707519531
75.1518249511719
74.6749725341797
76.1055297851563
75.247200012207
70.6694183349609
65.805534362793
59.6064605712891
59.701831817627
65.137939453125
67.1407165527344
71.7184982299805
79.06201171875
79.4434967041016
78.9666442871094
81.6370086669922
79.1573791503906
74.0073852539063
76.0101623535156
82.876823425293
86.0240478515625
87.5499725341797
83.925895690918
77.4407196044922
81.7323837280273
82.1138610839844
74.0073852539063
73.2444229125977
69.0481262207031
63.6120147705078
70.6694183349609
75.5333099365234
70.7647933959961
68.4759063720703
70.2879409790039
67.7129440307617
59.5110931396484
52.7397994995117
52.0722045898438
49.2110939025879
41.3907279968262
35.7638778686523
32.9981384277344
32.04443359375
31.1861019134521
25.7499923706055
20.1231422424316
13.3518476486206
2.28888821601868
-2.09814739227295
-2.1935179233551
-6.6759238243103
-10.2999963760376
-11.1583299636841
-12.9703664779663
-14.687032699585
-17.9296245574951
-24.2240657806396
-30.0416564941406
-34.5240631103516
-37.1944313049316
-39.2925796508789
-44.3472061157227
-44.9194297790527
-45.0148010253906
-50.7370223999023
-54.8379440307617
-58.5573883056641
-64.4703521728516
-72.3860855102539
-76.2009048461914
-75.5333099365234
-77.345344543457
-78.8712692260742
-78.8712692260742
-79.1573791503906
-81.5416412353516
-83.1629333496094
-85.1657104492188
-89.9342269897461
-88.7897872924805
-84.7842330932617
-84.8796005249023
-84.1166381835938
-85.6425628662109
-88.5990447998047
-89.9342269897461
-92.0323791503906
-89.6481170654297
-88.1221923828125
-93.7490463256836
-93.8444137573242
-88.6944122314453
-88.4083023071289
-87.5499725341797
-83.925895690918
-85.2610855102539
-88.9805297851563
-87.6453399658203
-83.925895690918
-80.778678894043
-78.2036819458008
-76.2009048461914
-75.4379425048828
-78.1083068847656
-77.2499771118164
-72.3860855102539
-70.3833084106445
-69.4296035766602
-66.7592391967773
-65.9962768554688
-67.3314590454102
-65.6147918701172
-64.3749771118164
-65.4240493774414
-61.323127746582
-55.887020111084
-55.9823913574219
-55.7916488647461
-52.0722045898438
-46.1592445373535
-44.0610961914063
-47.6851692199707
-47.6851692199707
-43.2981338500977
-43.1073951721191
-45.9685020446777
-44.7286911010742
-36.2407302856445
-29.3740653991699
-31.0907306671143
-30.6138782501221
-28.0388793945313
-29.7555465698242
-27.4666576385498
-20.0277709960938
-16.7851791381836
-19.6462898254395
-16.4990692138672
-6.6759238243103
-2.67036962509155
-4.48240613937378
-7.6296272277832
-9.82314491271973
-9.44166374206543
-8.86944198608398
-8.86944198608398
-10.2999963760376
-8.58333015441895
-6.48518323898315
-8.77407169342041
-5.43610954284668
-1.9074068069458
-3.24259161949158
-1.9074068069458
1.33518481254578
4.10092449188232
3.91018390655518
4.95925760269165
8.58333015441895
11.0629596710205
12.8749961853027
13.1611070632935
16.4036979675293
19.5509204864502
14.3055505752563
9.537034034729
7.15277528762817
9.25092315673828
19.1694374084473
21.9351787567139
19.074068069458
16.2129573822021
14.9731435775757
20.2185115814209
20.2185115814209
17.8342533111572
20.5999927520752
22.7935104370117
26.6083240509033
28.8018417358398
28.8972129821777
29.6601753234863
25.177770614624
22.6981410980225
29.278694152832
32.6166572570801
31.0907306671143
31.6629524230957
33.8564720153809
38.3388748168945
38.2435073852539
32.9027671813965
31.6629524230957
36.0499877929688
42.5351715087891
45.6823921203613
45.2055397033691
48.066650390625
55.3147964477539
63.039794921875
66.9499816894531
63.039794921875
55.3147964477539
48.9249839782715
39.864803314209
29.4694347381592
24.891658782959
20.6953639984131
10.3953666687012
3.71944332122803
9.72777462005615
15.9268465042114
14.1148099899292
14.0194396972656
13.1611070632935
8.86944198608398
6.6759238243103
3.33796191215515
-1.52592539787292
-5.24536848068237
-7.15277528762817
-2.09814739227295
2.09814739227295
-1.14444410800934
-0.9537034034729
5.43610954284668
10.204626083374
9.34629344940186
6.48518323898315
8.58333015441895
14.8777732849121
16.4990692138672
11.0629596710205
8.0111083984375
10.0138854980469
12.0166625976563
17.6435127258301
22.6027698516846
20.9814739227295
18.3111057281494
16.4990692138672
16.5944385528564
14.8777732849121
12.9703664779663
16.1175880432129
16.1175880432129
14.9731435775757
19.5509204864502
23.4611034393311
15.0685138702393
-11.635181427002
-55.6962776184082
-101.664779663086
-127.605514526367
-136.951812744141
-160.22216796875
-218.493453979492
-273.331390380859
-290.974914550781
-298.699890136719
-273.522125244141
-160.41291809082
40.8185043334961
257.690643310547
439.466522216797
626.392395019531
788.23583984375
927.381164550781
1109.72924804688
1232.94775390625
1203.57373046875
1073.20239257813
890.282104492188
640.984069824219
394.928588867188
279.816589355469
209.624008178711
44.3472061157227
-138.668472290039
-248.344360351563
-304.422119140625
-329.218414306641
-342.665618896484
-365.36376953125
-399.124877929688
-437.940612792969
-467.886901855469
-481.143371582031
-485.721130371094
-484.86279296875
-465.407257080078
-431.932281494141
-399.124877929688
-371.9443359375
-354.873046875
-346.861938476563
-347.052673339844
-354.205444335938
-356.875823974609
-346.861938476563
-327.597106933594
-304.517486572266
-273.140655517578
-239.856399536133
-219.733261108398
-211.149932861328
-208.098083496094
-206.286041259766
-203.997161865234
-197.225860595703
-182.729568481445
-164.990692138672
-141.529586791992
-114.062927246094
-94.03515625
-85.5471954345703
-79.8249740600586
-74.7703475952148
-73.4351654052734
-69.2388687133789
-62.1814613342285
-53.7888717651367
-41.8675804138184
-22.7935104370117
-4.86388731002808
0.190740674734116
5.43610954284668
13.0657367706299
11.9212923049927
9.06018257141113
11.1583299636841
14.7824029922485
18.6925868988037
26.9898052215576
38.9110984802246
50.4509086608887
58.7481307983398
61.8953514099121
64.4703521728516
66.4731292724609
65.3286819458008
66.1870193481445
69.5249786376953
74.5796051025391
78.9666442871094
79.9203414916992
81.16015625
86.3101577758789
87.5499725341797
83.5444183349609
85.5471954345703
87.8360824584961
85.7379379272461
85.5471954345703
86.2147903442383
89.2666397094727
93.367561340332
91.9370040893555
93.367561340332
97.6592254638672
93.4629364013672
90.1249694824219
90.5064544677734
85.4518280029297
83.0675659179688
82.4953460693359
80.111083984375
82.2092361450195
86.8823776245117
89.2666397094727
89.9342269897461
86.4055252075195
78.7759017944336
70.7647933959961
65.6147918701172
63.7073860168457
63.6120147705078
66.7592391967773
69.2388687133789
69.2388687133789
70.3833084106445
72.7675704956055
72.8629379272461
67.2360916137695
59.7972030639648
59.2249794006348
59.701831817627
57.2222023010254
64.3749771118164
81.827751159668
89.2666397094727
86.5009002685547
85.6425628662109
83.5444183349609
80.111083984375
76.3916397094727
72.6721954345703
72.0046081542969
72.9583129882813
79.1573791503906
89.3620071411133
90.6971969604492
88.9805297851563
90.8879318237305
88.1221923828125
84.6888580322266
83.8305282592773
82.4953460693359
83.1629333496094
86.1194152832031
90.8879318237305
94.2258987426758
94.03515625
92.6999740600586
94.702751159668
94.9888610839844
86.9777526855469
80.111083984375
81.16015625
82.3046035766602
82.3999710083008
81.16015625
75.0564575195313
72.6721954345703
72.4814605712891
64.8518295288086
57.5083160400391
49.4018363952637
41.7722091674805
45.4916534423828
49.783317565918
46.6360969543457
39.4833221435547
32.04443359375
24.3194370269775
17.8342533111572
15.1638841629028
11.4444408416748
6.86666440963745
2.67036962509155
0.0953703373670578
1.43055510520935
-3.91018390655518
-14.0194396972656
-22.8888816833496
-31.3768424987793
-39.3879508972168
-46.7314682006836
-44.8240585327148
-41.8675804138184
-45.4916534423828
-48.3527641296387
-56.3638725280762
-62.8490524291992
-64.1842422485352
-72.0046081542969
-76.7731246948242
-76.1055297851563
-80.111083984375
-84.3073806762695
-80.8740463256836
-77.2499771118164
-79.5388641357422
-82.4953460693359
-83.2583084106445
-86.1194152832031
-89.3620071411133
-89.2666397094727
-92.4138565063477
-99.1851501464844
-101.37866973877
-98.899040222168
-96.800895690918
-94.5120086669922
-92.5092315673828
-95.2749710083008
-99.948112487793
-104.335151672363
-108.054595947266
-106.147186279297
-102.61848449707
-102.427742004395
-102.332374572754
-103.190704345703
-102.237007141113
-98.4221878051758
-95.5610809326172
-92.986083984375
-92.6045989990234
-94.03515625
-93.6536712646484
-90.9833068847656
-86.9777526855469
-85.1657104492188
-85.5471954345703
-84.4027481079102
-82.3999710083008
-80.8740463256836
-79.2527542114258
-80.4925689697266
-82.3046035766602
-80.0157165527344
-77.6314544677734
-78.2036819458008
-75.6286773681641
-71.7184982299805
-68.8573837280273
-63.9934997558594
-56.7453536987305
-52.1675758361816
-51.1185035705566
-51.1185035705566
-51.8814659118652
-50.9277610778809
-49.0203552246094
-45.5870208740234
-40.6277656555176
-40.3416519165039
-40.7231369018555
-36.8129501342773
-32.9027671813965
-32.9027671813965
-33.2842483520508
-30.5185089111328
-29.5648059844971
-30.70924949646
-31.0907306671143
-29.0879535675049
-23.4611034393311
-21.4583263397217
-25.7499923706055
-27.657398223877
-25.8453617095947
-25.6546211242676
-25.2731399536133
-22.8888816833496
-19.6462898254395
-13.3518476486206
-6.77129411697388
-2.67036962509155
-0.381481349468231
-0.762962698936462
-2.28888821601868
-3.8148136138916
-1.9074068069458
2.1935179233551
2.28888821601868
2.00277709960938
5.34073925018311
5.91296100616455
3.71944332122803
7.43888664245605
12.302773475647
13.5425882339478
14.687032699585
15.35462474823
15.0685138702393
15.35462474823
21.3629570007324
27.2759170532227
29.278694152832
30.4231376647949
25.7499923706055
19.7416610717773
17.738883972168
20.5999927520752
24.9870281219482
26.4175834655762
27.0851764678955
25.177770614624
23.3657341003418
23.4611034393311
24.2240657806396
26.8944358825684
26.6083240509033
26.1314735412598
29.5648059844971
31.9490642547607
29.7555465698242
29.4694347381592
34.0472106933594
36.5268402099609
34.810173034668
32.3305435180664
31.6629524230957
33.5703582763672
36.9083213806152
37.8620262145996
38.2435073852539
39.197208404541
39.1018409729004
45.3962821960449
46.7314682006836
37.7666549682617
38.6249885559082
45.300910949707
45.4916534423828
48.1620216369629
55.1240577697754
53.3120193481445
45.2055397033691
47.017578125
52.7397994995117
56.4592399597168
61.99072265625
62.4675712585449
61.0370178222656
69.5249786376953
73.6259002685547
67.3314590454102
66.4731292724609
64.4703521728516
53.6935005187988
43.2981338500977
35.0962867736816
26.4175834655762
21.0768451690674
14.0194396972656
8.0111083984375
12.6842555999756
15.8314762115479
16.1175880432129
20.7907333374023
19.1694374084473
10.7768487930298
5.7222204208374
2.76573991775513
-1.04907369613647
-5.05462789535522
-4.00555419921875
1.33518481254578
1.81203651428223
2.1935179233551
4.10092449188232
8.58333015441895
14.2101802825928
13.0657367706299
9.34629344940186
5.91296100616455
5.81759071350098
6.96203470230103
4.48240613937378
6.38981294631958
8.96481227874756
5.05462789535522
1.04907369613647
4.48240613937378
9.34629344940186
7.24814605712891
0.47685170173645
-2.00277709960938
1.04907369613647
3.5287024974823
6.38981294631958
8.10647869110107
6.86666440963745
8.58333015441895
5.62685012817383
-8.20184898376465
-35.7638778686523
-81.3508987426758
-122.169403076172
-141.815689086914
-158.505508422852
-200.659194946289
-262.93603515625
-304.517486572266
-324.259155273438
-314.531372070313
-239.379547119141
-81.6370086669922
138.76383972168
340.472106933594
522.057250976563
700.78125
839.258972167969
1009.59039306641
1185.35791015625
1222.26623535156
1124.41625976563
961.142272949219
726.912719726563
443.758178710938
268.467498779297
233.657333374023
146.965698242188
-42.5351715087891
-203.138824462891
-283.631378173828
-310.048980712891
-316.915649414063
-334.463775634766
-369.083221435547
-412.476715087891
-447.382263183594
-475.707244873047
-496.211883544922
-500.503540039063
-485.911895751953
-452.722991943359
-414.4794921875
-380.050811767578
-355.159149169922
-344.954528808594
-346.289703369141
-354.873046875
-361.739685058594
-360.976745605469
-350.390625
-320.539703369141
-283.249908447266
-252.063812255859
-225.169372558594
-205.809188842773
-200.563827514648
-203.806411743164
-204.187896728516
-204.474014282227
-199.037902832031
-178.819381713867
-153.641616821289
-128.082366943359
-108.245338439941
-95.2749710083008
-85.0703430175781
-82.6860809326172
-85.5471954345703
-84.4027481079102
-77.4407196044922
-64.3749771118164
-47.6851692199707
-33.1888771057129
-20.5046234130859
-6.96203470230103
1.9074068069458
3.8148136138916
3.147221326828
3.8148136138916
5.53147983551025
9.06018257141113
14.8777732849121
20.9814739227295
30.0416564941406
41.3907279968262
48.8296127319336
56.8407211303711
61.99072265625
59.0342407226563
59.1296119689941
63.7073860168457
66.0916442871094
70.0971984863281
74.9610900878906
76.2009048461914
81.2555313110352
90.0296020507813
87.1684875488281
84.0212707519531
93.1768188476563
90.6018218994141
81.4462738037109
87.3592300415039
89.1712646484375
83.6397857666016
86.0240478515625
89.5527496337891
91.1740417480469
94.6073760986328
98.5175628662109
100.329597473145
97.849967956543
89.7434921264648
79.5388641357422
78.012939453125
80.4925689697266
80.6833038330078
80.3018264770508
81.4462738037109
84.3073806762695
84.1166381835938
81.16015625
75.8194198608398
68.8573837280273
67.0453491210938
64.2796096801758
60.7509078979492
64.756462097168
67.9990539550781
71.2416458129883
74.8657150268555
70.8601608276367
67.4268264770508
68.8573837280273
66.7592391967773
65.7101669311523
69.0481262207031
72.0046081542969
79.4434967041016
91.269416809082
97.3731155395508
96.8962631225586
89.9342269897461
80.3018264770508
74.2934951782227
72.5768280029297
74.3888626098633
80.0157165527344
86.2147903442383
90.8879318237305
92.0323791503906
89.4573822021484
88.8851547241211
90.6971969604492
88.6944122314453
82.7814559936523
83.0675659179688
91.4601593017578
98.8036727905273
101.950889587402
102.046264648438
105.002746582031
106.910148620605
97.182373046875
88.3129348754883
88.1221923828125
85.1657104492188
75.9147872924805
75.0564575195313
85.5471954345703
88.6944122314453
86.0240478515625
84.8796005249023
77.9175643920898
70.2879409790039
65.9009017944336
60.1786842346191
55.1240577697754
54.3610954284668
55.1240577697754
53.3120193481445
50.7370223999023
48.1620216369629
40.0555419921875
30.8046188354492
22.4120292663574
10.7768487930298
3.24259161949158
3.24259161949158
1.71666610240936
-1.81203651428223
-5.7222204208374
-9.44166374206543
-11.635181427002
-14.8777732849121
-23.9379558563232
-35.5731353759766
-39.1018409729004
-36.9083213806152
-39.9601707458496
-47.3036880493164
-50.7370223999023
-50.1647987365723
-52.5490570068359
-61.1323890686035
-69.8110885620117
-73.4351654052734
-75.247200012207
-77.7268295288086
-77.8221969604492
-79.4434967041016
-84.3073806762695
-82.4953460693359
-79.2527542114258
-82.5907135009766
-85.0703430175781
-86.5009002685547
-87.4546051025391
-87.7407150268555
-92.6999740600586
-100.138854980469
-98.9944152832031
-94.1305236816406
-96.3240432739258
-97.7546005249023
-97.849967956543
-100.615707397461
-99.4712677001953
-96.800895690918
-99.948112487793
-101.950889587402
-97.9453353881836
-95.2749710083008
-93.8444137573242
-91.9370040893555
-93.6536712646484
-98.5175628662109
-100.901817321777
-97.5638580322266
-98.0407104492188
-99.8527450561523
-93.9397811889648
-88.5990447998047
-86.5962677001953
-85.1657104492188
-83.4490509033203
-80.8740463256836
-82.3999710083008
-82.876823425293
-76.6777496337891
-72.5768280029297
-71.8138656616211
-67.0453491210938
-64.0888671875
-66.2823867797852
-63.1351661682129
-57.4129447937012
-56.6499824523926
-55.3147964477539
-53.9796104431152
-55.4101676940918
-56.6499824523926
-57.1268348693848
-59.4157218933105
-58.3666496276855
-50.9277610778809
-45.5870208740234
-41.962947845459
-37.9573936462402
-39.1018409729004
-41.3907279968262
-39.4833221435547
-37.099063873291
-35.2870254516602
-32.7120246887207
-30.3277683258057
-30.8999900817871
-29.9462871551514
-22.8888816833496
-19.074068069458
-20.7907333374023
-20.3138828277588
-19.5509204864502
-20.5046234130859
-19.074068069458
-16.6898097991943
-15.4499950408936
-10.7768487930298
-6.77129411697388
-8.29721927642822
-7.34351634979248
-4.1962947845459
-4.38703584671021
-6.48518323898315
-4.10092449188232
2.09814739227295
1.23981440067291
-2.95648050308228
1.62129580974579
9.34629344940186
10.4907369613647
8.10647869110107
7.24814605712891
9.15555286407471
10.9675893783569
11.7305517196655
16.30832862854
19.7416610717773
18.9786968231201
18.787956237793
21.4583263397217
23.7472152709961
22.7935104370117
19.5509204864502
14.2101802825928
14.0194396972656
20.7907333374023
23.5564746856689
25.9407329559326
31.8536930084229
38.9110984802246
43.3935050964355
39.9601707458496
32.6166572570801
28.3249912261963
27.8481388092041
30.2323970794678
33.2842483520508
33.761100769043
29.4694347381592
25.8453617095947
28.0388793945313
29.3740653991699
29.278694152832
30.4231376647949
31.9490642547607
36.0499877929688
38.7203598022461
37.9573936462402
39.2925796508789
41.6768379211426
37.099063873291
29.7555465698242
34.1425819396973
40.1509132385254
33.3796195983887
28.1342506408691
33.8564720153809
36.3360977172852
36.8129501342773
41.7722091674805
44.9194297790527
44.251838684082
41.1046180725098
38.2435073852539
36.1453590393066
35.0009155273438
38.4342460632324
37.6712837219238
33.3796195983887
38.5296173095703
42.0583190917969
43.9657249450684
51.7860946655273
54.3610954284668
54.3610954284668
54.5518341064453
50.7370223999023
49.783317565918
55.3147964477539
62.5629425048828
60.0833129882813
52.9305381774902
47.7805404663086
38.3388748168945
28.8018417358398
25.177770614624
27.1805477142334
29.7555465698242
26.7036952972412
19.360179901123
9.9185152053833
5.24536848068237
10.204626083374
13.1611070632935
10.7768487930298
6.1037015914917
-0.762962698936462
-3.43333220481873
-2.95648050308228
-5.1499981880188
-8.20184898376465
-5.62685012817383
-1.04907369613647
-7.43888664245605
-12.6842555999756
-6.96203470230103
-3.8148136138916
-3.62407302856445
-3.8148136138916
-4.1962947845459
-2.5749990940094
-2.38425850868225
-4.38703584671021
-4.7685170173645
-4.7685170173645
-3.24259161949158
-0.286111027002335
-1.62129580974579
-0.572222054004669
-1.52592539787292
-4.29166507720947
0.47685170173645
0.9537034034729
-4.00555419921875
-5.1499981880188
-2.1935179233551
1.9074068069458
0.381481349468231
-1.81203651428223
-0.47685170173645
0.286111027002335
-2.28888821601868
-13.8286991119385
-39.4833221435547
-81.0647888183594
-121.406440734863
-141.434219360352
-157.837905883789
-200.086975097656
-255.497146606445
-290.211944580078
-312.147125244141
-313.863800048828
-248.344360351563
-98.2314529418945
106.147186279297
298.699890136719
479.998931884766
654.335876464844
785.088623046875
947.599670410156
1119.55236816406
1164.47180175781
1079.21081542969
920.89599609375
700.971984863281
427.068389892578
241.191589355469
219.92399597168
163.274017333984
-22.8888816833496
-187.498092651367
-262.554534912109
-291.070281982422
-301.370269775391
-315.103607177734
-347.243408203125
-392.258209228516
-431.455413818359
-462.069305419922
-485.530395507813
-491.824829101563
-478.949859619141
-447.096160888672
-407.040618896484
-375.091552734375
-347.815643310547
-329.409149169922
-332.079528808594
-344.954528808594
-353.251739501953
-354.682281494141
-343.714691162109
-315.675811767578
-279.339721679688
-245.578628540039
-216.967529296875
-196.65364074707
-188.642532348633
-191.694381713867
-200.086975097656
-201.994384765625
-194.174011230469
-182.729568481445
-161.175872802734
-130.085144042969
-101.37866973877
-83.1629333496094
-74.0073852539063
-69.8110885620117
-71.7184982299805
-75.247200012207
-71.5277557373047
-60.274055480957
-47.4944305419922
-32.9027671813965
-14.3055505752563
0
5.91296100616455
9.06018257141113
10.3953666687012
8.48795986175537
11.8259220123291
19.074068069458
22.7935104370117
31.8536930084229
45.6823921203613
53.4073905944824
58.9388694763184
60.1786842346191
55.6962776184082
56.936092376709
62.1814613342285
63.5166473388672
65.2333145141602
74.2934951782227
80.9694213867188
79.5388641357422
82.5907135009766
84.7842330932617
82.3046035766602
86.3101577758789
88.8851547241211
84.9749755859375
83.7351608276367
88.9805297851563
95.084228515625
94.6073760986328
95.751823425293
100.138854980469
103.76293182373
106.147186279297
102.904594421387
96.2286758422852
92.0323791503906
86.4055252075195
79.1573791503906
76.1055297851563
76.296272277832
78.012939453125
80.8740463256836
83.5444183349609
86.1194152832031
84.5934906005859
82.3046035766602
78.6805267333984
69.9064559936523
63.8981285095215
63.9934997558594
64.8518295288086
64.5657196044922
68.5712738037109
72.3860855102539
72.0046081542969
76.1055297851563
75.1518249511719
65.5194244384766
61.2277565002441
59.9879455566406
59.2249794006348
62.6583137512207
69.6203460693359
77.4407196044922
81.4462738037109
86.8823776245117
90.7925643920898
85.5471954345703
78.9666442871094
73.6259002685547
70.7647933959961
78.6805267333984
88.2175674438477
90.6018218994141
93.2721939086914
95.084228515625
92.6999740600586
90.7925643920898
81.5416412353516
70.8601608276367
75.4379425048828
84.4027481079102
90.9833068847656
98.9944152832031
100.043487548828
99.1851501464844
99.3758926391602
92.7953414916992
81.16015625
72.9583129882813
70.3833084106445
70.0018310546875
73.5305328369141
79.5388641357422
80.0157165527344
80.778678894043
79.4434967041016
71.4323883056641
66.4731292724609
60.274055480957
53.7888717651367
54.0749816894531
53.2166481018066
47.5897979736328
40.1509132385254
38.148136138916
39.5786895751953
35.0009155273438
26.9898052215576
15.6407356262207
8.29721927642822
7.91573810577393
-1.23981440067291
-8.86944198608398
-6.00833129882813
-7.53425693511963
-10.9675893783569
-15.4499950408936
-28.7064723968506
-38.148136138916
-37.8620262145996
-41.3907279968262
-47.6851692199707
-47.3990592956543
-45.8731346130371
-48.8296127319336
-57.1268348693848
-63.6120147705078
-66.854606628418
-75.1518249511719
-85.2610855102539
-87.9314498901367
-85.1657104492188
-83.1629333496094
-83.6397857666016
-85.6425628662109
-88.7897872924805
-90.220344543457
-90.4110794067383
-92.7953414916992
-97.0870056152344
-100.234230041504
-102.427742004395
-101.187927246094
-98.7083053588867
-98.9944152832031
-99.3758926391602
-97.0870056152344
-95.8471908569336
-97.5638580322266
-97.6592254638672
-99.7573776245117
-100.901817321777
-97.4684906005859
-96.9916381835938
-97.7546005249023
-95.8471908569336
-94.2258987426758
-92.0323791503906
-90.4110794067383
-92.5092315673828
-96.5147857666016
-97.5638580322266
-94.3212661743164
-89.8388595581055
-87.0731201171875
-83.4490509033203
-81.827751159668
-82.3046035766602
-76.7731246948242
-70.7647933959961
-72.1953506469727
-74.5796051025391
-75.4379425048828
-79.3481216430664
-81.2555313110352
-78.8712692260742
-79.3481216430664
-77.7268295288086
-68.1897964477539
-59.8925743103027
-56.8407211303711
-53.6935005187988
-50.4509086608887
-51.6907234191895
-51.8814659118652
-46.1592445373535
-46.1592445373535
-49.3064651489258
-44.7286911010742
-41.1046180725098
-38.7203598022461
-36.6222114562988
-40.3416519165039
-41.7722091674805
-41.6768379211426
-42.630542755127
-36.3360977172852
-29.9462871551514
-32.1398048400879
-28.7064723968506
-17.2620315551758
-13.3518476486206
-14.9731435775757
-15.8314762115479
-18.4064750671387
-20.0277709960938
-20.1231422424316
-17.2620315551758
-11.5398111343384
-8.3925895690918
-4.67314672470093
-4.1962947845459
-7.82036781311035
-5.7222204208374
-4.00555419921875
-6.77129411697388
-8.77407169342041
-10.7768487930298
-8.0111083984375
1.43055510520935
8.58333015441895
11.3490705490112
11.2537002563477
10.6814785003662
13.6379585266113
14.4009208679199
11.9212923049927
11.5398111343384
14.0194396972656
15.6407356262207
14.1148099899292
15.2592544555664
20.3138828277588
25.4638805389404
29.6601753234863
32.4259147644043
25.4638805389404
15.2592544555664
18.0249938964844
23.8425846099854
25.177770614624
25.7499923706055
24.6055469512939
27.8481388092041
36.2407302856445
39.7694320678711
36.3360977172852
33.4749908447266
32.2351760864258
28.8972129821777
29.7555465698242
33.9518394470215
34.5240631103516
37.8620262145996
40.8185043334961
38.5296173095703
36.0499877929688
32.8073959350586
31.0907306671143
33.761100769043
32.7120246887207
31.2814712524414
34.7148017883301
33.4749908447266
31.1861019134521
33.4749908447266
33.6657295227051
34.3333206176758
33.6657295227051
31.9490642547607
36.5268402099609
38.7203598022461
37.5759124755859
39.9601707458496
42.1536903381348
38.8157272338867
35.6685066223145
39.197208404541
39.197208404541
35.8592491149902
42.4398002624512
47.3036880493164
43.4888763427734
39.1018409729004
32.9981384277344
33.9518394470215
49.3064651489258
60.8462753295898
61.6092376708984
63.5166473388672
70.0018310546875
74.1027526855469
72.3860855102539
64.5657196044922
56.0777587890625
46.9222068786621
33.3796195983887
28.8018417358398
27.5620288848877
16.1175880432129
12.2074031829834
16.7851791381836
15.7361059188843
16.8805503845215
20.0277709960938
17.6435127258301
12.7796258926392
11.9212923049927
7.0574049949646
-5.05462789535522
-9.44166374206543
-7.15277528762817
-3.91018390655518
0.286111027002335
3.33796191215515
7.53425693511963
10.6814785003662
10.204626083374
11.5398111343384
11.2537002563477
5.43610954284668
3.147221326828
4.7685170173645
2.5749990940094
1.81203651428223
5.91296100616455
7.53425693511963
5.81759071350098
5.43610954284668
6.1037015914917
4.10092449188232
2.8611102104187
1.9074068069458
-4.67314672470093
-5.62685012817383
-1.33518481254578
-3.24259161949158
-6.38981294631958
-4.38703584671021
-0.9537034034729
0
-2.76573991775513
-19.2648086547852
-60.6555366516113
-106.242561340332
-136.76106262207
-155.167541503906
-172.620315551758
-213.820297241211
-271.423980712891
-304.422119140625
-315.103607177734
-309.476745605469
-239.665664672852
-66.6638641357422
145.058288574219
321.493408203125
486.579467773438
624.771118164063
737.59423828125
881.603393554688
1011.21173095703
1042.4931640625
964.861755371094
819.898803710938
605.697021484375
372.230438232422
284.298980712891
278.958251953125
146.679580688477
-38.148136138916
-144.295318603516
-195.223083496094
-218.207336425781
-240.619369506836
-264.366577148438
-288.781402587891
-329.981384277344
-375.759124755859
-408.375793457031
-416.482269287109
-405.514678955078
-385.296173095703
-357.734130859375
-333.510070800781
-318.823059082031
-306.806396484375
-304.612854003906
-311.288787841797
-308.809173583984
-303.945281982422
-300.321197509766
-287.827697753906
-267.990661621094
-244.052703857422
-222.403625488281
-206.095306396484
-195.604568481445
-192.648086547852
-190.931427001953
-187.402725219727
-180.631423950195
-168.137908935547
-151.448104858398
-128.273101806641
-108.722190856934
-99.948112487793
-90.5064544677734
-84.8796005249023
-82.4953460693359
-73.6259002685547
-67.9990539550781
-64.756462097168
-56.6499824523926
-48.4481315612793
-39.7694320678711
-28.7064723968506
-16.022216796875
-9.44166374206543
-8.0111083984375
-2.38425850868225
2.67036962509155
4.38703584671021
10.204626083374
14.8777732849121
14.7824029922485
20.5046234130859
30.70924949646
34.1425819396973
33.1888771057129
35.0009155273438
33.8564720153809
32.04443359375
40.913875579834
47.4944305419922
46.9222068786621
50.4509086608887
53.9796104431152
60.5601654052734
70.5740509033203
70.9555358886719
65.7101669311523
65.9962768554688
66.0916442871094
64.9472045898438
67.2360916137695
65.9009017944336
62.4675712585449
65.3286819458008
69.6203460693359
69.8110885620117
69.9064559936523
71.9092330932617
72.0999755859375
69.4296035766602
67.3314590454102
63.8027572631836
59.8925743103027
64.756462097168
68.3805313110352
62.1814613342285
62.7536849975586
70.2879409790039
72.0046081542969
71.1462707519531
66.6638641357422
61.1323890686035
58.2712783813477
53.6935005187988
56.6499824523926
62.0860900878906
63.2305335998535
66.6638641357422
64.756462097168
59.8925743103027
59.2249794006348
56.0777587890625
52.8351669311523
59.1296119689941
68.1897964477539
72.2907180786133
74.5796051025391
79.6342315673828
84.4981231689453
87.0731201171875
85.9286727905273
78.5851593017578
74.7703475952148
73.7212753295898
74.0073852539063
81.6370086669922
87.8360824584961
90.0296020507813
91.269416809082
89.0758972167969
87.1684875488281
82.9721984863281
73.4351654052734
68.4759063720703
71.1462707519531
72.9583129882813
75.6286773681641
80.9694213867188
81.9231185913086
81.4462738037109
78.1083068847656
67.0453491210938
57.4129447937012
59.6064605712891
63.039794921875
61.323127746582
63.4212760925293
67.8083114624023
67.4268264770508
62.3722038269043
58.9388694763184
56.1731300354004
47.2083168029785
36.3360977172852
32.1398048400879
34.1425819396973
35.0009155273438
33.6657295227051
32.9027671813965
33.0935096740723
27.2759170532227
15.9268465042114
10.5861072540283
10.5861072540283
7.0574049949646
0.190740674734116
