Value(bpm)
70.2974828375286
70.1602383991192
70.0262012599179
69.8980004266164
69.7782282043642
69.6694456936775
69.5741901316476
69.4949840403286
69.4343461707777
69.394804262127
69.3789096715137
69.3892539731618
69.4284876741884
69.4993412520093
69.6046487851937
69.7473745285106
69.930642876699
70.1577722740779
70.4320926339784
70.7512301347589
71.1063305948815
71.487949662325
71.8862820192298
72.2910952418484
72.691690288657
73.0768918759531
73.435072370241
73.7542128049982
74.0220041302212
74.2259907478562
74.3537567225554
74.3937659789283
74.3456831521488
74.2188341833723
74.0232470157662
73.7691690240256
73.466896992858
73.1266346900818
72.7583795292923
72.3718383589462
71.9763712994585
71.5809617841625
71.1942105223486
70.8243509543847
70.4792838639297
70.1653146732183
69.8822821461091
69.628208958264
69.4012334769017
69.1995960646819
69.021626487482
68.8657326314674
68.7303903710983
68.614134454386
68.5155502926651
68.433266560018
68.3659485228036
68.3122920329193
68.271018129804
68.2410867756002
68.2227491314351
68.2167290630168
68.2237633794612
68.2446039436679
68.2800206264286
68.3308044852026
68.3977711894679
68.4817647181333
68.5836613585347
68.7043740411076
68.8448570490404
69.0061111481658
69.1891891891892
69.3950701143645
69.6242623020033
69.8771924842527
70.154338495565
70.456231657069
70.7834594705905
71.1366686486556
71.5165685106963
71.9239347800613
72.3596138214024
72.8245273636617
73.3196777603429
73.8461538461538
74.4031996180819
74.9821628768908
75.5718486348717
76.1603377423761
76.7349578633611
77.2822946962772
77.7882498208535
78.2381512116025
78.6169213219196
78.9093055690806
79.1001609638903
79.1748005593874
79.1226431677812
78.953258517068
78.6839655172275
78.3324947806024
77.9165847327346
77.4536659290052
76.9606271552008
76.4536613422975
75.9481858418224
75.4588296428308
74.9994794773969
74.5833772151928
74.2232622479703
73.9286513013735
73.6951035879305
73.5143993903785
73.3787126737696
73.2805091400049
73.2124621858817
73.1673855519039
73.1381812544277
73.1178019042507
73.0992268885121
73.0754521447562
73.0394933943106
72.9844027306263
72.9045146502284
72.8037805265255
72.6906339378058
72.5734518734504
72.4605094113497
72.3599803040618
72.2799561270567
72.2284834972656
72.2136191377629
72.2435029987281
72.3264502499064
72.4710637525741
72.6863696342499
72.9812359235911
73.3537495757258
73.7932418347072
74.2886199675473
74.828399920329
75.4005323890665
75.9922609245291
76.5900165484375
77.1793552567828
77.7449462319571
78.2706193932648
78.7394808474582
79.1343988818835
79.4473543977378
79.6817072393603
79.8420572272409
79.9335294952125
79.9616796089734
79.9324001703714
79.8518315613939
79.7262790252792
79.5621377966806
79.3658275114166
79.1437366759888
78.9021623562796
78.6459219200684
78.3773095212816
78.098326740043
77.8109329630991
77.5170412362034
77.2185151460218
76.9171666769774
76.6147549838371
76.3129860183024
76.0135129471983
75.7179373008011
75.4278107922189
75.1446182007814
74.869413359685
74.6028664389094
74.3456175620748
74.0982921979905
73.8615030953028
73.635852289942
73.4219331841447
73.2203326973209
73.0316334905395
72.8564162679591
72.6952621601113
72.5487551955975
72.4174923811396
72.3027567289342
72.2070405844672
72.1329604379162
72.0831461526247
72.0602579856743
72.0670057054338
72.10616999276
72.1806263793328
72.2933720546666
72.4475559654681
72.6465127408968
72.8938011097657
73.1932385179129
73.5452656672116
73.9411024592226
74.3702439379239
74.8217650012092
75.2842290738083
75.7456281362314
76.1933582984566
76.6142357643514
76.9945581957851
77.320216027392
77.5768570798085
77.7501057765334
77.8278074431408
77.8123657007749
77.7129030189617
77.5390578454309
77.3007679872398
77.0080982858604
76.6710922085854
76.2996495131466
75.9034307066951
75.491787861484
75.0737204908267
74.6578546248917
74.2524429317446
73.8644363861617
73.4950274114278
73.1434086621445
72.808812416982
72.4905101708949
72.1878096983663
71.9000523533121
71.6266105832228
71.3668856375336
71.1203054523531
70.8863226955636
70.6644129579745
70.4540730776929
70.2548281129632
70.0676540236583
69.8965336362608
69.7457706176868
69.6196221095524
69.5223270371414
69.4581395009907
69.4313674515722
69.4464170361698
69.5078432296427
69.6204076256482
69.7891445841703
70.0194373217743
70.3171060162835
70.6878545357934
71.1278228648389
71.6252185745246
72.1675941941258
72.7418553854366
73.3341004542313
73.9295050266431
74.5122601727941
75.0655740109412
75.5717476521448
76.0123359051672
76.3684010905689
76.6208655803024
76.7572508503103
76.7868136144645
76.7241153628087
76.5843616961806
76.3830703745976
76.1357956375353
75.857914619269
75.5644776014767
75.2701207937487
74.9890383770034
74.7350096413775
74.521477093593
74.3616583931899
74.2631761450463
74.2198292237774
74.2235296367395
74.266387144687
74.3406174230935
74.4384676882702
74.5521588323849
74.6738436994006
74.7955815734172
74.9093292490028
75.0069492084103
75.0802354363775
75.1210944361681
75.1276845276248
75.1068715401549
75.0662114784491
75.0132686805812
74.9555835509566
74.9006555275382
74.8559411570534
74.8288670722881
74.8268577121229
74.8573777950835
74.9279898507061
75.0464275348408
75.2200437070493
75.446632447536
75.7163402228881
76.0189767429421
76.3441124888746
76.6809980147008
77.0185113811178
77.3451361048047
77.6489724959541
77.9177853668454
78.1390907570414
78.3002834713378
78.388925664894
78.3995162094658
78.3370496526084
78.207745671113
78.0181079010877
77.7748213600849
77.4846587596654
77.1543973583662
76.7907474021125
76.4002926550591
75.9894430586468
75.5643991810194
75.1311278357106
74.6953546271303
74.2626820622282
73.8385760073551
73.4282586727212
73.0367236128144
72.6687617150364
72.3289929048076
72.0219030405314
71.7518856697118
71.523288533885
71.3404649453848
71.2078304168559
71.1299252117521
71.1114837621037
71.1557372209114
71.2597684209099
71.419453905555
71.6308654297031
71.8902075414228
72.1937607259145
72.5378291594825
72.9186923853713
73.3325604558475
73.775532295892
74.2435572402722
74.7323998822147
75.2376009960325
75.7535305378329
76.2724158326735
76.7858366303212
77.2849217907466
77.7603648020826
78.2024619702098
78.601175654507
78.9462244459801
79.2272014031537
79.4337203583707
79.5555888896086
79.5830274905328
79.5125091177986
79.3542333176805
79.120688553019
78.8245625268589
78.4785290289908
78.0950751427768
77.6863699932416
77.264174220568
76.8397879374973
76.4240340588973
76.0272735222296
75.6594489745382
75.3299196120354
75.0415718433959
74.7906016538309
74.5730722034974
74.3852215428259
74.2234313730791
74.0842002991511
73.9641210970609
73.8598616248352
73.7681490916099
73.6857574690508
73.6094978839981
73.536211873273
73.4628589675711
73.3898473600577
73.3219495686529
73.2641884700233
73.2215614326378
73.1990576567772
73.2016823070914
73.2344875476101
73.3026107485189
73.4113203371457
73.5660700187544
73.772562405903
74.0368234830996
74.3650056303527
74.7560755658804
75.2007929584047
75.6892458542803
76.2111184515855
76.7555723492211
77.3111538382189
77.8657310935682
78.4064662062255
78.9198277242448
79.3916496230445
79.8072422501728
80.1518825018193
80.4194227532779
80.6134998136875
80.7387413271062
80.8002144164875
80.8033403771826
80.7538119290866
80.6575151312531
80.520457661134
80.3487047486339
80.1483236574709
79.9253372422857
79.6856291355437
79.4331717537338
79.1697486618191
78.8969909042542
78.6164965494638
78.3298276634191
78.0385079649228
77.7440211288055
77.4478097003471
77.1512745824854
76.8557750566342
76.5626292981094
76.2731153481211
75.9886197551868
75.7114283382904
75.4441312495688
75.1892497048636
74.9492433299114
74.7265199356112
74.5234467074101
74.3423627656566
74.1855930864633
74.0554638084857
73.9543189903684
73.8845389270623
73.8485601816573
73.8487353510622
73.8864740492211
73.9628890469696
74.0792201177588
74.2368476423114
74.4373067767912
74.6823034659151
74.9737325965619
75.3136986407836
75.7045392018239
76.1488519555126
76.6495255756833
77.2096236683338
77.8255864660773
78.4839156990976
79.1695133335928
79.8662129246842
80.5566757131061
81.22235536829
81.843544836404
82.3995190409702
82.8687856404377
83.2294522093667
83.4597117516182
83.5428212707345
83.4889224110465
83.318731758426
83.0537394911913
82.7156640749305
82.3260265771195
81.9058390492728
81.4754062672543
81.0542347135762
80.661039756741
80.3138412774636
80.0301391607079
79.8236856997397
79.6880824002309
79.6100926920205
79.5768602860291
79.5757544216107
79.5942478196391
79.6198351680778
79.6399911445665
79.642167799989
79.6138314217266
79.5425387689112
79.4160518268469
79.2244920517011
78.9740936260341
78.6785554268159
78.351421896958
78.0059124411335
77.6548422738044
77.3105878453901
76.9850934074179
76.6899151389859
76.436299642429
76.2352944435802
76.0978893411669
76.0351773646136
76.0538958033548
76.1494501923404
76.3158371785363
76.5473623195256
76.8385336890059
77.1839662137343
77.5782948584622
78.0160953676921
78.4918117894366
78.9996904707079
79.5337206433658
80.0875768829924
80.6524481733635
81.2135554610227
81.7544296829898
82.2577596575399
82.705499704491
83.0790582781458
83.3595728495126
83.5282720595813
83.5669202652487
83.4583322433336
83.1869375482201
82.7407362983157
82.1311260052982
81.3869729075507
80.5373344317714
79.6102470340782
78.6321711257371
77.627638389966
76.6190784493497
75.6267956981697
74.6690657865034
73.7623233689888
72.9214170319698
72.1599127632279
71.4904075454987
70.9186072191992
70.4359623239394
70.0328997867674
69.7007366140968
69.431502899364
69.2177949645241
69.0526529009697
68.9294582144682
68.8418483782436
68.7836459478355
68.748800553113
68.7313425998314
68.7253479146642
68.724930464864
68.7271822115377
68.735489760469
68.7540473863937
68.7870656049173
68.8387863077422
68.9135032016673
69.015587766471
69.1495210698567
69.3199319348344
69.5316421520862
69.7897196755839
70.0995410461544
70.4668646717886
70.8972061620858
71.386824495066
71.9248372148563
72.4996753516255
73.0990774173092
73.7099657552603
74.3183630816274
74.9093571113594
75.4671223486334
75.9750084984168
76.4157042366629
76.7714829737973
77.0245492781149
77.1637764122675
77.1948761833345
77.1270141094987
76.970099796983
76.7345494589016
76.4310661547179
76.0704442046742
75.6634020360045
75.2204456891836
74.7517634749731
74.267150894563
73.7759639367838
73.2870981343953
72.808511552394
72.3461801029169
71.9054586401833
71.4914528997834
71.1090594930803
70.7630116098562
70.4579300099367
70.1983791726637
69.9889287810974
69.8342210512131
69.7390447852477
69.7084174481121
69.7476770581796
69.8625110379031
70.0538463700195
70.3143646972576
70.6361290754961
71.0112254588085
71.4316236411723
71.8890546737714
72.3749045181692
72.880124840512
73.3951628764599
73.9099131910191
74.4136948863518
74.8952583146824
75.3431022881637
75.7508668825743
76.1172700691666
76.4413511410604
76.7222902420909
76.9594146022227
77.1522035354822
77.3002921264101
77.4034735520079
77.4617000083961
77.4750822343436
77.4438876468532
77.3685379288827
77.250183651163
77.0917045952806
76.8963402814474
76.667383340896
76.4081509817214
76.1219590847101
75.8120991235118
75.4818180183855
75.134300956992
74.7726571505471
74.3999084396946
74.0189806217241
73.6326980704388
73.244925848549
72.8628069210489
72.4938304145346
72.1451873108306
71.823807918209
71.536411996916
71.2895705797283
71.0897789917672
70.9435411122649
70.8574655392552
70.8383750327973
70.893431453735
71.0302794307779
71.2564367605081
71.5682212591056
71.9529167204245
72.3974438464
72.8883469389526
73.4115775258686
73.9523244767818
74.4948962572366
75.0226635627207
75.5180723491818
75.9627379444036
76.3376301309474
76.6233576128669
76.8061651089113
76.891503010142
76.8895244160637
76.8110256534587
76.6672170342164
76.4695186810168
76.2293867492028
75.9581731381394
75.6670198632623
75.3667877416015
75.0680179648185
74.7809244885944
74.5154014018103
74.2777248366999
74.0663363961205
73.8786803138149
73.7122945654146
73.5647961149923
73.4338680832973
73.317248664363
73.2127216512614
73.1181084600696
73.0312615644134
72.9500592718987
72.8724017887889
72.7962085308057
72.7202246890125
72.6464314509461
72.5775990460397
72.5164781007906
72.4658045010681
72.428306306383
72.4067127079658
72.4037650477114
72.4222299468227
72.46491463171
72.534684591049
72.6344837529251
72.767357436186
72.9356151830665
73.1355400109378
73.3607320732239
73.6046767983694
73.8607144456238
74.122010386393
74.3815373382338
74.6320704117118
74.8661959313669
75.0763349881054
75.2547825570024
75.3937627584297
75.4855022017808
75.52510543001
75.5163010480691
75.4645986990471
75.3756372998559
75.2551257352578
75.1087915260585
74.9423380175184
74.7614103393132
74.5715701458453
74.3782789594809
74.1868898099482
74.0026467886294
73.8306917595686
73.6755212156232
73.539891468522
73.4262281618881
73.3369613271869
73.2745411892887
73.2414556939447
73.2402499068832
73.2735474892252
73.3440745173062
73.4546859889088
73.6083954451003
73.808408240937
74.0581560517647
74.3590970727553
74.7066615935259
75.0951818271983
75.5188653844308
75.9717297298777
76.4475444194325
76.9397816956284
77.4415764076668
77.9456965705637
78.4445261728724
78.9300620658848
79.3939269266507
79.8285541043467
80.2303757090235
80.5967636662514
80.9251138610262
81.2128669745854
81.4575305291792
81.6567018934364
81.8080919541753
81.909549116685
81.9590832565882
81.954889214371
81.8954145166187
81.7824882857942
81.623282614544
81.4255113741732
81.1968709071519
80.9449763963556
80.6773130192999
80.4012016495018
80.1237785482727
79.8519882880403
79.5925890545714
79.352169479226
79.1371641295778
78.950889223418
78.7897122339962
78.6491340070869
78.5247536565724
78.4122479185076
78.307355589157
78.2058668010614
78.1036169531657
77.9964851502363
77.8803970247808
77.7513318126621
77.6053335326939
77.4398097366151
77.2613139306465
77.0802082546751
76.9066830483756
76.75074854168
76.622268617122
76.5310197958256
76.4867749516604
76.4994120306893
76.5790490956745
76.7362083608918
76.9820135986056
77.3281335765715
77.7738788491227
78.3002785292302
78.8863866898423
79.5102211355513
80.1484595573873
80.7762565850592
81.3672030335368
81.8934521130694
82.3260368329608
82.6353970689341
82.7921227740178
82.7719059028089
82.5838564887542
82.25369474629
81.8080986286015
81.273816191385
80.6770347864866
80.0429279641164
79.3953745900939
78.7568352729623
78.1483664463283
77.5897516319594
77.0997316227924
76.6961946105602
76.3854577903971
76.1542758740839
75.9881831623347
75.8733324461747
75.7962841542522
75.7438488662415
75.7029786171711
75.6607044271479
75.6041187528585
75.5204021407658
75.3968933005038
75.2212011338773
74.9819585225874
74.6821308733861
74.3385360106076
73.9681955073017
73.587575696277
73.2125132179687
72.8582123622288
72.5393072469253
72.2699825160528
72.0641479036024
71.9356645357038
71.8986241656591
71.967686713912
72.1584478953513
72.4781693584895
72.9127462099337
73.4452113419542
74.0583395911705
74.7341817529734
75.4536700615073
76.1963015703298
76.9399138530171
77.6605741675609
78.3326080629
78.9287953377818
79.4207640612405
79.7876543274392
80.0335972741229
80.168679821567
80.2041374186373
80.1520538642363
80.0250788954326
79.836174336028
79.5983964590491
79.3247192184508
79.0279003853695
78.7203905289576
78.4142832764348
78.1199016266947
77.8383028544848
77.5669961634843
77.3035556819123
77.0456233153612
76.7909042012277
76.5371636309688
76.2822253419557
76.0239710878841
75.7603414004975
75.4893374562124
75.2090239594942
74.9175330073165
74.6150795501665
74.3091518683211
74.0086430315674
73.7221621772953
73.4580599301054
73.2244725449896
73.0293835324051
72.880702036644
72.7863578964562
72.7544141206617
72.793198480819
72.9114570990512
73.1185343608641
73.4214805452651
73.8116157315046
74.2749208324098
74.7970744396128
75.3631771135586
75.957522656982
76.5634248679875
77.1631085535992
77.7376764438356
78.2671653552979
78.730705072052
79.1067914381382
79.3766331843406
79.545033362236
79.6287349512553
79.6453191074209
79.6128047402388
79.549385952808
79.473249762757
79.4024767166695
79.3550243221351
79.3487921124006
79.4017676202005
79.5322545447995
79.7572556820456
80.0759043280002
80.4772665522646
80.9503548588806
81.4840139922664
82.0667194617465
82.6864033467415
83.3303091223575
83.9848793035754
84.6356814998961
85.2673799130642
85.8639748923796
86.4136856451298
86.9093843493556
87.3440957161817
87.7108680735433
88.0028665191679
88.213475127506
88.3364062891377
88.3658146854975
88.2964128635537
88.1235849173111
87.8443713178343
87.4699938813665
87.0223320303716
86.5231589339512
85.9935640604521
85.4537692226182
84.9230474583914
84.4197342678816
83.9613202678419
83.5646155079164
83.2459781643988
83.0216036836814
82.9027113489424
82.8823194185669
82.9499062305603
83.095490321163
83.3094278938218
83.5822384338276
83.904454421252
84.2664927454497
84.6585467960775
85.0704993612006
85.4918574328926
85.9120707729696
86.3227510682768
86.7163234940801
87.0849667591352
87.4206431753133
87.7151484608996
87.9601775172311
88.1474063575035
88.2685897932075
88.3156737880781
88.2809205942314
88.1593141168959
87.9572937044614
87.6849181932684
87.352386326047
86.9698909104769
86.5474971208261
86.0950451064097
85.6220767040594
85.1377852533542
84.6509869580157
84.1701119082372
83.7030361494277
83.2532716592681
82.8202079328004
82.4030933452525
82.0012111042561
81.6138768309592
81.240436328644
80.8802635223777
80.5327585549079
80.1973460254979
79.8734733597287
79.5606092994712
79.2583368815856
78.9697661390081
78.7023799885798
78.4637684077526
78.2613822075609
78.102597324654
77.9947926161111
77.9454416120459
77.9622193671578
78.0531263763416
78.2266325223799
78.491845268669
78.8586545648664
79.3289021155286
79.885657621798
80.5090198926245
81.1781037993576
81.8707122828747
82.5631127086042
83.2299369254197
83.8442288883625
84.3776650504129
84.8009697652571
85.0845395439595
85.2057282261712
85.1744852408131
85.0117845251328
84.7396370988561
84.3804793855569
83.9566699285817
83.4901042974096
83.0019502821539
82.5124984517653
82.0411188286154
81.606312603237
81.2258387813936
80.9102271942945
80.6515033567139
80.4389923107772
80.2624113829869
80.1117653025741
79.97726887411
79.8492951005665
79.7183473430229
79.57505452077
79.4101885274367
79.2147029835358
78.9797921802986
78.7001551659285
78.3846809163937
78.0458900498772
77.6959515835424
77.3466337135432
77.009292230498
76.6948933170161
76.4140676988489
76.1771936317441
75.9945070492716
75.8762383341426
75.8327765986757
75.874753773988
76.0056226701928
76.2167027435635
76.4984625192938
76.8414958181046
77.2363497611448
77.673375352892
78.1425997016485
78.6336204257447
79.1355240868958
79.6368315887029
80.1254743423472
80.5888905075682
81.0178829901708
81.4084182647693
81.7568503564181
82.0595642493563
82.3130108460711
82.5137443519128
82.6584615761196
82.7440425272242
82.7675915751812
82.72647835998
82.6183775529354
82.4420687563389
82.2032860553401
81.9113168906646
81.5754648578548
81.2049164695529
80.8086578669359
80.3954128839605
79.9736015576307
79.5513177242168
79.136324082217
78.7360630148323
78.3576815212621
78.007924852733
77.6895134032814
77.4010162470748
77.1408939436862
76.9076993216392
76.7000679023434
76.5167092376895
76.3563990520836
76.2179720946087
76.1003156197642
76.0023634262106
75.923090392417
75.8615074563165
75.8170293308352
75.7917389279204
75.7888838415668
75.8117515115089
75.8636855593255
75.9481099013808
76.0685563536577
76.2286961270824
76.4323757344501
76.6836579777896
76.9868688646662
77.3466515224304
77.7677826907258
78.2476471836425
78.7743639439964
79.3349901220446
79.9158880914984
80.502616139583
81.0798658724375
81.6314541586122
82.1403782002671
82.5889421408584
82.9589622303465
83.2320547436861
83.3935252226999
83.4480009389688
83.4071630562713
83.2833600652768
83.0893422795758
82.8380316645356
82.5423287220415
82.2149593991655
81.8683627758837
81.5146185884866
81.1654124877124
80.8320362144936
80.5226460892821
80.2351411961159
79.9652389043181
79.7087899363255
79.4617616651509
79.2202258909231
78.9803507793497
78.7383966913244
78.490715661279
78.2337542943525
77.9640598508408
77.6782892724553
77.3737897652696
77.0548374181209
76.730079002071
76.4079653776901
76.0966684059592
75.8040981401
75.5379364058184
75.3056855290194
75.1147313413993
74.972420077157
74.8861493636793
74.8634742124896
74.9122297551262
75.0386916828292
75.2368576780896
75.4959132717879
75.8050479351932
76.1533013603116
76.5294271270897
76.9217867140104
77.318275794344
77.7062859457005
78.0727056957685
78.4039651510616
78.6861282055764
78.9058975555644
79.0604106209214
79.1540390725876
79.1916234513822
79.1782771941371
79.1193172025991
79.0201992856279
78.8864596949848
78.7236636462491
78.5373614081755
78.3330522687793
78.1161564531637
77.8919557712703
77.6634539046465
77.4303411646379
77.1920511002723
76.9480348138697
76.6977616437394
76.4407199003706
76.1764176479398
75.9043835226775
75.6241675793735
75.3353421570522
75.0375027546359
74.7302689072356
74.413417756655
74.0902680538604
73.7678208743146
73.4530271510984
73.1526032611343
72.8730537456043
72.6207053167688
72.4017513578508
72.2223064236682
72.0884706158002
72.0064041373546
71.9824128364406
72.0230461406838
72.1351997630356
72.3223300229053
72.5784289446911
72.8961523822462
73.2682066839452
73.687222922128
74.1456448225775
74.6356298951157
75.1489642016802
75.6769920465902
76.2105626355022
76.7399964062873
77.2550742502967
77.7456121197636
78.2058964623294
78.6326070465093
79.0224212421625
79.372019599655
79.6781144682016
79.9374809571499
80.1469898938334
80.3036423382212
80.4046051234639
80.4472468067836
80.4291733415123
80.349152830158
80.2125442735318
80.0276043530154
79.8026508856714
79.5459627074583
79.2657079031265
78.9698895498358
78.6663085651536
78.3625428688017
78.0659418362248
77.7836349280887
77.522553407161
77.2893543320619
77.0864822792496
76.9111796974465
76.7604572524348
76.6314189152696
76.521244706947
76.4271758917621
76.3465024278821
76.2765525273353
76.2146842132763
76.1582787910134
76.1047361715882
76.0514720031727
75.9966743997908
75.9444841622538
75.9018231603262
75.8756036391379
75.8727352799748
75.9001615207339
75.9649087117986
76.0741486735473
76.2352756616367
76.4559993127598
76.7444558649767
77.1093408661283
77.5598304289293
78.0950947153708
78.6993471291524
79.3549568808752
80.0432309229271
80.7441831957094
81.4363904016635
82.0969518128482
82.7015732036363
83.2247950638748
83.6403819280839
83.9218821701673
84.0490424971052
84.0303989929417
83.8842931177951
83.6300900155026
83.2876451055264
82.8768533815177
82.4172913463358
81.9279553838076
81.4270943286376
80.9321299117633
80.4596565538686
80.0255114223841
79.6419995450366
79.3071647898372
79.015099674348
78.7601934894551
78.5370773118282
78.3405774409596
78.1656770590005
78.0074852972946
77.8612130928547
77.7221553709992
77.5856792037649
77.4472176723742
77.3024140127713
77.1498559230885
76.9907990324777
76.8265813704688
76.6585216294454
76.4879177503258
76.3160459689204
76.1441603050588
75.973492475699
75.8052522129748
75.6406279684608
75.4807879857838
75.3268817250403
75.1804854798179
75.0466268657169
74.9319058840215
74.8428737454085
74.7860628625035
74.7680379782038
74.7954590009849
74.8751563252337
75.0142199429499
75.2201043080358
75.5007517322236
75.8647381262152
76.3214140673442
76.8729836709629
77.5031814545889
78.1923054600714
78.9194080704303
79.6619932870228
80.3958237587723
81.0948615618853
81.731370725535
82.276209767506
82.6993376609058
82.970545442245
83.0624725220327
82.9776283044446
82.7408181521127
82.3785915139344
81.9179351441712
81.3855717610675
80.8074358436552
80.2083270554386
79.6117303204889
79.0397850120059
78.5133834899658
78.0523805037907
77.6757730216664
77.3909067357422
77.1853896864209
77.0455305652162
76.958206017271
76.9106604801276
76.8903534807804
76.8848503550355
76.8817542022887
76.8686781116847
76.8332573489259
76.763201299314
76.6463845308938
76.4725818603852
76.2458814524258
75.9776230650036
75.6790668448778
75.361231517225
75.034826292755
74.7102150625245
74.3974106224511
74.1060964589087
73.8456737540183
73.625331683214
73.4541397360126
73.3411616671621
73.2948668453862
73.3152535618655
73.3968608192806
73.5343999995286
73.722772834821
73.9569946087958
74.2321254337508
74.5432085838837
74.8852152518472
75.2529954356419
75.641234966045
76.0444189577432
76.4568019020434
76.8718894736827
77.2813816091851
77.676337034689
78.0474689737008
78.3851861486414
78.679658007853
78.9209054678486
79.0989176677795
79.203794155421
79.2259105803426
79.1561044121302
78.9858755189788
78.7109911511618
78.3444034640801
77.9041758040161
77.4081266395128
76.8735519065411
76.3170321647078
75.7543186504215
75.2002906539066
74.6689754511268
74.1736220469745
73.7268209572465
73.3406639283356
73.0269396806848
72.7954928312608
72.6417538017061
72.5548275719537
72.5242848483029
72.5400274777512
72.5921456090653
72.6708044101764
72.7661583366171
72.8682921000102
72.9671883147966
73.0527223251917
73.1146849322144
73.1428336407744
73.1278836525899
73.0716810710179
72.9834727223959
72.8726497681348
72.7485471198669
72.6203980631047
72.4973127774281
72.3882800762561
72.3021915881333
72.2478877405411
72.2342252733729
72.2701665961949
72.3648921179529
72.5277073442413
72.7597422718751
73.051338916323
73.3920930128608
73.7714063412247
74.1783511736
74.6015636925715
75.0291686768157
75.4487389726813
75.8472941150526
76.2113428390119
76.526974018756
76.7799996600312
76.9587752735513
77.065809408408
77.1086792014408
77.095349144846
77.034043424075
76.9331352038197
76.8010522966537
76.6462006460481
76.4769062872914
76.3013758373144
76.1276751215356
75.9637252740259
75.8172835010382
75.6921402486652
75.5845820579437
75.4901064875977
75.4042721755176
75.3226859653062
75.2409952898212
75.1548856633769
75.0600831596772
74.9523617532841
74.8275553796368
74.6815745236278
74.510427081204
74.3103312253187
74.0825316531578
73.8356191528646
73.5786060613997
73.3202766455498
73.0691754622674
72.8336161924489
72.6217095338453
72.441408932212
72.3005732905768
72.2070463086245
72.168752762395
72.1938128476476
72.2906759385285
72.4644980848512
72.7083653196554
73.0129553380395
73.3689412495355
73.7668388595713
74.1968764304721
74.6488871772318
75.1122261075606
75.5757139572392
76.02761186928
76.4556310556637
76.8469818748713
77.1889481124022
77.4760015487728
77.7085628542638
77.8874766734972
78.0138439155601
78.0890044619671
78.1145177935397
78.0921419761184
78.0238114532605
77.9116140891374
77.7577678880186
77.5645977897125
77.3345151403773
77.0705484992916
76.7770235894662
76.4584019721885
76.1190685832078
75.7633076541013
75.3952839085118
75.0190287987784
74.638431477154
74.2572341494607
73.8790314351074
73.5072733529416
73.145271564387
72.7962085308057
72.4632775731967
72.1500730015202
71.8602082324384
71.5972089484765
71.3645400517157
71.1656356384333
71.0039320620498
70.8829042831577
70.8061058512455
70.7772130273967
70.80007374692
70.8787623439931
71.0176412282897
71.2211139961676
71.4866662456294
71.8046092855854
72.164813532134
72.5568813766739
72.9700317806889
73.3930134224458
73.8140492975648
74.2208166569611
74.6004667528881
74.9396889550374
75.2248232774867
75.4420241128411
75.5789709846487
75.6354014269931
75.6171214195183
75.5304251788366
75.3819441640924
75.1785351774885
74.9271776291607
74.6348820123961
74.3086109335687
73.9552134014812
73.5813725297191
73.1935663582404
72.7980411618369
72.400689656844
72.0053175607544
71.6140214097761
71.2287581883663
70.8514001126684
70.4837395618303
70.1274948141826
69.7843164923651
69.4557946364085
69.143466339302
68.8488238955001
68.5733234290462
68.3183939844713
68.0854470804201
67.87586675326
67.6904148291651
67.5291462384112
67.3921186719027
67.2794364101018
67.1912516414036
67.127766034613
67.0892325842909
67.075957750813
67.0883039204535
67.1266922147252
67.1916056826697
67.2835929148892
67.4032721239495
67.5513309927435
67.7277298589716
67.9307762723667
68.1585754046761
68.4092298129989
68.6808247955602
68.9714146977789
69.2790101369875
69.6015661467274
69.9369712725214
70.2830376806186
70.6374923694474
70.9979696002329
71.3620046880905
71.7268046769182
72.0876790958806
72.4389008073314
72.7745252695255
73.0884133596838
73.3742599796725
73.6256339733841
73.836029767297
73.9989308191254
74.1078845430941
74.1565878817128
74.1389821291354
74.0493550060003
73.8838749703261
73.6493056855657
73.3569921908597
73.0182735344251
72.6443120847146
72.2459762848245
71.8337585006411
71.4177260083722
71.0075024007664
70.6122763416283
70.2408346030083
69.9016166125639
69.6027882599948
69.3523334140123
69.1562222460259
69.0120177134184
68.9152269967899
68.8616091371984
68.8471203709012
68.8678662503848
68.9200596364188
68.9999838196321
69.1039602281682
69.2283203438276
69.3693815891795
69.5234270668629
69.6866891325247
69.8553483440398
70.0274623275655
70.2051976110829
70.3912970263594
70.5885651412438
70.7998763349765
71.028185329473
71.2765403636795
71.5480992418253
71.8461485420256
72.1741263413724
72.5356489002363
72.9345418557106
73.3748715821794
73.857301231239
74.3722769126407
74.9079586648069
75.4518245645287
75.9906090746205
76.5102846559538
76.9960935373745
77.4326366051842
77.8040255628073
78.0941026344003
78.2867290112047
78.3661389424051
78.320655527408
78.1589912043938
77.897711435447
77.5538208594081
77.1443713931857
76.6861525881634
76.1954581917766
75.687927655544
75.1784578997234
74.6811786076757
74.2094835242833
73.7761104561808
73.3932636939244
73.0713135030285
72.8091026042893
72.600417626278
72.4393867474281
72.3204323106205
72.2382029983375
72.1875162359066
72.1633095740592
72.160600147132
72.1744515799279
72.1999479370209
72.2321744814623
72.2662051405905
72.2973013411637
72.3254196152172
72.3552318484686
72.3916309611721
72.4395320340333
72.5038846144407
72.5896918349432
72.7020365640245
72.8461149417665
73.0272778314467
73.2510809490988
73.5233447265726
73.8502253342453
74.2378218855962
74.6831018974578
75.1741138842028
75.6980649173094
76.2414948338652
76.7901677493432
77.3290113542935
77.842111788876
78.3127726280647
78.7236462514991
79.0569443516581
79.294731323362
79.4197085816057
79.4281264046867
79.3323562906512
79.1464002527812
78.8846873660091
78.5617798089656
78.1921294873587
77.7898887368277
77.3687753367375
76.9419896367992
76.5221800237874
76.1214521748169
75.7514174509591
75.4222472589867
75.1349583566134
74.8861016447259
74.6723872193444
74.490691712156
74.3380310624385
74.2115366587587
74.1084344430269
74.0260266507208
73.9616759285738
73.9127916272589
73.876818113489
73.8512249849418
73.8339323550455
73.8266408225064
73.832998435889
73.8566846220775
73.9014095734774
73.970933502874
74.0690898989845
74.1998130620481
74.3671703123423
74.5753994031987
74.828951839489
75.1325430102986
75.4912102167665
75.9073200868729
76.3722672904509
76.8745725682789
77.4022246584548
77.9425687906482
78.4822316178259
79.0070882373222
79.5022778736798
79.9522750859665
80.3410228357751
80.652132222032
80.8691668796725
80.9823484193684
80.9986897808917
80.9284512860514
80.7824226534729
80.5717094716863
80.3075445978739
80.0011286291982
79.6635016503487
79.305446815625
78.9374250395199
78.5695391655647
78.2115254453507
77.8717086814059
77.5519894286487
77.2520158125809
76.9714630007304
76.7100352866098
76.4674651639943
76.2435125068515
76.0379638498954
75.8506317654362
75.6813543328552
75.5299946976491
75.39644071758
75.2806044702258
75.1822604561761
75.1007625726357
75.0354162981716
74.985552747591
74.9505259294004
74.9297101889041
74.9224978193709
74.9282968257908
74.9465288276068
74.9766270884839
75.0180346626898
75.0702026490243
75.1325866220728
75.2045396360393
75.2852549970557
75.3739118181705
75.4696865007901
75.5717510374508
75.6792714890945
75.7914066377452
75.9073068168226
76.0261129225287
76.1469556107778
76.2689546850223
76.3912186810394
76.5125704396604
76.6296580017762
76.7380665068989
76.8333298772135
76.9109493009584
76.966411027224
76.9952094861676
76.9928756479758
76.9550104083923
76.8773226403008
76.7556713839025
76.5861114685227
76.3649586731041
76.0916729366071
75.7719440021498
75.4122354394926
75.0189372849228
74.5983087798467
74.1564324170046
73.6991789661157
73.2321828833676
72.7608273229854
72.2902378571493
71.8252839632771
71.3705873445527
70.9305361999
70.5092092672389
70.1093606529718
69.7328867674201
69.3816108098053
69.0573121375034
68.7617423781325
68.4966421986579
68.2637588110913
68.0648643331905
67.9017751639707
67.7763725790503
67.6906248014202
67.6466108610176
67.6465466238572
67.6927013062563
67.7845306606133
67.918391971804
68.0905823157665
68.2974559399664
68.535383058677
68.8007126280228
69.0897388215346
69.3986710901028
69.7236078371992
70.0605138733576
70.4052019337818
70.753318648699
71.1003354453942
71.4419404757851
71.7754142332029
72.0984317353974
72.408599599482
72.7034627177545
72.9805127225629
73.237198296852
73.4709373743568
73.6791312416613
73.8591805167626
74.0085029356858
74.1245528307451
74.2048421644278
74.2481217878286
74.2574686079033
74.2370224077305
74.1909926250308
74.1236270799864
74.0391853076875
73.9419167047229
73.8360435838278
73.72574913752
73.615170242407
73.5083949904045
73.409464810848
73.3223810473445
73.2510594641181
73.1991302511412
73.1701479724821
73.1676946853643
73.1954043051206
73.2569908048841
73.3562806134976
73.497249692575
73.6840659347952
73.92113772058
74.2131697087867
74.5652272316901
74.9828057839829
75.4680684933226
76.0127680479978
76.6065085574438
77.2383558897054
77.896692081729
78.569097676145
79.2422673485264
79.9019657263545
80.5330314388407
81.1194379853904
81.6444197398528
82.0909070816866
82.4505314963843
82.7267551029344
82.924463170021
83.0491303177668
83.106716473972
83.1035641754455
83.046300273373
82.9417445859452
82.7968274888141
82.6185178837734
82.4137624706156
82.1892620009741
81.9501005019801
81.7004948853919
81.4445680362799
81.186347660467
80.9297627953625
80.6786442489285
80.4367287190154
80.2076663573271
79.9950315679279
79.802336867879
79.6330496860253
79.4902208027133
79.3726941749919
79.2768129935257
79.1989572473179
79.135562548667
79.0831055337022
79.038092551079
78.9970515267272
78.9565269292086
78.9130777848357
78.8632787047642
78.8037238881299
78.7312722851301
78.64828437615
78.5625664497413
78.4820970311264
78.4147909172992
78.3685179014284
78.3511372795828
78.370548125861
78.4347556806932
78.5519546948452
78.7306312240385
78.9796852049571
79.3083208039771
79.7147324088618
80.1809774365625
80.6873026885673
81.2130558562869
81.7365151291917
82.2348265011322
82.684063985302
83.0594282938419
83.3355966981595
83.4872301693559
83.4896332110553
83.3245723727408
83.0050821119863
82.556065629494
82.0028337252692
81.3704159571088
80.6830420908318
79.9637805534938
79.2343245644045
78.5149099678669
77.8243458181224
77.1801387625485
76.5986944581704
76.095481692196
75.676390350162
75.3314459993881
75.0497890323791
74.8211934697448
74.6359106808224
74.4845447680439
74.357955567172
74.2471864737949
74.1434152243555
74.0379263976058
73.9221047972376
73.787449051695
73.6256526738768
73.4343765088677
73.2225424141706
73.0001925795351
72.7771487794101
72.56299894869
72.367109599579
72.1986625437474
72.0667146667755
71.9802800308428
71.9484343411783
71.9804428044243
72.085913659689
72.2749812345705
72.5543432652658
72.9129720779166
73.3347714109363
73.8032202482502
74.301106172734
74.8103297083893
75.3117880617286
75.7853499171015
76.2099347206415
76.5637095789796
76.824413962384
76.9698163838952
76.9790465080577
76.8496836667687
76.5978571208801
76.2413031277264
75.7981128966193
75.2863037849955
74.7234755445109
74.1265544443302
73.5116223639991
72.8938240031255
72.2873431117815
71.7054378650005
71.1605258821092
70.6643106225087
70.2262393106299
69.8465267721123
69.5226675603144
69.2524673799804
69.0340161368775
68.8656633287012
68.7459971027637
68.6738264993999
68.6481664846303
68.6682254458435
68.7333948830207
68.8432410776803
68.9974985641395
69.1960652385243
69.4380626541406
69.7193010374635
70.0347884827881
70.3794405003675
70.7480295554444
71.1351412468195
71.5351375386329
71.9421277299064
72.3499480815426
72.7521512118205
73.1420065069341
73.5125128573891
73.8564250429677
74.1676207728171
74.4447358540619
74.6875923684815
74.8961187365177
75.0703489668271
75.2104211265375
75.3165750626889
75.3891494150302
75.428577969041
75.4353854056115
75.4101825101029
75.3536609084587
75.2665940564359
75.1504251868657
75.007718212163
74.8411705703525
74.6534844637394
74.4473513281466
74.2254382748203
73.9903765303047
73.7447518624891
73.4910969501589
73.231885628788
72.9695289268169
72.7063727939268
72.4446974423632
72.1876802694037
71.9418898117738
71.7145083518914
71.5125541859459
71.3429264988975
71.2124631269587
71.1280111173701
71.0965105203891
71.1250924833627
71.2211934843376
71.3926884815431
71.6480469246699
71.9965170618553
72.4466124548408
72.9909761473245
73.6127260518258
74.2941004647791
75.0161834705099
75.7586047727541
76.4993316211804
77.2145742960234
77.8788310620945
78.4651000056296
78.9452824594199
79.2907945382203
79.4752239129254
79.4984279513239
79.3801478487889
79.1419388593815
78.8060799511388
78.3949809474298
77.9307116349105
77.4346597472254
76.9273153135058
76.4281725339207
75.9557370107815
75.5276254352585
75.1607462089915
74.8687776487365
74.6475706327951
74.4864567816907
74.3752428856435
74.3040795721165
74.2633427562701
74.2435425134657
74.2352574448343
74.2290934695034
74.2156665538602
74.1856092009313
74.1296005806247
74.0384199880742
73.9054164896899
73.7380771251228
73.5488800727323
73.3501184441631
73.1538424477409
72.971849274348
72.8157116386193
72.696843053631
72.6265985600733
72.6164107396081
72.6779624120295
72.8233994888161
73.0655901382199
73.4162138618549
73.8686382098507
74.4064451270911
75.012707003635
75.6696791547403
76.3584797070085
77.0588473128271
77.7489916965459
78.4055569030046
79.003719958912
79.5174475579168
79.9199293079329
80.1868007119625
80.3170962223174
80.3229738349169
80.2179360234749
80.0163397079503
79.7330321527541
79.3830305452847
78.9812539891182
78.54231224193
78.0803518485988
77.6089575304614
77.1411048277119
76.6891302958156
76.2613672554728
75.859196271231
75.4832138028896
75.1340224673822
74.8122373031974
74.5184921259818
74.2534460235821
74.0177900445601
73.8122541406644
73.6376144310301
73.494700864246
73.3844053641038
73.3076890144709
73.2649751859485
73.2552183044678
73.2772219862915
73.3298717786309
73.4121255330492
73.5230045505465
73.6615853873448
73.8269922247771
74.0183897189842
74.2349762567282
74.4759775528229
74.7406405327348
75.0281800990707
75.3351583441807
75.6540015771841
75.9765484935816
76.2943574179844
76.5987046228611
76.8806022981477
77.130837740274
77.3400350704102
77.4987403037841
77.5975298595981
77.6271416252512
77.5786264927557
77.4463105056313
77.2373226541045
76.9624601123318
76.6326111428541
76.2585919593185
75.8510146709774
75.4201866221767
74.9760402000381
74.5280912324059
74.0854235130928
73.6566967330485
73.2501751134291
72.8737742766389
72.5344298485526
72.23348385553
71.9697903897759
71.7423177080472
71.5501550805863
71.3925053558733
71.268678516654
71.1780861321388
71.1202366259814
71.094731292483
71.1012610047545
71.1396035685913
71.2096216848171
71.3112386394093
71.4428523350155
71.6002665929546
71.7790233858649
71.974615114595
72.1824596477872
72.3978808579481
72.6160948764064
72.8322023823819
73.0411873042941
73.2379223410373
73.4171817031167
73.5736614239543
73.7020344811364
73.7994097921251
73.867318491289
73.9078306677004
73.9230903746495
73.9153002296691
73.8867069888163
73.8395882502388
73.7762404089486
73.6989679533419
73.6100741651115
73.5118532583896
73.4065839716421
73.2965227671081
73.1834434686499
73.0680428452744
72.9508613571451
72.8324330655234
72.7132854391747
72.5939392396698
72.4749084831021
72.3567004757135
72.2398159209351
72.1247490954079
72.0119880916463
71.9020151251438
71.7953069038903
71.6927325518474
71.5979673200016
71.515866543591
71.4512560274977
71.4089477161538
71.3937667178723
71.4105849060469
71.4643613921132
71.5601903806016
71.7033571810295
71.8994034755983
72.1542033416029
72.4740520256741
72.8650542513888
73.3228051583841
73.8341611687482
74.3851908597837
74.9612045682444
75.546606508544
76.1248041159629
76.6781847988178
77.1881716124599
77.6353693545275
77.9998108180472
78.2613090551046
78.4001214134017
78.4087880203174
78.2983673435893
78.0823682609094
77.7749422840493
77.3905401755728
76.9436148113879
76.4483767707799
75.9186050846412
75.3675122984202
74.8076606111971
74.2509243254739
73.7084930961102
73.1908940290871
72.7061258655737
72.2580552330046
71.8499889429931
71.4851638061334
71.1667910557995
70.8981031972038
70.6824037508534
70.523120558572
70.4238635436248
70.3884880756573
70.4211654009877
70.5264619786949
70.7094300385906
70.9747587204757
71.3174238881256
71.7262804306055
72.1899260398695
72.6965798217092
73.2339049181731
73.7888663304132
74.3476286183643
74.8955001194665
75.4169317572905
75.8955791985978
76.3144368086338
76.6560647721683
76.9087236254088
77.0758283944662
77.1637823252614
77.1795733854486
77.1306352669997
77.0247155171186
76.8697545585069
76.6737784202504
76.444807083812
76.1907795121666
75.9194957139433
75.6385756217027
75.3553761968439
75.0752311931342
74.8012018880785
74.5361405705966
74.2828212303559
74.0439481368388
73.8221662629093
73.6200734548676
73.4402342865955
73.2851955752385
73.1575035799884
73.0597229543066
72.9944575760902
72.9643617407505
72.971117491804
73.0146246491237
73.0946979189033
73.2112601355456
73.3643408795004
73.5540758843203
73.7807072192596
74.0445842443942
74.3461653457506
74.6860204685382
75.064834477506
75.4834113849384
75.9423044928286
76.4363497106489
76.9555472744047
77.4892447923964
78.0261899444542
78.5544940478973
79.0616298337856
79.5344684705095
79.9593607586698
80.3222667094689
80.6089362984069
80.8051419845213
80.8983429923958
80.8899937777001
80.7897997351879
80.6081233351032
80.3556836798392
80.0433605172731
79.6820247206183
79.2823979355598
78.8549423903842
78.4097804785262
77.9566426874226
77.5048417593749
77.0632543252071
76.6388994855807
76.2359225022669
75.858045362845
75.5088676985312
75.1918957882153
74.9105742905453
74.6683207038765
74.4685626867555
74.314778514782
74.2105411069778
74.1595662315848
74.1657657048326
74.2332302086019
74.3620965259021
74.5463293008463
74.7794929854539
75.0551887948899
75.366972236408
75.7082812386071
76.0723746626957
76.4522814746615
76.8407612879067
77.2302773484438
77.6129833197087
77.9807254378273
78.3258812709158
78.6436137676245
78.9296870684929
79.179828647543
79.3897634514297
79.5552525991823
79.672136304055
79.7363805056527
79.7441265183244
79.6917428186022
79.5758779195289
79.3935131235542
79.1433005666763
78.8304449258973
78.4621662079305
78.0457072781263
77.5882454247653
77.096817827865
76.5782607723122
76.0391623310607
75.4858278563459
74.9242573375599
74.360133505723
73.7988194742813
73.2453646900019
72.7046137192522
72.1817940396905
71.6821198015206
71.2105268198065
70.7717139767984
70.3701907734181
70.0103293581759
69.6964208451122
69.4327360330144
69.2235909549751
69.073418029539
68.9868439659767
68.968776015814
69.0244986866847
69.1579554225683
69.3638963331906
69.6341633766691
69.9607075913392
70.3354423196341
70.7501125090387
71.196181202476
71.6647335498813
72.1463997660959
72.6312994147242
73.1090101891984
73.568564941917
73.9984810093237
74.3884560068139
74.7358440545064
75.0404938047663
75.3024285835058
75.5218430417244
75.6990987012931
75.8347180213582
75.929377112566
75.9838972453317
75.9992353132185
75.9764734229683
75.9168077888024
75.8215412441834
75.6924400943039
75.5320049418782
75.3428479846176
75.1276040762236
74.888912620274
74.6294012579822
74.3516714283747
74.0582858356865
73.7517578203907
73.4345425976609
73.1090303003268
72.7775407424321
72.4423198211037
72.1061442303422
71.7738813677302
71.4507151538304
71.1416451457848
70.8515050523468
70.5849875223192
70.3466747362962
70.1410744953215
69.9726616894505
69.8459252440468
69.765420884614
69.7358303379755
69.7620279083824
69.8491141540896
69.9987603181656
70.2062078661931
70.4661705273465
70.7734384696015
71.1227986389231
71.5089626464287
71.9265016355813
72.369788004641
72.8329442655887
73.3097996955398
73.7938557798648
74.2782617511831
74.7558475408507
75.2208171348143
75.6693552738497
76.0976520596267
76.5017775122208
76.8777015254338
77.2213183635676
77.5284757878081
77.7950087856442
78.0167777411554
78.1897107299629
78.3098494541557
78.3734026264396
78.3785866632633
78.328397726892
78.2267611090001
78.0777756572078
77.8856634636531
77.6547228150141
77.389285100558
77.0936761838519
76.7721825635649
76.4290224854661
76.0683220254628
75.6940960447409
75.3102981303306
74.9227467352036
74.5393674784945
74.1678992587103
73.8157769280534
73.4901667717819
73.1980153121942
72.9461104022558
72.7411540343381
72.5898468297013
72.4989847975639
72.4755696740726
72.526935000415
72.6608574539402
72.8800352512719
73.1755919635906
73.5372818820196
73.9548055671329
74.4176252357714
74.914806768366
75.4348891142352
75.9657837070514
76.494708066391
77.0081589952085
77.4919315789294
77.9311904014317
78.3126728012689
78.6339669486053
78.8965914452713
79.1024093706858
79.2535952212416
79.3526016648585
79.4021246968918
79.4050680309084
79.3645075065584
79.2836562254836
79.1658310401766
79.0144209252231
78.8325849601996
78.6211432721126
78.3797643240359
78.1081907615167
77.8062524321872
77.4738687212747
77.1110503107197
76.7179003295325
76.2946148703262
75.8414828548986
75.3588852401541
74.8472935643813
74.3072678427557
73.7404003523256
73.1549195474418
72.5614462176555
71.9699821278989
71.3899022320936
70.8299843638287
70.2984604534741
69.8030856856501
69.3512227238364
68.9499389468155
68.6061155305751
68.3265681564441
68.1181801398727
67.988049884179
67.9427352471366
67.9794126600852
68.0897685708992
68.2658108832592
68.4997874499492
68.7840397436919
69.1108750987821
69.4724557136997
69.8607037641807
70.2672229784637
70.6832378944972
71.0995527523218
71.5065325524662
71.8941507317893
72.254924031586
72.5860053095445
72.8849914494469
73.1495038750159
73.3772079085015
73.5658332472957
73.7131953231539
73.8172172641962
73.8759521383555
73.8876051202192
73.8505551932009
73.7633759775435
73.6248836749835
73.4366850931794
73.2051019332901
72.9369438987185
72.6389617593387
72.3177892607936
71.9798979263217
71.6315643795391
71.2788495313052
70.9275887879243
70.5833923424368
70.2516545940848
69.9375717908192
69.6461670941466
69.3822228937936
69.1477755835372
68.9420117713613
68.76405658506
68.6131134488397
68.4884585296929
68.389435760011
68.3154523748575
68.2659749101359
68.2405256146202
68.2386792346522
68.2600601353705
68.3043397267391
68.3712341664919
68.4605081794388
68.5721526107449
68.7064194375595
68.8636193919372
69.0441111540244
69.2483032366369
69.4766561490283
69.7296848612728
70.0079615940547
70.3121189624336
70.6428535064154
71.0009296459776
71.3871841036841
71.8025305164438
72.2463358680871
72.7124926145671
73.1934417739907
73.681220512161
74.167431341458
74.6432290274385
75.0993278315441
75.5260318104054
75.9132907580075
76.2507839661175
76.5280332469918
76.7345455823699
76.8605028563748
76.905491440694
76.8772918017773
76.7843538908505
76.6354034910661
76.4393073040719
76.2049564963778
75.9411704402268
75.656621373723
75.3597798830489
75.058880494031
74.7619062513059
74.476590948336
74.2101000576738
73.9653607529553
73.7425795820373
73.5419413114748
73.3636595962367
73.2079789061325
73.0751765913583
72.9655651060263
72.8794944104254
72.8173545749501
72.779578611149
72.7666455582677
72.7790838570224
72.8174825513535
72.8826891106263
72.9758336549465
73.0981305920332
73.2508768261391
73.4354618001494
73.6533785959747
73.906236254665
74.195773504501
74.5238741172925
74.892584151353
75.3041313855498
75.7609473042063
76.2645812077109
76.8087728318481
77.3834617403022
77.9779931467006
78.5810476579445
79.1805862296548
79.7638290078125
80.3172738972429
80.8267608732186
81.2775876174936
81.6546808670495
81.9428289081564
82.1319224852989
82.2274072896651
82.2382941239782
82.1741667954507
82.0449963444219
81.8609730624798
81.6323604615126
81.3693738197764
81.0820845696726
80.7803506697762
80.4737722532959
80.171667070953
79.8800528082935
79.5964797109489
79.3171585447579
79.0384058489252
78.7566407744958
78.4683852617956
78.1702673107351
77.8590270952265
77.5315256599744
77.1847559163817
76.8158556261898
76.4221220288397
76.0014508504533
75.5602510490473
75.112302919141
74.671052147801
74.2493245425275
73.8593798359408
73.5130054881614
73.2216464393041
72.9965683639816
72.8490539733885
72.7906342997088
72.8333597588702
72.9901192900279
73.2746282901746
73.6874011791625
74.2109818910035
74.8266047237054
75.514841348678
76.2551183778381
77.0253245912047
77.8015229600236
78.5577915095707
79.2662237713899
79.8971228415171
80.4194212494518
80.8022318728772
81.0353008264814
81.1302624255924
81.1012743550079
80.9636821600105
80.733582959502
80.4274343657517
80.061721906302
79.6526924817739
79.2161564166264
78.7673567690375
78.3209018701292
77.8907367656013
77.4855621977331
77.1031156544964
76.739762794773
76.3920205280651
76.0565404541241
75.7300957391026
75.4095711069462
75.0919556715993
74.7743383699992
74.4539057796328
74.1279421191614
73.7938312376422
73.4490635452104
73.0934974663356
72.7331959301429
72.3750446664046
72.0256634197687
71.6914190977889
71.378450123359
71.0927009267133
70.839965745293
70.6259411914907
70.4562873920864
70.3366978984147
70.272979018886
70.2711397489472
70.3372508669302
70.4712668502553
70.6664036212943
70.9157001637954
71.212252911738
71.5491109581478
71.919184247652
72.3151643511595
72.7294581490098
73.1541353875479
73.5808916224395
74.0010285059004
74.4054536881793
74.7849707757269
75.134217238093
75.4509952181378
75.7332253515926
75.9788779714916
76.1859899770215
76.3526821912331
76.4771769862711
76.5578159296745
76.5930771841662
76.5815923772886
76.5221626473068
76.4137736010076
76.2567589396855
76.055804306161
75.8166102901212
75.5448732126635
75.2462345934768
74.9262393621477
74.5903027947458
74.2436859295944
73.8914790458979
73.5385926733792
73.1897555357068
72.8495188094114
72.5222660967625
72.212189183919
71.9230417687663
71.6583352055776
71.4215105196168
71.215966490938
71.0450898504483
70.9122885877446
70.8210286292383
70.7748742917924
70.7775330846139
70.832905627258
70.9451416834482
71.1187035912321
71.3583663709084
71.6642566248807
72.02837666281
72.4418762150365
72.8956735945185
73.3803314443764
73.8859530605918
74.4021013889946
74.9177439043093
75.4212274722753
75.9002879009283
76.3420991051262
76.7333665235193
77.0619990377028
77.3267517200749
77.5314582507897
77.680369422105
77.7780683738056
77.8294058260781
77.8394383380749
77.8133709987476
77.7565056708053
77.6741956260843
77.5718071458578
77.4546884238532
77.3280769450651
77.1945773559496
77.0534845162968
76.9038956340255
76.7449281421987
76.5757217321559
76.3954405415439
76.2032754783706
75.9984466603896
75.7802059473163
75.547839541629
75.3006706320631
75.0380620524146
74.7597462243805
74.4704717137697
74.1787289737206
73.892854047644
73.6209291506924
73.3708067559064
73.1501502330435
72.9664900167969
72.8272947224905
72.7400571907625
72.712396130492
72.7521748578033
72.8676396325526
73.0673145102827
73.3519859606933
73.7129668067047
74.141109443351
74.6271754442252
75.1616624674435
75.734651362957
76.3356741896019
76.9536054933771
77.5765806871788
78.1919466637959
78.7862507811296
79.3453380999925
79.8588605101466
80.3235724646605
80.7370152716914
81.0968789758505
81.4010268045825
81.6475188127313
81.834634289356
81.9608924914548
82.0250712823256
82.0262232782512
81.9636891459
81.8373791621881
81.6516478993006
81.4142732215591
81.133166378924
80.8161959451344
80.4711144480024
80.1055006770105
79.7267173409114
79.3418833605157
78.9578598223219
78.5812484768689
78.2184016275865
77.8754294245223
77.5570858411558
77.2659500849507
77.0043535197241
76.774615653465
76.5790645251703
76.4200585061389
76.3000096996106
76.2214091852421
76.1868544255221
76.1990792324205
76.2609867875973
76.375686322531
76.5458941772185
76.7683765601553
77.0365203256365
77.3436516920118
77.6829966821677
78.0476143247378
78.4303409417512
78.8237461411228
79.2201015307102
79.6113634897202
79.9891715578354
80.3448641112677
80.6698199993433
80.9576432908452
81.2030194021329
81.4006515204191
81.5453096947763
81.6318927414687
81.6554953631978
81.6114792562859
81.495546672855
81.303814621662
81.0328876523989
80.6799269953274
80.2446395880527
79.7384111443406
79.17652568008
78.5737975780178
77.9444042790024
77.3017820346224
76.6585736451264
76.0266217766647
75.4170012144129
74.8400837693054
74.3056303541691
73.8229058437048
73.4008136308698
73.0467539980498
72.7580442472552
72.5276634758542
72.3490122566188
72.2158438855854
72.1221820663874
72.0622514824506
72.0304196084354
72.0211485766083
72.0289562823684
72.0483862040808
72.0739856375977
72.1002922127022
72.121994440311
72.1382073422711
72.1528637310121
72.1701454238489
72.1942427035108
72.2293598073523
72.2797253223236
72.3496075671156
72.4433351065941
72.5653226334635
72.7201025704444
72.9123628969316
73.1469918928366
73.4289918217221
73.7573255738766
74.1221736861708
74.5127633354121
74.9179085006951
75.3259423882678
75.7246835534715
76.101439724153
76.4430536092824
76.7359947061349
76.9665001935372
77.1207663320807
77.1851893483499
77.1498552593902
77.0210201306326
76.8101863255186
76.5291917279511
76.1899828296512
75.8044236099015
75.3841419156891
74.9404138108262
74.4840846607594
74.0255245282207
73.5746147478221
73.1407622686964
72.7329384323795
72.3592758890398
72.0231871017099
71.7255678988257
71.4673516418545
71.2495506635737
71.0732704623546
70.9397249148731
70.8502527525194
70.8063355841828
70.8096177935891
70.8619286949308
70.9653073986599
71.1220309231504
71.3346258052055
71.6034390579987
71.9242031804853
72.292141621598
72.7024428958587
73.150193385786
73.6303155839362
74.1375117488503
74.6662133078588
75.2105366813677
75.764246527236
76.3207277041778
76.8729675183694
77.4136747417398
77.9361624538154
78.4339043931161
78.9001183045215
79.3278057001947
79.7098075106456
80.0388733400862
80.3077442870434
80.5092487338397
80.6364098602844
80.6825629228431
80.6414795978307
80.509437204981
80.2946353604221
80.0097063777412
79.6673677160766
79.2802223608131
78.860605726505
78.4204734880957
77.9713287203355
77.5241855788048
77.0895661301306
76.6775267677496
76.2977108553284
75.9593960243786
75.6681720040656
75.4229361074976
75.2220011882802
75.0638603531067
74.94717140823
74.8707432066839
74.833523651082
74.8345891433974
74.8731353037331
74.9484688057885
75.0600001983752
75.2072376006293
75.3897251171424
75.6057960329697
75.8525252358369
76.1269234902309
76.4259683459337
76.7465814284859
77.0856078718827
77.4397979431225
77.8057909777898
78.1801018098388
78.5591099366557
78.9390517112151
79.3160194044297
79.6861175531426
80.0455363304742
80.3903586446517
80.7165547765672
81.0199973382636
81.296480673799
81.541744846876
81.7515042683987
81.9214809046643
82.0474418743228
82.1252410920703
82.1514599273784
82.1292781958311
82.065958818257
81.9689151623657
81.8455881023851
81.7033921902821
81.5496753737773
81.3916922289588
81.2365904231135
81.0914099743281
80.9630948242344
80.8585162827796
80.7835561529049
80.7373565566439
80.7162053070779
80.7164376465695
80.7344269146399
80.7665669483951
80.8092577972992
80.8588946750055
80.9118601186732
80.9645193616648
81.0132189489677
81.0542886360772
81.08580795394
81.1135994345157
81.1456321645958
81.1899017175716
81.2544463721386
81.3473793479454
81.4769374211574
81.6515466838001
81.8799067039836
82.1710950107285
82.5346947028725
82.980725561031
83.5097858630463
84.1084723712541
84.7618089820683
85.4540215404192
86.1683369431842
86.8868378786769
87.5903837310405
88.2586104601714
88.8700233748916
89.4021961980385
89.8338772024234
90.1654576733971
90.4126106741666
90.5921968863629
90.721724675298
90.8191225281909
90.9025769764439
90.9904408140666
91.1012143441206
91.2536014696591
91.4666229284206
91.7518348378445
92.1009813952111
92.5026239114489
92.9450992857826
93.4163943219219
93.9040480316658
94.3950841149635
94.8759767734819
95.3326536632164
95.7505432600964
96.1170066864755
96.4257097472185
96.6714983953572
96.8493670510157
96.9545224277823
96.9824499849749
96.9289816545481
96.7903632936209
96.563320155574
96.2451247794232
95.8361174663747
95.3433557036373
94.7750822915891
94.1396169774346
93.4452452982097
92.7001215388913
91.9121865064101
91.0891002056105
90.2381889951694
89.3664064058943
88.4804156709049
87.5924181529665
86.7225151022449
85.8899604376838
85.1125495062521
84.4068524163057
83.7885039431
83.2725416564916
82.8737892704441
82.607287994476
82.4887850782428
82.5352962258523
82.7624807108579
83.1564761317023
83.6867356816769
84.3223672116619
85.0313725928303
85.7799073615084
86.5317743821971
87.2481908951406
87.8878824916875
88.4075616091654
88.7628383005653
88.917501520491
88.8792911860613
88.6723082336066
88.3223290752216
87.8559171771476
87.2996761454868
86.6796592439721
86.0209427868171
85.3473583870584
84.6813707870008
84.04408373841
83.454947084976
82.9197018674137
82.4291440422886
81.9737616921376
81.5445207874609
81.1327943969209
80.7303128557497
80.3291326032609
79.9216217971912
79.5004610413552
79.0586576534818
78.5895718774859
78.0869668915246
77.5504045594612
76.9929649400488
76.4291329985446
75.8725988190243
75.3362729178332
74.8323468306796
74.3723924286538
73.9674946971911
73.6284143851236
73.3657789095107
73.1903021600761
73.1130364281151
73.1456625682761
73.295708304216
73.5531256901827
73.9042544305558
74.3356523673907
74.8337559479228
75.3845877332078
75.9735090203241
76.5850200003972
77.202613654407
77.8086927517924
78.3845616648925
78.9105059139219
79.3682166900767
79.7521532673455
80.061860445366
80.297346951469
80.4590713534504
80.5479279337551
80.5652265450212
80.5126670821172
80.3923093227766
80.2065389735235
79.9580308082993
79.6497098044092
79.2852696928284
78.8724754867265
78.4206891620338
77.9390354143933
77.4363224510034
76.9209918136317
76.4010886563146
75.8842504956644
75.3777123139721
74.8883259191208
74.4225916167448
73.9867004980367
73.5865859652469
73.2276101553712
72.9117958318176
72.6395647950654
72.4114412613672
72.2280755382062
72.0902548715246
71.9989156300223
71.9551570598107
71.9602568804955
72.0156890399529
72.1231440015748
72.2845520070158
72.5021098425955
72.7780952900501
73.1107540697997
73.4944479388511
73.9233353611032
74.3914334349426
74.8925402349907
75.420165257441
75.9674686282344
76.5272102363452
77.0917104186577
77.652824233732
78.201931695213
78.7299713566851
79.2292068783767
79.694521089098
80.1209536554139
80.5034806328335
80.8370610052226
81.1166894326597
81.3374546989142
81.4946030829378
81.5836056005742
81.6002277866001
81.5406004291974
81.4016221512217
81.1872873845469
80.9079914005119
80.5744351345995
80.1972453337403
79.7868525582199
79.3533980099983
78.9066683392546
78.4560567561092
78.0105482639183
77.5787266013739
77.1688004905726
76.788646961075
76.4447309670372
76.1392366864892
75.8734352944445
75.6486634136358
75.4663401078203
75.3279849668094
75.2352375523679
75.1898785187935
75.1938527756082
75.2492951247247
75.3585588836329
75.5242481033252
75.7491918816217
76.0330519771455
76.3704209462879
76.7554659193596
77.1822742649068
77.6447769545602
78.1366798407639
78.6514031431595
79.1820298979617
79.7212645464542
80.2614032161133
80.7943175654645
81.3115425648595
81.8062647815556
82.2734758603936
82.7081123075233
83.1050010218998
83.4588988259094
83.7645388491176
84.0166835482955
84.2101838964802
84.3400439974128
84.4014900895732
84.3900464913186
84.3044135551395
84.151418655883
83.9394560855339
83.6770327175894
83.3726610265829
83.0347691424201
82.671628532278
82.2912992269557
81.9015919855994
81.5100464237139
81.1239239056504
80.7501961944998
80.3934576859767
80.0540578898415
79.7318793324387
79.4268203688578
79.1387952844342
78.8677344307836
78.613584397923
78.3763082242061
78.1558856459846
77.9523133891148
77.7656055046534
77.5957937513348
77.4433720435165
77.3114307228667
77.2039778846611
77.125018199277
77.0785796311327
77.0687457732552
77.0996928123431
77.175731597544
77.3013554743014
77.481294769874
77.7205790901452
78.0246089225911
78.3985247408269
78.8369118571218
79.3256182206203
79.849714966504
80.3935449431088
80.9405989852195
81.4734539716862
81.9737820545188
82.4224411411371
82.7996559967581
83.0852968803199
83.2592594458416
83.3081672846547
83.2402772752959
83.0690788707111
82.8086826966192
82.4735027365727
82.0779819765514
81.6363672703845
81.1625356611939
80.6698715495914
80.1711920218523
79.678716333527
79.2040749158686
78.7567625368805
78.3382718743877
77.9477980281213
77.5846020980209
77.2480079110017
76.9373986542896
76.6522138594097
76.3919467082398
76.1561416361047
75.9443922100601
75.7563392633611
75.5916692696806
75.4501173925227
75.3322111531633
75.2400953217153
75.1761431694402
75.1427704669256
75.1424547017061
75.177756269378
75.2513419076991
75.3660107132432
75.5247231628687
75.7306336609674
75.9871272525442
76.2978612872815
76.6659991588728
77.0851055868948
77.541967224212
78.022711196553
78.5127984723431
78.9969504687422
79.4591314127197
79.8825940193743
80.2499959700607
80.5435933920352
80.7455148511754
80.8381151517674
80.8070696781728
80.6600116660488
80.4153014527756
80.0917330527226
79.7080763533889
79.2827649716895
78.8336734762377
78.3779811589968
77.9321162005247
77.5117724131313
77.1319905438912
76.8072971126944
76.5518240406115
76.3709908507522
76.2537914999935
76.1877837740434
76.1608510089539
76.161058765215
76.1765510321186
76.1954841218757
76.2059975380514
76.1962217274314
76.1543227642128
76.0685836730145
75.9275212786609
75.7210924046356
75.4558705956918
75.1510459924697
74.8257198284302
74.4984185036344
74.1870441549869
73.9089141697636
73.6808822453841
73.5195352824776
73.4414635429272
73.4636060064035
73.6036788074999
73.8807023864383
74.3137238879613
74.8978195903608
75.6098864180196
76.4257603796662
77.3197803858512
78.2640712647566
79.2279796369434
80.1777051192419
81.0761866276292
81.8833146922022
82.5565415146484
83.0519485375231
83.3381009408678
83.4266943061537
83.3409703276835
83.1063668801392
82.7495475058534
82.2975584397486
81.7771479692403
81.2142632797394
80.6337242084765
80.0590624467609
79.5125086950121
79.0151085045935
78.5832633809407
78.2134906469775
77.8963288829722
77.6228146704775
77.3843768266003
77.1727495248959
76.9799057621715
76.7980092454909
76.61938330545
76.4364957992419
76.2419591732734
76.0285449264465
75.7892628168336
75.5234944984395
75.2425494413181
74.9587938293263
74.6842343583988
74.4305315291885
74.2090497131702
74.0309415422095
73.9072650689195
73.8491334458041
73.8678985718575
73.9753723025798
74.1840915253498
74.5074080359541
74.947185851072
75.4866327795995
76.1070687401553
76.7890095295298
77.511755059098
78.2530687423306
78.9889649780809
79.6936286982103
80.3394955113248
80.8975218720384
81.3376704965687
81.6309436467447
81.7720737248044
81.7770176444368
81.6638409385262
81.4515425135943
81.1595579797246
80.8073444487273
80.4140568813757
79.9983188538694
79.5780851834701
79.1705903383283
78.792374861156
78.4592065154163
78.176712790675
77.9359688494577
77.7272051388363
77.5409456303234
77.3679407239834
77.1991237374661
77.025589527619
76.8385941290604
76.6295744116488
76.3901866776359
76.112362859102
75.788382560526
75.4121253558288
74.9918763206428
74.5449053164077
74.0879594801001
73.6370228701676
73.2073188225115
72.8133772138992
72.4691589746985
72.1882319707132
71.9839949444623
71.8699494670744
71.8600238242019
71.9689576146941
72.2125043633719
72.5937255066483
73.0951223449193
73.6975335374893
74.3812758408208
75.1255958169083
75.9082138388766
76.7049737376294
77.4896221062087
78.2337498366099
78.9069336459094
79.4771153403717
79.9114706666445
80.1927465716704
80.3306555673669
80.339087196257
80.2332958273731
80.029439458157
79.7441600172662
79.3942210584028
78.9962124849915
78.5663263930892
78.1202036558036
77.6728476686803
77.2385997309493
76.8291980950979
76.4445052142142
76.0803271233956
75.732641853643
75.397584691958
75.0714322153472
74.7505904734911
74.4315869507812
74.1110659848629
73.7857873491125
73.4526277230515
73.1085847796398
72.7507836136709
72.3771476399402
71.9936315485691
71.61115965808
71.2402968637198
70.891176797754
70.5735550928725
70.2968887162907
70.070439358799
69.9033999399906
69.8050446009236
69.7849041170197
69.8529705377129
70.0199371584329
70.2974828375286
70.6935391757638
71.1968831853653
71.7913251336023
72.4601836463587
73.1858478774052
73.9494061111678
74.7303507158348
75.5063770903217
76.2533007419743
76.9451210961778
77.5542618954162
78.0520146688077
78.411563195995
78.6295139375399
78.7169007399995
78.6864023975037
78.551797956914
78.3275815076124
78.0286130425615
77.6698172399395
77.2659372410959
76.8313462846735
76.37991666448
75.9249430241768
75.4791154791155
75.0525407534847
74.6469787957997
74.2621719961319
73.8978882134097
73.5539205605169
73.2300872599454
72.9262315709468
72.6422217895232
72.3779513229988
72.1333388413571
71.9083285079912
71.7028902930201
71.5170203728666
71.3508379325577
71.2061600748944
71.0862231866663
70.9943092825805
70.9337255283254
70.9078324954348
70.9200759079208
70.9740222918275
71.0733990846273
71.2221399347345
71.4244361304567
71.6847953533074
72.0081092672487
72.3996750574967
72.8601324681083
73.3810476958534
73.9527457879086
74.5650802720382
75.2072865390853
75.8678594463564
76.5344596665801
77.1938548602218
77.8319029970739
78.4335859361652
78.983101486831
79.4640454056855
79.8656833614698
80.1915023506333
80.4476200093101
80.640737729268
80.7780267270651
80.8670203522375
80.9155159134001
80.9314885957311
80.9230193555083
80.8982380529768
80.8652825577021
80.8322214987118
80.8034108336088
80.7771542749008
80.7512011534534
80.7233067420216
80.6912327047975
80.6527487888339
80.6056357454753
80.547689464602
80.4767262963817
80.3905895244497
80.2871569411716
80.1643918544363
80.0226640740947
79.8659025643295
79.698288723255
79.5239473817875
79.3469381101136
79.1712508056548
79.0008053891353
78.8394554267254
78.6909955046094
78.5591722063138
78.4476985815304
78.3602719874083
78.3005010687763
78.2717397822279
78.2773466469943
78.3207670322072
78.4055649379863
78.5354587882454
78.7143618451455
78.9464280226247
79.236104079987
79.5881894267288
80.0079050806249
80.5009588049355
81.0675869911369
81.6927833032324
82.3583331778922
83.0448815879276
83.7317602683801
84.3969074705368
85.0168977617939
85.5671004398224
86.0219834348398
86.3555744032851
86.542083304288
86.5653516213052
86.4396473748127
86.1866252006094
85.828708327569
85.3885041348078
84.8883322988338
84.3498731678391
83.793935165859
83.2403338624636
82.7078718144651
82.214407096212
81.7768009609632
81.4003903770522
81.0741506142
80.7862376961367
80.5252521560651
80.280145416741
80.0401591758726
79.7947952249969
79.5338136807179
79.2472578124007
78.9255035523231
78.5593314125973
78.1400190891797
77.6649570977555
77.1499911760392
76.6140503648409
76.0751391840991
75.5502973776279
75.0556404364497
74.6064699843426
74.2174447445788
73.9028054779918
73.6766507601852
73.5532646617153
73.5475023873718
73.6752457852871
73.9463744778198
74.3447503131467
74.8484613372822
75.4353012245824
76.0821610178292
76.7645428944705
77.4562078657459
78.1289811204978
78.75274730104
79.2956719878199
79.7246831846421
80.0062358759148
80.1162682694388
80.0649063220565
79.8715974695029
79.5570707020964
79.1426749740323
78.6498124316431
78.0994834566966
77.5119494849589
76.9065108962937
76.3013913122702
75.7137162910475
75.1595733262581
74.6541193105953
74.2064878499837
73.8134173532004
73.4702750270169
73.1727656619532
72.9168787855388
72.6988430038446
72.5150864251351
72.3622022799512
72.2369190299609
72.1360744027074
72.0565929078753
71.995466488152
71.9497380381321
71.9170375545773
71.8985561682604
71.8968989755043
71.9146954437088
71.9546091963881
72.0193533856791
72.1117083084487
72.2345414719061
72.3908303785834
72.5836883766693
72.8163940128107
73.0924244343515
73.4154935214783
73.7887141227853
74.2084876498484
74.6678427992732
75.1595325019508
75.6759735567398
76.2091795440715
76.7507078295193
77.2916228944526
77.8224787106962
78.3333232144732
78.8137280806297
79.252846891934
79.6400595276834
79.9705957197201
80.2435091385771
80.4581606665117
80.6141718514038
80.7114270838614
80.7500728425376
80.7305140444769
80.653407596439
80.5196532987074
80.3303823031563
80.0869433708371
79.7913331100037
79.4504865129769
79.0741814372172
78.6720112143261
78.2532736668412
77.8269261993753
77.4015630823074
76.9854129368207
76.5863543492081
76.2119476419575
75.8694810746754
75.566030109763
75.3085288337166
75.102051651272
74.9430784860013
74.825724972733
74.744325899106
74.6933776164909
74.667489439315
74.6613436992002
74.6696638640892
74.6871903532984
74.7086638483472
74.7288160211564
74.7423676781413
74.7440360072952
74.7311674172288
74.7090550045562
74.6844826810213
74.6642191435056
74.6550195550213
74.6636394645003
74.6968609668646
74.7615312574845
74.864613983077
75.0132541403969
75.2148577369399
75.4771880250984
75.8082351169122
76.2072802109563
76.6618547055846
77.1583151585244
77.6824141634204
78.2191564124757
78.7527062591792
79.2663545498221
79.7425537471079
80.1630305626083
80.5089841498182
80.7613751045848
80.9020765660683
80.9289500945499
80.8549565025704
80.6943098030966
80.4616243597237
80.1716340822232
79.8389628759682
79.477949365862
79.1025258706805
78.7261493944646
78.3617810339401
78.0219096109901
77.718594349391
77.458351793886
77.2356054265812
77.0433261789825
76.8746992102083
76.7230758835425
76.5819382908594
76.444875503062
76.3055709452431
76.1578004289679
75.9954404288571
75.8124861726073
75.6030790284252
75.3617759659116
75.089554826435
74.7941310162537
74.4833779270386
74.1649472146744
73.8462478262229
73.5344406160351
73.2364472931198
72.9589724755671
72.7085377703037
72.4915270307163
72.3142422579069
72.1829699963673
72.1040518878057
72.0813161915948
72.1120980851109
72.1929217386982
72.3204982247593
72.4916801320248
72.7034204215181
72.9527348202924
73.2366672095141
73.5522576018775
73.8965124254826
74.2663769416194
74.6587097256347
75.0702375862312
75.4963346231896
75.9303059510864
76.3649875820653
76.7928827036023
77.2061630895285
77.5966863213694
77.9560304639798
78.2755476415413
78.5464375858125
78.7598416604078
78.9069570963281
78.9791876326224
78.9726301014815
78.8938821147583
78.7513183644793
78.5535338749542
78.3092173678129
78.0270424392782
77.7155778908362
77.3832176550193
77.0381300325859
76.6882254180158
76.3411413338544
76.0042434073974
75.6844482642564
75.3846389762342
75.10413849225
74.8421803827055
74.5980388538237
74.3710255983334
74.1604868973103
73.9658009486368
73.7863754002212
73.6216450684702
73.4710698245881
73.334132633112
73.2103377287191
73.0992465196486
73.0018433862133
72.9209077769801
72.8593302656475
72.8200092222859
72.8058675633202
72.8198719446528
72.8650545703212
72.9445378613784
73.0615623146664
73.219517981767
73.4219801185776
73.6727497009049
73.9757391612897
74.3291059464365
74.723271077564
75.1478487329915
75.5920352384086
76.0445285219222
76.4934781822139
76.9264701682502
77.3305505805494
77.6922931392821
77.9979143100746
78.233438827818
78.3849307508748
78.444536094086
78.4195850639587
78.320234706876
78.1570037209511
77.940589897533
77.681713872276
77.3909917548134
77.0788376134348
76.755395518507
76.4304999244672
76.113662591114
75.8140839846464
75.5404751269541
75.2956923221582
75.0764875964707
74.8794320976465
74.7012052753148
74.5385767265961
74.3883912435627
74.2475568247957
74.1130354639943
73.9818365675285
73.8510128813197
73.7176588264991
73.5789111536864
73.432063208593
73.2786132134422
73.1253288876707
72.9792102594495
72.8471481148754
72.7359446106049
72.652346495159
72.6030907179787
72.5949625154265
72.6348664704067
72.7299115564355
72.8875118168638
73.1155051272713
73.4221768486929
73.8082755576401
74.2613311913672
74.7673065183476
75.3115809507301
75.8787516118154
76.4524887155012
77.0154537385415
77.5492911420539
78.0347055373568
78.4516358001764
78.7795352928801
78.9977840252247
79.0947441833176
79.0813846418865
78.9730049122897
78.7855002201566
78.5350166891292
78.2376671376024
77.90931275318
77.565411675426
77.2209324014024
76.890327974048
76.5875660521729
76.3262100638845
76.1188814899634
75.9665417366293
75.8605621140338
75.7922855157953
75.7532460795001
75.7350945694642
75.7295431473544
75.7283287089661
75.7231943933598
75.7058891248242
75.668185135182
75.6019133360565
75.4990161700467
75.3535080088203
75.1717358475904
74.9648163598311
74.7437095248648
74.5191510119664
74.3016285983435
74.1013888850089
73.9284725447755
73.79277659753
73.7041427797464
73.6724719361462
73.7078655112062
73.8207966864001
74.0196175545255
74.2959228653174
74.6345661816799
75.0201617446078
75.4368635791757
75.8681887206628
76.2969063170492
76.7050000540811
77.0737129019124
77.3836832773358
77.6151800261059
77.7484398651571
77.7647976443182
77.6623995779118
77.4562876613717
77.1627916200538
76.7984466466179
76.3796688272955
75.922501635815
75.4424342469486
74.9542886481874
74.4721700693783
74.009474010639
73.5789429519817
73.1927664703838
72.8625824441876
72.592193532219
72.3741471947625
72.2004544827001
72.0634490311871
71.955701694092
71.8699528083458
71.799060502149
71.7359639894855
71.6736611734059
71.6052001298594
71.5236841731124
71.4222902194136
71.2943000723553
71.1350696261227
70.9513008013759
70.7536504935421
70.552577204038
70.3583113428658
70.1808615768675
70.0300499144057
69.9155741197083
69.8470966380485
69.8343601056622
69.8873307188136
70.0163722799191
70.2324557036474
70.547336719543
70.9648012178013
71.471620428059
72.0523220539708
72.6907923756185
73.3699419632907
74.0714357901982
74.775499270712
75.4608170524481
76.1045452802523
76.6824597891988
77.1692613324914
77.5390535230821
77.7703463662676
77.8680070231205
77.8476014272564
77.7258518245217
77.5201561110352
77.2481805727126
76.9275265488953
76.5754774106284
76.2088267571449
75.8437847673847
75.495957240774
75.1803909108693
74.9116780413775
74.6998015385783
74.5404632712228
74.426712227145
74.3518603978021
74.3094075469466
74.2929791788911
74.2962765149922
74.3130377070693
74.3370098400906
74.3619315155969
74.3815259685158
74.3895047560372
74.3795902152894
74.3487980349496
74.302421910608
74.2470322839785
74.189171538239
74.1353439455294
74.092017093121
74.0656346255532
74.0626401922745
74.0895126247733
74.1528125839841
74.2592412214304
74.4157117947164
74.6293679792868
74.9015765386226
75.2228892058183
75.5825659065003
75.9695657192278
76.3724435222655
76.7792779433668
77.1776338145968
77.5545631116524
77.8966486788664
78.1900948038503
78.4208678025233
78.5748889757744
78.6424914605015
78.6284608247242
78.5409955039
78.3886643850242
78.1802585775009
77.9246594520093
77.630725444563
77.3071990085314
76.9626341382665
76.6053441174669
76.2433685757474
75.8844585638563
75.5360166676647
75.2024160965539
74.8840836578483
74.5811628221767
74.2938022373271
74.0221568977283
73.7663893230906
73.5266707519531
73.3031823562203
73.0961164831483
72.9056779316631
72.7320852703687
72.575572205138
72.4363895217366
72.3151795881567
72.213629211775
72.1336106922159
72.0770148320298
72.0457630050343
72.0418203815481
72.0672104348287
72.1240308870004
72.2144712919394
72.3408324982428
72.5055482891535
72.7112095601826
72.9605914717598
73.2545885589279
73.5849757732766
73.9407566338891
74.3105546251535
74.6825465967339
75.0444312822473
75.3834368005921
75.6863711643631
75.9397194728318
76.1297904437651
76.2429131642934
76.2656823950108
76.1854972863782
76.0018883424398
75.7307476597123
75.3893542992779
74.9948693322139
74.564068694349
74.1131557553347
73.6576501105807
73.212346446035
72.791336093268
72.408083874073
72.0755537939095
71.8063788723359
71.6130727476286
71.5046559383142
71.4746602504123
71.5128039824711
71.6091938708197
71.7541489350151
71.9380537668091
72.1512386091241
72.3838849947393
72.625956939736
72.8671586269285
73.0969201719718
73.3044134179571
73.4785997157073
73.6110020067956
73.7074667424565
73.7787632807997
73.8358187021094
73.8896566346429
73.9513713697883
74.0321350472179
74.1432385452066
74.2961670203723
74.5027117946349
74.7751215250708
75.1262973892802
75.5700036320981
76.1121097991359
76.7380598413371
77.4297152501926
78.1678392629328
78.9317725919802
79.6991992053425
80.446022481278
81.1463770261024
81.7728037038165
82.2966137625181
82.6884610732414
82.9207462272913
82.9918446341158
82.9214323157913
82.7311559377503
82.4434439864213
82.0809319956447
81.6660053636779
81.2204672347619
80.7653300450248
80.3207233427532
79.9059073334031
79.5393809501842
79.23845800402
79.0060652667727
78.8313353640546
78.7032534065554
78.6111336008164
78.5445073929326
78.4930416333994
78.4464849971726
78.3946416582575
78.327371662956
78.2346175902681
78.1064569431945
77.9332056858782
77.7120529512702
77.4554916051224
77.1779285125434
76.8934263340573
76.6156560885702
76.3579000493695
76.1331014179713
75.9539576466968
75.8330553411478
75.7830463076
75.8168665076046
75.9480025034712
76.1898064958137
76.5391327921435
76.9783789612104
77.4892837347345
78.0529853442265
78.6496901106631
79.2584280549168
79.8569078064546
80.421487776958
80.9272830559734
81.3484270017726
81.6585021806141
81.8348032367359
81.881448434287
81.8150772096845
81.6532984475229
81.414202334809
81.1159856433379
80.7766553587287
80.4138142361375
80.0445271666724
79.6852640851724
79.3519135015187
79.0598604423671
78.822993529111
78.6414625086962
78.5066516887369
78.4100824802662
78.3434855704582
78.298729181795
78.267765325583
78.2425931523873
78.2152388992577
78.1777521796151
78.1222184642398
78.0407875648599
77.9258247909706
77.7758033400617
77.598231272678
77.4012897084145
77.1930377523827
76.9813817456012
76.774061294164
76.5786512613422
76.4025788632983
76.2531550963738
76.1376199293989
76.0632010089164
76.0371860449237
76.0662411973167
76.1498239970558
76.2834307516015
76.4626549770696
76.6831761438942
76.940708171287
77.2309530158582
77.5495589396352
77.8920832565947
78.25395954827
78.630469511626
79.0167197575472
79.4075430481517
79.7963100347619
80.1751394364877
80.5358327403187
80.8699250091011
81.1687281714158
81.423393578647
81.6249944770603
81.7646283962428
81.8335386231184
81.8232529336416
81.7257366340691
81.5355548440654
81.2607590456294
80.9147813062535
80.5110707032511
80.0628776606838
79.5830966533619
79.084153882331
78.5779374948502
78.075766774997
77.5883961643067
77.1260498977583
76.6984833629428
76.3150074506188
75.9792296839752
75.6851594800649
75.4261268290857
75.1957345154774
74.9878040745164
74.7963334754596
74.6154654679643
74.4394657933539
74.2627106485459
74.0796829084221
73.8849766696186
73.6733096810338
73.439572293858
73.1837083420299
72.9159766243262
72.6476640499159
72.3897344106777
72.1528458737703
71.9474000394193
71.7836205748973
71.6716602372275
71.6217362280882
71.6442952865782
71.7502117616898
71.9510242125742
72.2592190282218
72.6839899747845
73.2135053444543
73.8291908776571
74.5117245024288
75.2405847380483
75.993688562114
76.7471367137536
77.4750913091161
78.149816500819
78.7419150877906
79.2207908454579
79.5553562484315
79.7203159317595
79.7231059025876
79.584439760571
79.3264172592941
78.971800608625
78.5434159587947
78.0636828387501
77.5542773505237
77.0359254214841
76.5283161875166
76.0501224636139
75.6191148146417
75.252348796026
74.9602287032945
74.7361227073928
74.5710077829192
74.4563113334634
74.3837870710594
74.3454132454334
74.3333106289127
74.3396785434669
74.3567478889526
74.3767506298113
74.3919055404064
74.3944202060875
74.3765379972318
74.3353811085724
74.2783504789681
74.2141301715002
74.1513540666032
74.0985992708567
74.0643994697839
74.0572779572767
74.0858002994791
74.1586470066661
74.2847071996136
74.4731950871777
74.733792158397
75.0765389013527
75.5016774694959
75.9961700665942
76.5457234209838
77.1353980853198
77.749398998569
78.3709210330982
78.9820588260334
79.5637926841856
80.0960636801821
80.5579507894558
80.9279605775135
81.1854455368527
81.3278035585603
81.3684205556598
81.3220558530898
81.2040270923108
81.0299137107098
80.8153152133236
80.5756687095217
80.3261268215384
80.0814946447759
79.8562229889254
79.6644546106457
79.5195960267291
79.4229559735499
79.3639810358232
79.33178640582
79.3155938969444
79.3046737823196
79.2883159855751
79.2558302846537
79.196575352711
79.1000162953414
78.955809857426
78.7539156823855
78.4848382667915
78.1493028358775
77.7653884216304
77.3524807675118
76.9292872947891
76.513752253645
76.1230601755302
75.7737185208736
75.4817113971836
75.262718541882
75.1323972041751
75.1067290426632
75.2024397867464
75.4364557034683
75.8063575962112
76.2913009397378
76.8696855705271
77.5192327259136
78.2164580530026
78.9362640601792
79.651670369039
80.3337098652832
80.9515250737342
81.4727002096324
81.8638584608522
82.0959777590223
82.1726827090254
82.1130898053581
81.937749143943
81.6679667515936
81.3252705855957
80.9309833486676
80.5059093419102
80.0701345803509
79.6429339192248
79.2427759594999
78.8874157570183
78.5931006771127
78.3627646852843
78.1901945458334
78.0693380385562
77.9944312848504
77.9599276963719
77.9604370647345
77.9906735667308
78.0454118116628
78.1194503437979
78.20758224577
78.3045726758467
78.405143318016
78.5039638309971
78.5956504508335
78.6747719306945
78.7358629891584
78.7734453827207
78.7820566182192
78.7562861761101
78.6908189277727
78.5804852034546
78.4203167093451
