Value(μV)
43.3655990499608
70.8737848248
81.6743712710786
79.6926627603042
75.8412196624147
77.1620835605603
81.7509175816498
83.3506589232128
79.1716793420073
72.2640323134016
67.0535616560158
64.3029950542236
61.292357966969
56.0891343312183
50.1829992845326
46.5049639271899
45.7800897226281
45.8504985569198
44.5096771700809
42.075184234339
40.6439259090202
41.3315603539917
43.1019004941457
44.4220952509829
45.3245824761251
47.1840482231102
50.6605213999013
54.5708092855457
57.0792726090582
57.5709275136618
56.8529515376193
55.6568774549158
53.578530544844
49.8250612203377
44.6339325201615
39.3645159404907
35.0944566197655
31.5549858706011
27.7642881518434
23.466388599815
19.4669611647497
16.4775664701748
14.0697139722289
11.1670590385994
7.43677422864454
3.73454664233996
0.99276988570125
-1.02370606242125
-3.50046912302075
-7.19442173970972
-11.6659425726281
-16.0607212311886
-20.3684168300866
-25.5145125259215
-32.1980553371672
-40.0014243538917
-47.8959430717613
-55.4417163812035
-63.1307247333966
-71.4961294934099
-80.2068780667655
-88.3113806199424
-95.2428019798058
-101.238721499218
-106.680169006186
-111.313983812155
-114.43295837406
-115.750963644547
-115.757652585162
-115.04722648602
-113.515001683916
-110.511588978346
-105.768477137854
-99.8697156891105
-93.6397753756817
-87.2636164834942
-80.3241461687954
-72.7269315516315
-65.2794559128999
-59.1010741532787
-54.5467328906745
-50.9716214510772
-47.6041458603701
-44.4062002081796
-41.8713908467198
-40.1194805525801
-38.5406371544305
-36.4807834752579
-34.0698548030432
-32.1012631743579
-31.1022238442623
-30.7624848567897
-30.3891458483799
-29.7233900711318
-29.0468986549658
-28.5154906575983
-27.704224014511
-26.0398823840814
-23.5701925394804
-21.0296669055356
-19.0682266156744
-17.6047745548356
-16.0983892274642
-14.3249556597526
-12.6084015175525
-11.2233914492295
-9.82576368792276
-7.74901913919823
-4.84256417898004
-1.76414061993007
0.69516808703294
2.43585111672083
4.01722618328441
5.87012754962505
7.81595804452139
9.50897155589832
11.1679960189255
13.5599307862925
17.1768387655162
21.6271144213145
26.0207295353665
29.8746644106989
33.4230619851189
37.0077819549927
40.4049335801005
42.982329728366
44.4599239503583
45.2485772830224
45.9069793285032
46.4226437286952
46.2566519623341
45.0983900007544
43.3641845018985
41.8216557466908
40.8484008270921
40.2608025239908
39.8494982046758
39.8198019928308
40.4969315902763
41.6783194935774
42.5261912272817
42.2150385990055
40.5799279078155
38.0227828658611
34.8915999157117
31.1829027742356
26.9155200290926
22.5834955061949
18.9785549279874
16.5246655789003
14.944784046935
13.6795453783749
12.5279546132214
11.7260260142854
11.4341953598797
11.3579120324992
11.0007093638785
10.1825023939853
9.11729012094239
7.9658691426846
6.50174608340739
4.37800202202861
1.67401925652939
-0.973568023403523
-2.80227803048796
-3.35097727112606
-2.39921755482262
0.331521640328923
5.12063234712983
11.7811688924389
19.4051102066464
26.7803642548324
33.0941263991299
38.1395831046164
41.8711961764419
44.0045803163774
44.2766560482765
43.0330939005683
41.2556901643805
39.7886491844124
38.5914508431864
36.9262269321645
34.2916312240966
30.9979509282051
27.7275647154346
24.7018029083196
21.5595240608059
18.1144009939097
14.9906790646654
13.2464136863788
13.36074547596
14.7819461152813
16.5600656711883
18.2707282399105
20.1298512911223
22.2583895017691
24.1127935289873
24.8289900758862
24.0297661887545
22.0718672777279
19.4612804262219
16.2315263659106
12.0892932570637
7.11565133607824
2.10502449251689
-1.89266480441484
-4.2653180109906
-4.98552788320836
-4.20162004366796
-1.95990916431058
1.53220065120505
5.51088846982135
8.77093196441188
10.2841491982021
9.66994046058127
7.07709767240256
2.78469783169947
-2.89831710784224
-9.38761616981292
-15.7445210452106
-21.0723458694987
-25.0118689413768
-27.7541315809412
-29.5739665614564
-30.4870001209932
-30.4344944321144
-29.6701282820048
-28.7529993774586
-28.1103602346298
-27.7537077909919
-27.5470889032492
-27.6661856121492
-28.5879224102784
-30.5512841684176
-33.146761079932
-35.5534828647585
-37.1143924568925
-37.5286384515054
-36.5091689524126
-33.5322370092505
-28.2073959523848
-20.9080624692274
-12.8218873435103
-5.22107479640928
1.26796273058172
6.59717986857495
10.6510404009036
12.9820290022113
13.3488857024423
12.3361855148909
11.1105257444745
10.4315935515186
10.0457586572605
9.20002478288108
7.65649988968867
5.97618308630249
4.77596813031759
3.96542190567445
2.97187479103347
1.65928816755304
0.720530509906052
0.978072042281624
2.42916629597043
4.21626553699205
5.54875528750093
6.43043038682858
7.34445080336084
8.39487601186063
9.05102921122399
8.7889392166686
7.73268695496369
6.43094840936554
5.08013909155717
3.24535103915456
0.462556846658014
-3.06253321330704
-6.55794854853685
-9.42046941205234
-11.6036537397511
-13.2069203759237
-13.9374643567836
-13.2940488493545
-11.2966070229516
-8.75450147871803
-6.59964591999791
-5.04278494909975
-3.59004097469945
-1.86168738154969
-0.112416934109113
1.23228312294118
2.35383079115342
3.97825872831805
6.41121978039572
8.87541169602564
10.0906838240486
9.49979385021753
7.69844307497577
5.60577354152753
3.48689828613633
1.07970185072425
-1.41063505520517
-2.87145740003078
-2.13591679496158
0.825189660201038
4.83727689944167
8.68352122858599
12.093417027175
15.4330943411149
18.6501093830933
20.9329467297208
21.5381299267417
20.669023187129
19.2186137253022
17.684993955047
15.6499928624783
12.4646006885456
8.21327722305462
3.70511690596597
-0.439174133636025
-4.35018048656042
-8.39054996588589
-12.3223088962396
-15.3674505212437
-17.1399465303376
-18.1917369319553
-19.3728869706701
-20.7865515461958
-21.7032982774779
-21.5572317837206
-20.7025454614547
-19.9134399338411
-19.3052432682613
-18.1823207371139
-16.113114383458
-13.8416312848077
-12.7442525641737
-13.3933442412081
-14.9974862885616
-16.4155125994433
-17.4284351522449
-18.6334357111742
-20.1594913309874
-21.0044884950689
-20.0140679392683
-17.3287862087343
-14.4042800554239
-12.4809179734075
-11.383791999447
-10.1304147293317
-8.48574155735314
-7.37682888072369
-7.60550002628823
-8.59902319555493
-8.95388542582226
-8.16425933709817
-7.27894153389933
-7.54624907240228
-8.74588902809534
-9.38960215967903
-8.56469504885176
-7.00473449462906
-5.94775050434241
-5.30933031607844
-3.73792878705572
-0.6987748330776
2.0976145172364
2.03166513733714
-1.70016382704649
-7.30955295766051
-12.6340229525704
-17.5562375463435
-23.403274234085
-29.9053420673217
-33.6670506377747
-30.6126125728201
-20.0463557899007
-5.7155847004086
7.44603078174939
17.2094137762224
24.2564176105217
28.9428267860801
29.0395841201359
21.5237452205805
6.27117304981888
-13.1078660478574
-32.7278139862816
-52.323819102016
-74.9020121207691
-102.227868548939
-131.070982264624
-154.474316074074
-167.009736193085
-168.921837170205
-165.273635563662
-160.770277108883
-154.068504773927
-135.024594430843
-86.3452785101637
10.3907564495403
165.713849129579
373.800070376202
609.727551320876
835.712363243789
1013.98237842424
1119.00602771665
1142.34653949144
1089.22158380243
971.475443325748
802.323720844461
594.685341054962
361.755075523834
118.252324125794
-118.326498588446
-327.645961876154
-489.778742405606
-592.106100321845
-635.859406096401
-636.186632533572
-613.817426085586
-584.035317909746
-551.780533723223
-516.084799942251
-477.926645387191
-442.673191860498
-414.857598923602
-391.953679986174
-365.169578773613
-327.579423518452
-281.683519754837
-238.702623126386
-210.121526651467
-199.293767503663
-200.058934677235
-202.192003149909
-197.986818174431
-185.158484443831
-165.883059864315
-144.546168887343
-125.797912843698
-112.725677140742
-105.195268930246
-99.7192261144648
-91.7957978210657
-79.2548685950509
-63.6646438765713
-48.5234911274598
-36.1735863212809
-26.4797957698344
-18.1145397698125
-10.4628235809978
-3.93686818293336
1.21969251833427
5.76625531968051
10.8311510709505
16.7419181864933
22.8678333762925
28.5838281881717
34.006849591874
39.564339442153
45.0684073958718
49.6095105003705
52.4618883174526
53.8518403546927
54.632582447384
55.3224835583987
55.7238095066581
55.5080281894122
54.8905468756317
54.4760948096345
54.5194481532345
54.6306279477351
54.3407019556518
53.788157168594
53.6272497412553
54.2859066331635
55.5400055480166
56.9298573661759
58.4300294945022
60.4676997019682
63.2646231641566
66.3815694237364
69.0886420212377
71.1131776577469
72.8248171278324
74.6320772940896
76.3560837616658
77.3547197711485
77.2154443787699
76.1482727836268
74.6324622407348
72.8149195500137
70.4220738360557
67.2501667308798
63.5751076745682
59.9703158172551
56.7854590625283
53.9243775262524
51.1333125760604
48.3862534262141
45.9204959684074
43.9858120686958
42.7008838289759
42.1673460356476
42.5848551717702
44.1212569452556
46.6693655823109
49.8028972220555
52.9728544264553
55.6657993634538
57.3479812642898
57.3972714937642
55.3102289891818
51.09034562975
45.3838357051679
39.1440938267883
33.1549070467592
27.911988721097
23.8937752448371
21.7332102017079
21.9272909748116
24.3613015938405
28.2503210356436
32.6498576736417
36.9995883559388
41.1188106470958
44.7532344847496
47.3301672997665
48.3005255728921
47.6770567659446
46.0970850640192
44.3104045633949
42.6971215422766
41.3622977151139
40.6080352133236
41.098789421187
43.4285508197968
47.569385489446
52.8530210627869
58.4974209636473
64.050079503677
69.2766668976147
73.7557638633868
76.807049626975
77.9260533526976
77.2196324798648
75.3036838670286
72.7743468398786
69.8671501532479
66.6468827432412
63.3868891595511
60.57380959785
58.4821869290302
56.8404941126607
55.0182101580634
52.5236538009709
49.2268746867148
45.0805279051039
39.7473712693053
32.6597699386152
23.4957752962741
12.533535632618
0.47909595436829
-12.0251669647325
-24.6605524578996
-37.2271351622012
-49.3062332460576
-60.2557797571345
-69.5785343190794
-77.2532189049509
-83.6638373632687
-89.2102473199094
-93.9991003356915
-97.8754041657722
-100.677219341397
-102.412539742056
-103.213744138985
-103.185637695764
-102.345621828552
-100.726733481658
-98.5477202066913
-96.2948063755812
-94.6210053996511
-94.093338171332
-94.9371583829585
-96.9548626260325
-99.6725768611265
-102.564908473571
-105.130931898657
-106.772053028141
-106.694283276698
-104.094141440856
-98.5839341468638
-90.484589796806
-80.6758349831757
-70.135208841844
-59.6286326902898
-49.8205265256205
-41.5468212926125
-35.7664698241153
-33.0856963460798
-33.3087770536706
-35.5234438087512
-38.670090560505
-42.0146896299776
-45.0855160476557
-47.2902995117816
-47.8148842685914
-46.0430991782309
-42.0626948141586
-36.6608845662168
-30.7767171374361
-24.992193574638
-19.5669366721486
-14.8503718020907
-11.4609551855212
-9.94011392382194
-10.2663814272134
-11.8139284390382
-13.8199862668746
-15.8340593925448
-17.681521771757
-19.0930934190712
-19.5523500561008
-18.6084971942064
-16.290994119455
-13.116573393321
-9.67128868223035
-6.25382295011693
-2.95526900685756
0.0167709309325872
2.25884532272802
3.4845039646654
3.84587047559243
3.84485191443346
3.92078336954341
4.20209812891279
4.69308031377302
5.60788288520395
7.37484607174891
10.2581915656719
14.0454676827161
18.1898865802642
22.2447150659851
26.0725820977586
29.6015760758965
32.4738252434462
34.0766550492209
33.9806743464005
32.3055484786115
29.605388423708
26.4161676241918
22.9692331204722
19.3330472413707
15.7233687492686
12.5538111197674
10.153263156922
8.49264388733386
7.24749921103074
6.13351945820528
5.17186791577473
4.66383973466568
4.97339546482596
6.34807715358172
8.86966898015484
12.4599179093327
16.8711734601871
21.6858245250512
26.3581292690917
30.2670257537527
32.7554316546969
33.2234101842021
31.3449770088761
27.3065805057006
21.821387971406
15.8138734131963
10.0104188755886
4.80839075973374
0.500739546773183
-2.48766473666736
-3.71832342422408
-3.12704381761624
-1.20383301260994
1.33046158788087
4.05999655302031
7.04612752100514
10.4567984364964
14.1060813452834
17.4610929035657
20.1089565245472
22.1203718674928
23.8750520251426
25.5681453775445
26.9930557675533
27.8405003234589
28.1175872114109
28.1610186208714
28.2390019953227
28.2453468868737
27.8608367367329
26.9750391042649
25.8611341761054
24.9281710038036
24.3895346675693
24.2364721212623
24.4690146220601
25.2066930963483
26.4959790749108
28.0662477255314
29.3773050584686
29.9383726053279
29.548777946658
28.2390920568644
26.0844283860525
23.1864954609394
19.8269244552791
16.5045445548959
13.6966365186784
11.5655523475821
9.94523051494269
8.61474425574526
7.51963557956093
6.6943103867314
6.04766964224751
5.35240708270597
4.4851442569971
3.59481058783371
2.9388464800216
2.55677267808382
2.18311301553587
1.51771474852701
0.53120567345762
-0.542693993695885
-1.4624096256008
-2.11625769258846
-2.38608990478551
-1.9998245937841
-0.679004080492646
1.52266672885341
4.10269064580578
6.39294782849594
7.92906919745261
8.50064595724456
7.92369773921128
5.965062502677
2.62900697880197
-1.54614236340241
-5.6671735662898
-9.08048593130008
-11.7598748435177
-14.0470131404091
-16.0652130564707
-17.5254559734779
-18.1451220064
-18.1039565044768
-17.8845700723959
-17.6218998398217
-16.7569104659287
-14.485860608286
-10.5544455400311
-5.51818028127028
-0.212683403321051
4.90619435022658
9.79373016355211
14.2710990591354
17.656414775007
19.0716617046141
18.0767315889839
14.9039610215636
10.0860656910788
3.9904705643388
-3.19317933781945
-11.0899568507565
-18.9308132270513
-25.7772752538331
-30.9055760913344
-33.9477395646334
-34.7780528408571
-33.4528462731991
-30.3359832780165
-26.1735465069395
-21.878101793444
-18.1613984270187
-15.3724662024679
-13.6322039889247
-12.9701999666382
-13.2138768821048
-13.8056770205676
-13.9248281576671
-12.9399246962518
-10.7571247009974
-7.69539377772796
-4.0723225433748
-0.0134448112857068
4.3340954756568
8.55837728384054
12.1169272317496
14.7158412554362
16.4270342541315
17.3607346321613
17.3184115235625
15.9139400691844
13.0488683729803
9.14971298928483
4.87521985750316
0.695788322624792
-3.10240858882817
-6.05479676521834
-7.41844196779803
-6.65430838088213
-4.00333262470402
-0.436822123208431
3.0216500550938
5.83860629483039
7.8152669664038
8.60737854746307
7.7237948346171
5.12635352682366
1.64475236066189
-1.4652966650192
-3.42457225737074
-4.25789012790161
-4.19805875403001
-2.99719750128337
-0.10113692838976
4.50681558633026
9.93095424043276
15.0492627547931
19.4614035928403
23.4834792716284
27.158669261881
29.5632500429831
29.3944405806036
26.2222756872549
20.9007105131343
14.6422127650506
7.92026025766724
0.55040485781102
-7.2494225599308
-14.3174044903773
-19.3726899536065
-22.2647732071497
-24.0873465977453
-25.9765769449007
-28.0384929389936
-29.6359915115649
-30.5032408405086
-31.1384156815062
-31.9639093041371
-32.4462245766257
-31.4683582747006
-28.5917975383061
-24.6170734532974
-20.7027072536507
-17.1488220146767
-13.3703103709112
-9.00843928043323
-4.62970050606264
-1.03161380045232
1.92142159704888
5.30812138178689
9.86289082992759
14.989707484813
19.3567157990143
22.3363615837423
24.4727870219639
26.4442960463833
27.960858321396
28.0846287841688
26.5167732094608
24.0579322470569
21.5429705807502
18.6423133039257
14.1885431178484
7.70121715544312
0.165166399137845
-6.92841110389779
-12.9653854825108
-18.1507599465647
-22.1515332387091
-23.4722774052956
-20.7252026849664
-14.3658404489469
-6.64079387984161
0.30173931648123
5.79082155074859
9.83559692470952
11.4669841142028
8.80032411445601
1.07104981147092
-10.0021788905
-21.5487661731545
-31.9757945825338
-41.156977866146
-47.9567097068779
-48.7025224146858
-39.6851562573707
-21.5692655159926
-0.25842332487113
17.6611297432096
29.9261225043546
37.7322931574841
39.6221664250098
28.0987300230744
-4.99380998481032
-58.564037514754
-118.886059736188
-168.061259614975
-196.84672795454
-209.030455601313
-213.350148895308
-212.189027577143
-198.79700799961
-164.014007658645
-102.650635331714
-11.8998498682761
113.728786365494
280.205890112193
482.319578058238
694.136971414326
874.861371788438
988.93313716954
1023.84820704788
990.285200193651
906.247030094403
781.822804780791
618.380765603976
419.711824535033
201.036615596157
-13.763736224516
-202.835027995404
-354.098055581835
-464.718254118348
-536.419880826299
-573.047558269308
-581.240004185818
-570.327266139402
-549.41321917349
-524.33796408319
-497.756807962327
-471.323832231542
-446.189114178111
-420.88835881623
-390.389792928233
-349.762813759879
-300.171761636998
-250.726926735275
-212.968951911118
-192.390970130192
-184.797979060877
-180.51632194423
-171.860830114505
-157.049175024768
-138.522804319448
-119.262372694022
-101.153599636754
-85.5972697977054
-73.8914282589357
-66.3070766450184
-61.4299125107234
-57.2698705832535
-53.098675515749
-49.7228407247648
-47.8270990045869
-46.5733016044378
-44.3412145361458
-40.6829568205897
-36.9331527265999
-34.6221223045429
-33.6531817428923
-32.4792699045253
-29.9441405905309
-26.4042667638377
-22.816667054903
-19.1678476533666
-14.399655491421
-7.92157879261199
-0.669031184896163
5.74525974221963
10.7594245296408
15.3256670071093
20.6117459828726
26.6536783557044
32.6008444227771
38.0449269451855
43.5640533727636
49.7625232895223
56.1356722428622
61.3214165422379
64.4673303073844
66.0017528502457
66.9125266095633
67.5662589638675
67.5939938679374
66.8510573986189
66.0156279082787
65.9366726892844
66.5938233665799
67.1102067346964
66.8827905770569
66.4017469925951
66.711551804225
68.2219020347952
70.3924167907225
72.6315139417244
75.1464696916725
78.5743173579984
82.8753029800858
86.9913574963649
89.8099131614399
91.2823456247991
92.3271012961576
93.6737555584501
95.0952800874447
95.8982112158066
95.9032927609264
95.5900339545138
95.2652261159286
94.4346273741838
92.282431716614
88.6982942692257
84.5742180409559
81.0278490716891
78.5311913214057
76.9278220268406
76.0907960526927
76.1881665357851
77.1853461794992
78.3549650614693
78.6103638187933
77.3751877886428
74.9559340825986
72.0079566565889
68.8353031545452
65.3979763636432
61.862703117595
58.7611974175346
56.385903121457
54.1960317484731
51.1403585378975
46.6694773022026
41.2782053864263
35.9547581663642
31.2677650491563
27.2387721734782
24.068883806244
22.6196126672544
23.839860014053
27.7343079471581
33.1584783038077
38.7684857216798
44.0405785455718
49.204692235044
54.2978623015089
58.6061876873047
61.2009124946866
61.8467245076229
61.1066129392033
59.5340309813262
57.0207870061132
53.1461948350583
48.0691949415317
42.8098998278046
38.5428030993347
35.7385195408317
34.1042505152276
33.2138505092536
32.9003481834251
32.9264387133936
32.4947243967798
30.4092983274349
25.8539960473937
18.9453272756036
10.4859602095744
1.29629285333973
-8.09880500397957
-17.2454456780351
-25.5407353230371
-32.4617320491102
-37.9759750466449
-42.5548170789261
-46.7140627998502
-50.6123259536396
-54.1238782516109
-57.1597048787085
-59.7409951683414
-61.7799842719613
-63.0147160191266
-63.3433727111168
-63.1745408654855
-63.267568982245
-64.1581622556292
-65.8413533957305
-68.0952410856671
-70.9975099659419
-74.9149821971754
-79.9441640435882
-85.5554031782161
-90.9874076198849
-95.9598827344153
-100.789866764771
-105.699189243183
-110.139418064282
-112.998193285333
-113.492919552603
-111.721770550511
-108.288676662742
-103.58089760169
-97.6712596961759
-90.9442264205263
-84.537548856408
-79.8589925793251
-77.584942739169
-77.2233864655428
-77.6759708337625
-78.0844291101511
-78.0240607623227
-77.0326484955772
-74.313974680212
-69.1609156056162
-61.6348383778033
-52.640286610252
-43.245447214849
-33.991580120184
-24.8905604805594
-15.9413168234603
-7.43359939467226
0.290353276927497
7.18899852814946
13.4552234149195
19.1175803135267
23.8651260844085
27.3480026979085
29.5716088655293
30.8982196131257
31.7061855505136
32.1811793428571
32.4633543711046
32.8323869945622
33.5556321963435
34.5393061479089
35.2820578356078
35.2985596165316
34.5685228746989
33.4971615234247
32.4678650053226
31.5593936362703
30.7438560495581
30.2202506060132
30.3536867959095
31.2327548751267
32.4073557696274
33.1883567123497
33.2006232034714
32.5730620073153
31.6112668918408
30.4170303494175
28.9035727131154
27.0745144150522
25.092848443182
23.008815054698
20.5430481691247
17.2887966571452
13.1377184328302
8.41449474260809
3.57521221487331
-1.11110427954907
-5.49226666455946
-9.24838758471159
-11.9081743315994
-13.2760630987031
-13.7468405116998
-14.0085876960577
-14.3667435165613
-14.4434674831715
-13.6053777604445
-11.6090331441419
-8.71348202754896
-5.20999901751773
-1.072060683149
3.73872153838824
8.66300679266193
12.456897318146
13.8877524198237
12.5497333246389
8.99001317195169
4.12752646938009
-1.31138885719923
-6.79301419880381
-11.6539763115038
-15.0738074074984
-16.4979572968928
-16.0282618850402
-14.3074976470153
-12.021183442643
-9.53282377921454
-6.90947937008184
-4.10773493632446
-1.02412354656644
2.53711195506262
6.73911377867019
11.4505541059108
16.1648589134778
20.2629574376955
23.3407878618716
25.2208083563576
25.6957559203945
24.4461500184298
21.3538781304247
16.8462293530808
11.7494233673048
6.69363425124131
1.7114269894251
-3.49665609525355
-8.94253203800449
-14.122533912794
-18.4406066128984
-21.736378223283
-24.2638850229563
-26.1895253782675
-27.2982972423896
-27.3162651795663
-26.4411338667708
-25.3785631984499
-24.7888915734964
-24.775793295035
-24.973296263992
-25.0345991519074
-24.8780255439654
-24.4513343428141
-23.4559311136149
-21.5136858082729
-18.6241322763078
-15.316357547712
-12.2511274412381
-9.71405618286294
-7.55886030554759
-5.56963917710488
-3.70609307872457
-1.93328032643275
0.0344175337149046
2.60017406275818
5.83220349592661
9.25336838239598
12.1840123209527
14.2632041671174
15.5588936162796
16.2250683609234
16.2452712542131
15.6358008074407
14.7915447611834
14.3894482587338
14.821184405634
15.7958957635102
16.6275570912426
16.9100052216303
16.8109920399533
16.7019194694281
16.6715177013736
16.5840671517174
16.5937731434356
17.3887636433025
19.7440311295576
23.8311103383636
29.0597703195684
34.6025495450699
39.9681590842723
45.0091885526225
49.4952753005859
52.8853979003063
54.5987374041131
54.4129923441442
52.4905436298588
49.0557683789823
44.1849561623348
37.9641760789844
30.7527192601415
23.1746193940607
15.8621922738635
9.29678378618738
3.8900880422263
0.0482355578321041
-2.03020452974683
-2.6399129563063
-2.52411430320801
-2.43424393196509
-2.72921059373616
-3.41811911292361
-4.49458803389328
-6.05770240987698
-8.04377452274529
-9.97070832613424
-11.1368303199932
-11.1394089633257
-10.1397729706122
-8.59146323962828
-6.79521651665988
-4.80823755928038
-2.72490341655025
-0.866862921979815
0.392458357244811
0.88601739703592
0.585682503079939
-0.707442567688703
-3.42694281854266
-7.86349724379472
-13.7688530767228
-20.436408260943
-27.1298790583594
-33.2593752731858
-38.0847304573004
-40.4857869342554
-39.3941998390458
-34.6324299416058
-27.2315301328958
-18.7808301745214
-10.4967189327935
-3.03200311264727
2.92483009273568
6.27741513097533
6.12300069865285
2.73441744014261
-2.34576646364634
-7.39958373655044
-11.6516973095261
-15.1725267245909
-17.8238954956904
-18.7044620660227
-16.8931876887789
-12.5726421620161
-7.05029349473391
-1.56220347443787
3.68384707413443
9.04097092968322
14.1685931716606
17.6725912162999
18.2113988920149
15.7628969073671
11.5145993175626
6.56790903092156
1.11771531790092
-4.91733288191291
-10.7849418065776
-14.9413156141314
-16.3702197115637
-15.5852541762315
-14.0495914535792
-12.7231324212052
-11.5105556343713
-10.15432979213
-9.21419327440893
-9.70539123646544
-11.82136862765
-14.4744388060413
-16.3764059946897
-17.3494354690325
-18.2041947822179
-19.3691686854399
-20.095557273726
-19.3039826685998
-16.9425411531252
-14.0057657006446
-11.139925009292
-7.72038737430003
-2.77187226575235
3.3311816108942
8.62556300962569
11.2823295348448
11.2731198128165
9.94607212195705
8.10595902850979
5.14232424245309
0.45153046556134
-4.58989523449804
-6.73629464937977
-3.30465987783145
5.57861529543813
17.1530133292662
28.0536106391195
35.8650174255566
39.1467124536061
37.1267305856454
30.289304245243
20.9691868418266
12.0828602149739
4.19134119867976
-6.16542878081086
-24.3226082476078
-52.7273002958237
-87.7287588989827
-120.84372339251
-143.369911244883
-150.811086824437
-144.72380418862
-131.786306515805
-120.281203147672
-113.839644793688
-104.315833459527
-69.4650884941721
18.7361179352354
176.461759724171
392.232163427668
626.222403308112
827.780659395935
959.530333526778
1010.93404891819
993.481273088189
924.86290151738
816.42403126586
671.852432944415
493.742583296802
289.768544662743
74.1461664749568
-134.216835985033
-314.61657519287
-448.827304270763
-527.311910567974
-554.348623478124
-546.879492764497
-525.757387777229
-505.088766084353
-487.757819602733
-469.660414378637
-447.261279678586
-421.116544403435
-393.527754525344
-364.8592292356
-333.398138091173
-298.551704323803
-263.171269943442
-232.201647537111
-209.217594615036
-194.327414146476
-184.773637392146
-176.716379813532
-166.538116703415
-151.789450354117
-132.457488259179
-111.777122953558
-94.9032158852854
-85.5030317834502
-82.9956201496643
-83.1984503899388
-81.9045981740585
-77.9140991976073
-72.7835696441076
-68.1892344808054
-64.1052571024707
-59.5089033946877
-54.1549942307857
-48.9916449983415
-44.8742578263877
-41.4532098835595
-37.6912231837218
-33.2107139269231
-28.6390212277291
-24.5619630844892
-20.5766374148547
-15.7581391528112
-9.93297788340055
-4.06932789541521
0.749629534344209
4.47319214766222
7.94316811297335
11.7485692161809
15.6006830133808
18.9673975527941
22.0001521252475
25.4292330591587
29.5240859279066
33.5021177275327
36.2246804690517
37.3700087797227
37.6716735553802
38.0105808347513
38.5658848283249
39.0535979008992
39.6073556674597
41.0330579633732
44.0336357108054
48.3755210718499
53.0616977904548
57.3059121993316
61.1350141689223
64.9874864572167
68.9532275131248
72.6527015432541
75.809601610384
78.6459715030045
81.5265006038356
84.3327062638874
86.419404559339
87.2245270827022
86.7479825467698
85.3260203496641
83.087103658727
79.8740703371413
75.7307704316869
71.2317373612551
67.1111438293259
63.6014737107535
60.3388236082175
56.9997643053769
53.8850173830097
51.7055127908816
50.8292420381578
50.9303758292752
51.4668716985908
52.3599424650369
54.00288160938
56.5913436833297
59.6335596018586
62.276691358547
64.0743600807692
65.2917721921632
66.4244734061496
67.534457412857
68.1516802090191
67.752431008657
66.1761244341631
63.5369375207946
59.8778883957126
55.0983204734617
49.2717030644416
42.9587682917109
37.1442922607903
32.8708199120878
30.9096182757596
31.6375111186562
35.0136146858848
40.5493803532675
47.346909642862
54.3013848621485
60.3764656881082
64.768106280197
66.9360926069951
66.658682403391
64.1667231571729
60.1717272180237
55.6119833841353
51.265785164654
47.5933459961433
44.9214961519793
43.6493248726686
44.1170407904713
46.2428640709929
49.3984373197959
52.735561603421
55.5893862421617
57.4560828939757
57.6101692515011
54.9772406288702
48.6395157583213
38.547362671631
25.6570911306714
11.3280310311978
-3.32988507254034
-17.4571220558942
-29.9811004345884
-39.535176828547
-45.1493460323442
-47.0556219869402
-46.6521863194304
-45.5670627702821
-44.7894430673493
-44.7174701036531
-45.8351049167411
-48.9852470763218
-54.7800318928155
-62.8542237470632
-71.9461149434026
-80.8160961461721
-88.9968405721469
-96.5776279253226
-103.395411580325
-108.686682994174
-111.630440205004
-112.096038902708
-110.687170714207
-108.071773768467
-104.44389739984
-99.7280877428947
-94.1682233444177
-88.4858277182901
-83.3812316866272
-78.9855847202641
-74.9014479233819
-70.7198467540592
-66.3652044583897
-61.9379169455587
-57.4059427093184
-52.6332022635203
-47.6986380834463
-43.0208503777287
-39.0536554153205
-35.9000667713494
-33.3106151899298
-31.0318300005644
-29.0306709635307
-27.3268285476292
-25.7253000476409
-23.8882820960806
-21.7113256310114
-19.5104876083328
-17.71688961553
-16.3917987393189
-15.1235915591091
-13.4170340603964
-11.103688260958
-8.32123461665488
-5.1827796912708
-1.63633972160641
2.275671090011
6.10948082756051
9.11782382771409
10.7194863318945
10.8601637645506
9.925141402513
8.38353370733347
6.58397991671419
4.83246400165308
3.49636288493979
2.89651750778152
3.0947293790728
3.8596943228669
4.87379099412495
5.94949136902515
7.05297995343016
8.21060784756812
9.49255618763961
11.0754666920949
13.1947663702889
15.9232374675875
18.9988641730291
21.9436103332287
24.3797431598333
26.1862595981279
27.3257793261671
27.6033807872292
26.7267944760189
24.6460563274916
21.7481998265572
18.6130623247572
15.5740328135649
12.597968336681
9.63186725886789
6.99247385741569
5.30987109251304
5.06905479086655
6.27027413373517
8.56698599691015
11.6560895423033
15.4210379652174
19.6875309316514
23.967372993517
27.5855760581986
30.1016749318189
31.5693446352269
32.3748315475012
32.8808433197121
33.2692735153624
33.658384691497
34.2170861136857
35.0590908346717
36.0516937104032
36.8265020364477
37.0339554047759
36.5754538221069
35.5794460073027
34.2030961778964
32.5216134080413
30.5993019233441
28.5737158447403
26.5838037271554
24.6163749592238
22.4855331694077
20.0031037536627
17.1584596585179
14.1219629200877
11.1100979427621
8.29524836694664
5.83068534474056
3.87566412113942
2.51929633298033
1.688276826966
1.19734345312905
0.930647003899379
0.951215064753907
1.40259478301806
2.32547390664345
3.61879626930559
5.17252118243178
6.95164321105
8.86570529420956
10.5679879769262
11.4851534133602
11.1415583161753
9.48121018174093
6.86113568148701
3.74988528808376
0.479671927820306
-2.71382733623818
-5.51883829596942
-7.56212101420853
-8.66587051022137
-9.05190113267344
-9.21644614846265
-9.56974606581522
-10.1994212224435
-10.9579087594621
-11.704522400371
-12.4059958779346
-13.0370794442047
-13.4894487557904
-13.6560501164807
-13.5940117818751
-13.545802822832
-13.7696515133919
-14.3588589474119
-15.2226434266968
-16.1926934064095
-17.0976142862794
-17.7528905859234
-17.9666865895986
-17.6329322088373
-16.8203610958701
-15.7202850083265
-14.4778646137156
-13.0906546629867
-11.4859270415047
-9.66306684783461
-7.70593940411328
-5.65100645892794
-3.40754451187299
-0.879617156667925
1.8219192974315
4.33305824876751
6.24081533462741
7.33517472839419
7.65088889809729
7.2824892281942
6.19922869755864
4.25256995898641
1.32757298345794
-2.5547576633784
-7.27609793649398
-12.710026002516
-18.7385510493747
-25.1938368414079
-31.8133044554754
-38.2539497388061
-44.1346447695888
-49.0836480994668
-52.8190723190023
-55.2587116273668
-56.5578422290122
-56.9741193865187
-56.6263611959537
-55.370559536622
-52.9361849242024
-49.1945927318097
-44.2805554206648
-38.4591323105518
-31.9352662033029
-24.8693388530455
-17.5932769885064
-10.7400633841862
-5.05857323624596
-1.03208668292362
1.35123444048276
2.480119107683
2.80712662449849
2.64063939429371
2.15692399290754
1.49184994852139
0.74461797778316
-0.0940485633914001
-1.15383399167477
-2.58018094664285
-4.40135037436098
-6.47198239120823
-8.49642432473314
-10.0811384671303
-10.8187494612297
-10.439449272661
-8.97731020250872
-6.79890758951598
-4.4132949352953
-2.19900546838386
-0.290142363029352
1.30335248340755
2.53124957642519
3.32086112691971
3.74942577211767
4.10869197515444
4.69460543224374
5.49031352174184
6.08338927623872
5.94057900385603
4.79088661641977
2.76478344755233
0.213653443926333
-2.53647719592676
-5.22587462237032
-7.5086040214467
-8.8552296981194
-8.69077130879943
-6.67908111180448
-2.90395762791739
2.20067575761254
8.0868659120354
14.2824939407277
20.3958146908058
25.9791552659851
30.4291069640876
33.0777801019699
33.4618042120289
31.5725147796629
27.86851349317
23.0318756601485
17.7007691662778
12.4335143394172
7.88016739709208
4.84804262643556
4.01792930882324
5.48378303414428
8.58485301302076
12.2738247087088
15.7099100790768
18.5161256124385
20.5258298117351
21.4387716017457
20.8916764576412
18.8935044053159
16.0513905406382
13.195921677238
10.7259437104769
8.3724683245006
5.6337294156038
2.37207735273669
-1.0933059149337
-4.42650943672115
-7.63364412404923
-10.8697371634754
-13.9579988608986
-16.2754339772809
-17.2096293632532
-16.6748163246253
-15.0975131498049
-12.9328105084426
-10.3210463907948
-7.26066843083839
-3.98819269871336
-1.01396541799152
1.24606291120515
2.75017832664194
3.65317778589384
3.9280351254149
3.32775074638304
1.77887759277592
-0.294374407848654
-2.15849594586381
-3.26562057140397
-3.45849139403902
-2.67971922383795
-0.648943084937089
2.9634232095951
7.98327072051241
13.4555410822298
18.0340142918036
20.685401906192
21.0386858638481
19.1649957992098
15.1954063675562
9.25386638045581
1.74551385491354
-6.29481057986813
-13.0401942039999
-16.0237764883558
-12.7900649847961
-2.13115373811322
14.606941177957
33.2768943319049
48.4861625939327
56.18945829438
55.3183972774478
47.0675590851427
32.6315496948231
11.7058322391599
-16.8065738736748
-52.799534678209
-93.7978970603581
-135.506380718034
-172.961775520888
-200.961874089784
-214.136687485792
-208.056625430594
-181.252122877158
-135.625537047739
-73.088126674698
9.75506130159884
123.290450636207
278.734019886431
476.508373683163
697.60285715302
905.662619386526
1059.96521004745
1131.39275931226
1111.80041510159
1012.64908505693
856.126543613476
665.398815621869
458.827031713443
249.037048547725
45.0710111939875
-144.682016059637
-310.597510438012
-442.127275991495
-530.466303058836
-572.332195471983
-572.641504307114
-544.214926819611
-504.158059341615
-468.203770784305
-445.259391315761
-434.563983241246
-427.184661422147
-411.762323436692
-381.776357061391
-339.895454972324
-296.290032654685
-261.971100313348
-242.098431677487
-234.138432680285
-231.51346987914
-228.827619397765
-224.127882253959
-217.25082084869
-207.211579657419
-191.932426644563
-170.509624566709
-145.307693938707
-121.425386901559
-103.82414004107
-94.5521537875249
-92.0886623438074
-92.8075552555669
-93.1229707117959
-90.9900071255219
-86.3048941643243
-80.3519865669349
-74.6806127320891
-70.025436794502
-65.9808386672967
-61.6492408138209
-56.5964094747721
-51.1180644612758
-45.590153286004
-39.7548747134076
-32.877717733994
-24.6287555982261
-15.6046248296851
-6.817345163498
1.23896495092229
8.78966599280591
16.0154391433762
22.3311385713276
26.6935115180866
28.6310242269629
28.7517761698105
28.1082949294198
27.2157851466687
25.9449300937097
24.3939957464804
23.5858578552374
25.0186025838626
29.499278197805
36.566174731507
45.0871294970204
54.2319263841321
63.6744264862546
72.9468950357707
80.9548664204779
86.4192739214266
88.8074207251627
88.6857457598811
87.1224207580179
84.8621317979658
82.1401804309379
79.1187105182125
76.2014374674919
73.7871203325059
71.8514186108845
69.9795158589274
67.8530239654487
65.5964715399464
63.5956337135699
62.089539265037
61.0741498676772
60.5621887150918
60.7361967579054
61.7109324746716
63.2212460190358
64.722853138088
65.8723939317745
66.8292391921215
68.0101464106976
69.6022177430401
71.4225857002715
73.2398268815665
75.0718208498397
77.03563036297
78.9536307484675
80.2746862453576
80.4777990589973
79.5039266448412
77.7218245054373
75.515305742072
73.0150971075731
70.2406201488909
67.3470865615484
64.5655353369006
61.9010831888516
59.0408024962114
55.6716063377661
51.8521770848948
47.9830587079676
44.429350521832
41.2938734455144
38.6130649586758
36.6493216548953
35.7970934414075
36.143259737141
37.2385777409115
38.4309848041239
39.4087849468164
40.3102607082048
41.2837738198035
42.0748743847074
42.182116170252
41.3917402180246
40.0080236052946
38.4820357444732
36.9182528346099
35.1054153714588
33.0491681030482
31.3259615208141
30.7706660210001
31.8165858496782
34.2171316195883
37.3959444081281
40.9251706971424
44.5529975246128
47.8476356592589
50.039461937881
50.376238253805
48.6286743814298
45.1728432413273
40.5819414882949
35.2172981736532
29.2261836998257
22.7918369609897
16.1940498782956
9.57101945625852
2.73706570293193
-4.63231649478426
-12.6251890594105
-20.9776185720738
-29.3540576515986
-37.6675339048263
-46.052523725844
-54.5637566862511
-63.0177193600126
-71.1790420726749
-79.0170139843193
-86.649831438898
-93.9964854407044
-100.547431609001
-105.548046761332
-108.420330658883
-109.011609084013
-107.510642077172
-104.250607417252
-99.6549498127862
-94.2957888369779
-88.8508452149782
-83.8969923636113
-79.7219911262113
-76.3251622304765
-73.5471900292857
-71.1560874183178
-68.8640287779157
-66.4086277619441
-63.7363162189012
-61.1003420894471
-58.8892911849229
-57.2997999874484
-56.1881713516197
-55.2531685099576
-54.3087129937064
-53.3043679028362
-52.0964941913907
-50.3278599846617
-47.6582142258787
-44.1223515871398
-40.1747956721772
-36.3225788961736
-32.7440452302498
-29.3142797165012
-25.9631901643072
-22.8958166502493
-20.4039831479663
-18.53436778911
-17.0607996272679
-15.8032495995802
-14.8680509995774
-14.4656473672071
-14.5018197175074
-14.4504033536232
-13.6952908178054
-11.9721458049076
-9.43989500621305
-6.38288798040631
-2.98367102241775
0.535233579463032
3.62807199314871
5.45870517288466
5.34306430132023
3.18897114158197
-0.501692366292712
-5.0228859808547
-9.80453174665254
-14.4033238695815
-18.3074362164028
-20.9216988246227
-21.8276465030227
-21.039733965428
-18.9653407521809
-16.1089060816007
-12.8198963772277
-9.287256296501
-5.69367937754957
-2.31136220177434
0.551983790337644
2.67011176161434
3.96516247106155
4.50363521333296
4.45887846533386
4.06098685987313
3.54347777791912
3.1199305779225
3.01063533720131
3.4618489127797
4.66797165879982
6.61697855289584
9.02760976617625
11.5154848495978
13.8868370871565
16.2773831413571
18.983809172186
22.1660985850587
25.7411027818352
29.5486014401577
33.5283310771739
37.6318723815975
41.5467262776045
44.5993198140391
46.0482724184093
45.5378368873071
43.2792273173821
39.8150655635655
35.6610263204251
31.193356605509
26.7974292136139
22.9637774675568
20.1132918612682
18.311692265598
17.2104710323396
16.3100094090042
15.2850243477602
14.0702482904939
12.6996631051826
11.1484006101874
9.3535777736141
7.32708984615299
5.16906803484384
2.95232879470326
0.635515887462326
-1.87109437071462
-4.55798338388399
-7.25423266029314
-9.70672827558054
-11.6997421291743
-13.1066004380318
-13.8833802075408
-14.078262479029
-13.8636179669535
-13.5192420108847
-13.3306637534576
-13.4690376140292
-13.9440065263065
-14.6368013727576
-15.3496982704171
-15.8423952896047
-15.8943763927893
-15.4107097496612
-14.495302501086
-13.3980718511104
-12.3605112158582
-11.4990399329521
-10.8160955845122
-10.2660221716777
-9.74429177118419
-9.00651266308762
-7.67646154383811
-5.44002498563156
-2.28798629527599
1.43993649264401
5.27160226061618
8.8581697398696
12.0139633221133
14.5560390325837
16.2063602383613
16.7322486175432
16.1813033887963
14.9158081684124
13.3692168072897
11.776313923131
10.1667066795312
8.60738324622105
7.39655322155632
6.97900697427031
7.67731685825029
9.52480215586603
12.3400263788218
15.9025247120571
20.011474540579
24.3949490543268
28.6352454272323
32.2533873131401
34.9069447708552
36.5334601104432
37.3350038823513
37.6434065096479
37.7724029282994
37.9246483497787
38.1619251496517
38.4226460801855
38.5652960966161
38.4115921596243
37.7785706358155
36.5240335957727
34.6291599551069
32.2754389695242
29.8176059304292
27.6168244305664
25.8474598041696
24.4480536587196
23.2469986506093
22.0991868950104
20.8698495668476
19.3217589606009
17.1276303206965
14.0968180285528
10.4057840415498
6.54358745465298
2.97984800297027
-0.0950609550845689
-2.66058055339385
-4.52314726031082
-5.18106882799131
-4.11812178819981
-1.23382805093625
3.06865581310734
8.22538907418105
13.8598560689968
19.7052098260878
25.2013673231629
29.3058308450067
30.8605708734081
29.2374392613726
24.660501345119
17.9463860226002
10.0045485582639
1.61142638213068
-6.43956912008657
-13.1832016293801
-17.6770077164075
-19.4506397821021
-18.7805821688085
-16.5105768779448
-13.5719148481802
-10.596722703225
-7.85756548066596
-5.44095031362072
-3.40983937751936
-1.81694426945914
-0.623169341629755
0.334967835639715
1.24284211680082
2.11897301901129
2.69807287038711
2.53094827471041
1.27968515174876
-1.01716886569724
-3.95706617723409
-7.06616666129245
-10.0821124490615
-12.9374747160819
-15.4967927658673
-17.4072658163757
-18.3032511969093
-18.1607803242885
-17.367240582995
-16.3791414262958
-15.3493822114502
-14.178428827395
-12.9443758061005
-12.1823405212114
-12.6288856400109
-14.6775798039788
-18.1417000762312
-22.546901141587
-27.5364358775006
-32.8667231821101
-38.037047917562
-42.1149978629805
-44.1184928749983
-43.6317395487884
-41.0193720457626
-37.0523346805868
-32.4082492361429
-27.5629413804239
-23.0255016507971
-19.4361180328737
-17.2828718592536
-16.5512991177898
-16.7522729591686
-17.3210348360978
-17.9512034916811
-18.5662007193085
-19.1082978805582
-19.4904163347457
-19.7298642308866
-19.9750107115186
-20.2986775922414
-20.5176931550467
-20.3178929197987
-19.550233379912
-18.3015268374262
-16.6457787223916
-14.4571468658422
-11.6170987792082
-8.37765451266995
-5.33225236613969
-2.90662552032013
-0.96696473170422
0.90548385311839
2.75285921294995
4.03150290655408
4.17879465373706
3.27546504134286
1.94734181283441
0.611882438047303
-0.940518512684683
-3.03832323044162
-5.33368731214426
-6.80968229910057
-6.68072603738999
-5.09218296183831
-2.74988256559552
-0.0114615443018378
3.31308759795375
7.19911596590433
10.8334135500818
13.20489095217
14.1773925218931
14.4831569912236
14.4163884764072
12.974058039466
8.98095646935143
3.1744521714811
-1.50111705106226
-2.37684061066318
0.243492796131701
3.55329088792488
5.68991810805411
7.93499731242908
12.2049012733458
15.8392570536086
9.76997121326404
-16.4185502979533
-66.0798249899501
-131.204693246067
-196.057158732079
-245.336721979559
-270.267452342756
-269.384664479394
-245.775108244846
-203.517047327394
-143.798894210209
-60.8914740613344
58.6359620879613
228.660713932589
449.069033267089
694.172618361016
916.169488969123
1065.46189383246
1114.72467047165
1068.96422410256
955.182828885735
802.176655575932
627.219952837935
437.035815512782
236.565670215597
34.7565894082266
-156.162858190222
-323.336550610278
-453.805041275443
-535.272674658707
-561.540969486375
-540.671349770346
-497.007474719169
-460.795137908816
-450.637954149759
-462.580143318101
-475.29505161315
-467.132653527012
-431.024216303924
-376.507858082493
-320.139804282785
-274.247868458105
-242.407254735041
-222.104328881498
-209.498641524877
-201.950359299272
-197.886358833018
-195.815463380845
-193.784761131513
-189.454345617208
-180.745665700671
-166.976228524395
-149.723797071571
-132.255143109109
-117.421765434116
-105.701359082616
-95.3093794568226
-84.2947022528976
-72.409444828824
-60.8633651476275
-50.5386253114035
-40.9201747732037
-30.9270849314035
-20.4387448954111
-10.5701681060487
-2.44689790062274
3.90784004819467
9.25618293267152
13.9927729414277
17.734372035922
20.102834854752
21.5229121902379
22.8898977514951
24.5320350711101
25.8532937784083
26.1341330011126
25.4480772048442
24.549831214963
23.995639492987
23.7502635782714
23.7944898855157
24.8059330189589
27.8204124623866
33.1451429718486
39.8697747705801
46.6412586305532
52.7871596481281
58.4529609991785
63.7155059894747
67.9536859605987
70.3779037290058
71.0476840011168
71.0076909161569
71.2687499897643
71.8345245621874
71.9244379353019
71.0477332255587
69.5699391973681
68.1446333023323
66.8576544896426
65.2359407574795
63.0738308941293
60.9417523327588
59.6757307556482
59.487977116153
59.8178480755136
60.0672667208163
60.248845266696
60.7615806814441
61.6908080686437
62.6186383691422
63.1856827120272
63.6080659883848
64.4173178091414
65.7440503325147
67.085321884957
67.8641911617813
68.0664839027646
68.1781785213731
68.5912712410153
69.3100315132671
70.3048646179356
71.9254496831322
74.6881692711659
78.6241430319125
83.018852922933
86.9038126454296
89.700728916106
91.2623197070797
91.406869321974
89.7377672789196
86.1150543011539
81.1700407227995
76.0760758068166
71.7101689470894
68.1627255157229
65.153102267357
62.7644579690768
61.5147559541438
61.6732054754599
62.7559018907715
63.9326288909526
64.8864838310664
66.0410258071653
67.8482258972939
70.0274866011454
71.7144696549727
72.3254223596828
72.0536204796426
71.4220392154842
70.5364837101959
69.0261572589438
66.7065281847671
64.029844627002
61.6759020032314
59.7816238860394
57.7907526158017
55.0969726137777
51.6368335288413
47.7036812075092
43.323204749446
38.1116882404096
31.8536190045787
25.014302433382
18.4362531667696
12.5398332971902
7.03678018660457
1.52773678387516
-3.79621846129487
-8.2745168970992
-11.5731745833774
-14.1133137675753
-16.5606472970665
-19.0434167578772
-21.1478779059755
-22.7388615462346
-24.5519144061659
-27.741891477079
-32.8688427078229
-39.5034082871958
-46.8486897193449
-54.5194177025884
-62.4963320941639
-70.409962314976
-77.2116815727811
-81.7961256580497
-83.902076654615
-84.23731558999
-83.7192541359317
-82.7671844837357
-81.4126953315444
-79.8952243247367
-78.8300929253438
-78.6849893279249
-79.2664408079146
-79.9199733272084
-80.2164113313439
-80.2820611846216
-80.4228034194653
-80.6046742167027
-80.4782450237613
-79.8502923941504
-78.90062794953
-77.823854815481
-76.4008575627986
-74.1337010165771
-70.8237161696951
-66.8529959383942
-62.7916200984359
-58.8277900523287
-54.7413223154542
-50.410624103714
-46.1302098562731
-42.2741671868293
-38.7343909330167
-34.9033213000683
-30.2932778855314
-25.0650455647162
-19.8447594591798
-15.0984967286754
-10.8528925747968
-7.04802125245043
-3.97452527689765
-2.1740094085106
-1.92905415557149
-3.01857112650597
-5.04603637656646
-7.88398807175574
-11.6506928560694
-16.294069007907
-21.3900927721659
-26.4454084762448
-31.2760448892701
-35.9171011298615
-40.1786978082594
-43.4956295881834
-45.3609422999746
-45.8307966811398
-45.4261279762276
-44.5027020849496
-42.8614087885144
-40.0875450878625
-36.17776936433
-31.6393041950037
-26.9280163657523
-21.9555135184669
-16.3183850027102
-9.97882121460822
-3.54549343859873
2.19296439287517
6.90310544448952
10.7667663441501
13.9898371948715
16.4556473800726
17.9449590417024
18.5463091884885
18.6428985123937
18.4735870396766
17.8649441484526
16.5020474831896
14.3777559018761
11.8377799143667
9.21748182881122
6.63176364721163
4.23575673275466
2.55437664149435
2.30306626304078
3.7845252492024
6.56854283169268
9.86508564824297
13.1311552940788
16.1664694141791
18.6635617326723
19.9484842844722
19.416904773862
17.2022914345552
14.2050343955726
11.3688269128681
9.05952870832542
7.28280501168263
6.37239675364767
7.13109201207607
10.1119802830086
14.905803578137
20.3826952558582
25.6442936426158
30.500064151454
34.8666252397915
37.9112947493536
38.1789067703728
34.7409561130761
28.071336459349
19.6117043104415
10.5713552579083
1.42411320118208
-7.36718798775545
-14.4850774095272
-18.073180466453
-17.0776852297055
-12.117808546916
-4.88446833450618
3.2090738714151
11.592972828371
19.8699316955887
27.0162608142479
31.6462067850076
33.0933596660079
31.9760613102639
29.5399400336579
26.564082196732
23.0757166448414
19.0269888609901
14.9039797152459
11.4493477795649
8.91452233987516
6.86267944625386
4.77564416529286
2.6524910369256
0.834862265873923
-0.65526510350449
-2.34599426409601
-4.79508628993475
-7.99758458215677
-11.4682798234129
-14.832530459375
-18.1109043285329
-21.348029912992
-24.1506798407638
-25.8222488357822
-25.9665269631649
-24.7998759571676
-22.8029042981767
-20.2043503533392
-16.9500229322682
-13.0851327890009
-8.90206496929398
-4.58366517651575
0.138266475864079
5.7284242027469
12.2198282775734
19.0015954762349
25.3095082631604
30.7657085522838
35.2325227107527
38.2026456707903
38.6737633659941
35.8990395869383
30.2134440902914
22.8943810172717
15.1444968388889
7.38553322291506
-0.330910119865706
-7.42644921901627
-12.6925519452321
-15.2422301133053
-15.3729289958173
-14.2355956271426
-12.6830334708676
-10.7022145094826
-8.0746618101785
-5.31944948298587
-3.60925958227244
-3.69256152736559
-5.1656356391863
-7.00572800541494
-8.65520204011899
-10.2519005407428
-11.752357424559
-12.1942125177426
-10.2141366596856
-5.3125256987243
1.65972506749672
9.37829081789
17.1650330947608
24.9587125714613
32.2754840610833
37.6554162424518
39.5061501042709
37.4562619250555
32.6231308579529
26.5008690915894
19.8354467467299
12.7801555552748
5.94502488173217
0.826013530397399
-1.06983167329519
0.593851613992719
4.87781244429349
10.5811984889251
17.1029679090932
24.2222533086365
31.3194950428413
37.2112841374249
40.8668579215963
42.0962810522076
41.3868851428018
39.2013014442574
35.669962386209
30.9446142308098
25.5298093194025
20.0011733137942
14.4745640234597
8.61951429461516
2.27596223215338
-4.1435138248523
-10.0368721164068
-15.2643274727418
-20.1261321484292
-24.6208962849595
-27.9915630684365
-29.2979138235414
-28.4179634963328
-26.2264844869325
-23.671933512477
-20.8768280439687
-17.3796443524285
-13.168959061502
-9.11639939237617
-6.1799364959433
-4.36225729263393
-2.76988807644631
-0.729435532978194
1.43404410871932
2.90640732721942
3.4673557062286
3.72023517845188
4.20123916736698
4.59200204195234
4.11298124868031
2.59192226520484
0.789212830286399
-0.462003473596111
-1.17358144784935
-1.9808026503849
-3.11400049435825
-3.98243951929125
-3.9659304037834
-3.36266545710293
-3.18640890039157
-4.02046771763396
-5.41513360762598
-6.62494664358921
-7.70294402831145
-9.47169766222757
-12.3774276537122
-15.7500610178993
-18.4943450149048
-20.3416844964648
-22.016024862435
-24.0868108970657
-26.0447957239105
-26.8752763285993
-26.4131910211755
-25.6810304392233
-25.7231335023833
-26.4568812660341
-27.0693119726688
-27.4220992528132
-28.5229549103444
-31.3158996396035
-35.3188878128571
-38.9419317669638
-41.1452312305303
-42.2852255494895
-43.0281288604229
-42.8171300571911
-40.08247562659
-34.1138615174656
-26.1989418835368
-18.434765313138
-11.6475451292634
-5.12687866506798
1.45472426073966
6.56475618993244
8.01013051143522
5.53217454445678
1.43130568687982
-1.82125521562751
-4.06049285354964
-6.70065174702109
-9.58993308866713
-9.68047830353742
-3.84261221225979
7.13599118703163
18.3488986250152
25.1290936558765
27.1468038070732
27.4940887316463
27.9769811070421
26.4842414612958
19.7246921441823
7.82686788125779
-5.24360891170549
-16.3685719013103
-27.4046633951147
-43.3823527812188
-66.5182401833416
-93.0480525817545
-116.64063111747
-134.187098598575
-146.865202505752
-155.221187605005
-154.407397738251
-135.445467584527
-90.7818072574212
-17.1428734588784
87.2738730152263
225.79342822892
399.224059294283
596.013061535677
787.074235113932
934.07877884885
1007.48265155227
1000.08360396769
925.087570176702
801.795976555823
642.780758766746
453.273807212143
240.551292679767
21.8375386362832
-177.903502564123
-336.384147453933
-443.51626180701
-502.999664019425
-526.479825853386
-526.085216845316
-510.522121483267
-485.650588806447
-456.914543499066
-430.368302939759
-410.894164709858
-398.958662730063
-389.091055204994
-372.572124021178
-343.462753278645
-303.575240411834
-261.93063053819
-228.605511478562
-207.972470212143
-197.018719279439
-189.629826459512
-182.151667369732
-174.885297436309
-168.919560755593
-162.61154735602
-151.924517183669
-134.246537944806
-111.508240156965
-89.3317637569085
-73.092717476703
-64.5109902691702
-61.2690274562926
-59.1216441513565
-54.3605822501382
-45.2420394572996
-32.3157817290917
-17.9334261690565
-4.98350034530229
4.75799305116077
11.559542697343
17.0590693809956
22.5281227105509
27.766025109086
31.66725569786
33.6652544939843
34.3635496236672
34.7636563768903
35.1991371080573
35.3033541200423
34.906689156093
34.5711378790662
35.0194962425317
36.2181571295203
37.3488864370838
37.7592491402572
37.7234821111273
38.0937725732498
39.3243807899059
41.093925676685
42.9208597796695
44.8839511432809
47.4746408868582
50.7790362351482
54.0681141265321
56.350731686227
57.2323737016911
57.0803178691709
56.4061081736937
55.323543266847
53.7377248924962
51.9102551752343
50.5700477139499
50.3709427449894
51.3574769276557
53.0726873034136
55.1156914483427
57.4339292837556
60.0522268316927
62.6877185423032
64.7942597675669
65.9623588100005
66.1393002164914
65.4221582809027
63.771503416464
61.0742425668763
57.4703663875891
53.4799373612816
49.7371517651273
46.6649015465121
44.4734712691879
43.3851590392843
43.6605256097022
45.3011631031756
47.8191819372087
50.4611156577735
52.7125422369914
54.5275552755669
56.0562432322465
57.273151424053
58.0102049652653
58.3253976659225
58.6494681348734
59.4131812207945
60.5506319546148
61.4924460736598
61.6948161164735
61.1030176827471
60.0439580650946
58.7567832550763
57.1919383025635
55.3132612314615
53.4541591017868
52.1948704022471
51.8447082872794
52.1318412730098
52.4636178524244
52.4379820694324
52.0224711011651
51.2726637348235
50.0264188053798
47.9791448539785
45.0107755037015
41.3151132126812
37.1664899374669
32.6363715317054
27.6160963035892
22.0890591207095
16.2924865380144
10.5919926261801
5.2734825120854
0.516342021719112
-3.49332377157466
-6.56115397749588
-8.66150625611086
-10.0535655545934
-11.1247274154531
-12.0988317045309
-12.941706023294
-13.5521412830455
-13.9585498779846
-14.2515005890526
-14.3686459769582
-14.0869556254066
-13.3207578055405
-12.3908522934001
-11.9031750885019
-12.3254540876235
-13.71474877804
-15.8558241827194
-18.5638827251124
-21.7385105478823
-25.138497075007
-28.2647098946133
-30.6238415102129
-32.1338390243136
-33.1956945476153
-34.3287966443571
-35.7891377164209
-37.591480220412
-39.8287285957369
-42.8014160776791
-46.7325812051939
-51.4143281615174
-56.2672559148101
-60.7957571338555
-64.9103689291936
-68.7218540960906
-72.0481647130433
-74.2362055888415
-74.5381700949385
-72.6368003244994
-68.7642019724363
-63.3657270759643
-56.787810007947
-49.3815116573776
-41.8461685391199
-35.2989060556742
-30.8513722761953
-29.0380460911624
-29.6091548472892
-31.811415283339
-34.812321731985
-37.8909451920935
-40.3807582661075
-41.6360854180738
-41.1958885584024
-39.0155029754895
-35.5121756154348
-31.3454256792247
-27.0992619094919
-23.0888084441057
-19.3694925830827
-15.8678492307206
-12.5135121631713
-9.30655512302603
-6.31616267683462
-3.6402956014856
-1.36808174461501
0.428438000649539
1.69093750486312
2.4066203646119
2.68248890796974
2.7889853196729
3.0840281619011
3.82884892958275
5.02980808607036
6.43974518302961
7.7131310879954
8.5798326061001
8.92015260920928
8.74957608227649
8.19622351725999
7.5029249765515
7.00291065353212
7.02611573475537
7.77787447019857
9.27304348907692
11.3533319178376
13.746271487834
16.1305730847819
18.2191259614033
19.8577103982139
21.0671435565981
21.9518383700953
22.5203987293979
22.5873070812542
21.87211975898
20.2065323663969
17.6369655781621
14.3366224595092
10.4767904066842
6.25434968534783
2.05132317981401
-1.51937726761597
-3.85041511945146
-4.70617913527796
-4.37487650584729
-3.44768574412286
-2.43461999750336
-1.56429660469035
-0.876314035734922
-0.393331949701398
-0.127869883479072
0.0541406950042074
0.470709890882599
1.41693665522436
2.86171959384963
4.33562265431468
5.12844243716123
4.6356869808368
2.59841193860749
-0.870916413660511
-5.39136466458865
-10.4166546395264
-15.303787578109
-19.3967319670259
-22.160723298454
-23.33179115211
-23.0017786662065
-21.5754666113627
-19.5989969408709
-17.5375876331487
-15.6285641249615
-13.8969641426802
-12.2965736437521
-10.8334444014538
-9.56218698063786
-8.49742117936842
-7.57912541185162
-6.74291482809927
-5.97679554119365
-5.22786481834279
-4.21684617648263
-2.39556408215301
0.812843269007862
5.65355043390598
11.8805375566343
18.9206498231046
26.1468124623235
32.9762796781774
38.7922274738476
42.9564887172849
45.0737881120688
45.29918049602
44.3255347372992
42.9819726552442
41.7897147875938
40.8573268847242
40.1066771170098
39.4808524099497
38.8996519866201
38.1202359198486
36.8064462569305
34.8191008567927
32.4003161203081
29.9986736018675
27.8951934523483
26.0222864518442
24.125658161008
22.0176318979324
19.6209483287242
16.8437870269771
13.5805974268863
9.94409818881605
6.45234728243496
3.85381710308878
2.67270500743698
2.90477618962616
4.13594347285901
5.87634673522999
7.70415815804931
9.13835115852965
9.56947948127792
8.51878556953159
6.0296250608301
2.7329025958308
-0.557372254192671
-3.33520432888433
-5.50922026232643
-7.11552368427459
-8.06532755040688
-8.2386491224003
-7.74226576976456
-6.92597033241747
-6.07606181802364
-5.14756392259746
-3.88157943798924
-2.19811925823686
-0.429535908592152
0.844317412653927
1.14833219040577
0.289902527860063
-1.71773074609858
-4.76004553737754
-8.57863086378534
-12.6899053616454
-16.4737718834965
-19.42855769427
-21.3695377671703
-22.4164680108734
-22.855175014754
-23.0341033528279
-23.2981743789722
-23.848925978402
-24.5542850446928
-24.9201573581921
-24.3548787985504
-22.5415658829992
-19.5833403201004
-15.8338766466004
-11.6796819894833
-7.53984922889591
-3.98722677084149
-1.66414584006252
-0.912124429739396
-1.46531889860807
-2.58948017371873
-3.58316206649229
-4.15305094843125
-4.34418208584848
-4.24047772414049
-3.87229300138241
-3.40632243372108
-3.24948077864202
-3.78508168036582
-4.97905005305772
-6.34677628168355
-7.38149352800093
-7.98475713433679
-8.43424193909492
-8.99560763556666
-9.70018360465591
-10.531621199587
-11.668399768488
-13.3236272999721
-15.2783539400592
-16.6985983826119
-16.5771648300666
-14.4167329743381
-10.4740546653346
-5.39766028877319
0.228507633654382
5.92044273607406
11.0317541211479
14.7401507796441
16.4835217460409
16.3976306306138
15.2192374277679
13.7187848534905
12.2501061536487
10.8017565856373
9.30735419697297
7.74332478308085
5.95867473480849
3.61933110587757
0.492050711195731
-3.22829038009565
-6.98185084848557
-10.2651219205051
-12.9307837153686
-15.0705343149105
-16.7488350481641
-18.0164719670518
-19.1643057052823
-20.7473847921349
-23.1674884363614
-26.2441860605913
-29.3355305892414
-31.9320500486666
-34.0427738164221
-35.9454103247457
-37.6912747518336
-39.0574918368833
-39.9961610883693
-40.8947736455202
-42.1617784007105
-43.5744169120755
-44.2367503713091
-43.281231444548
-40.5070760005425
-36.24627303002
-30.7841820638665
-24.2337913627404
-17.0490538447807
-10.3252569929606
-5.19038341926911
-1.87359779342336
0.304370969770966
1.85349963281923
2.35285091422341
1.26223405989373
-0.460271311809233
-0.122419302375516
4.68281373072941
13.744857042975
24.3496834428832
33.964414853775
42.362640203262
50.2650569788623
55.5228597135558
51.2593630521147
29.0913118235188
-14.433062540118
-73.5265859672741
-134.718668770208
-183.142427226767
-209.148474215516
-211.511731433308
-196.165272213942
-171.255407616847
-140.263171776952
-96.4416848273436
-23.1552045060822
97.2843181153568
269.944913507815
478.215564487131
687.403980003024
859.697078067795
969.820414635648
1010.55584900388
986.766914641103
906.280728037986
776.399763564596
606.669632937064
411.534326494174
208.132128943178
11.6233512211706
-166.283410468282
-314.604904948463
-421.607037313131
-479.518938133694
-492.553211665454
-479.259235194692
-463.867476174101
-461.850948651563
-471.43424712819
-478.05824221603
-467.41421173418
-435.857033455141
-390.816552424956
-343.39760847599
-301.055068107238
-265.777333196193
-236.854812988002
-213.86866511398
-197.178728976734
-186.621756220062
-180.497962052812
-175.820132856584
-169.38607782013
-158.941190272851
-144.012324507112
-126.067592614156
-107.71738134879
-91.2866532721491
-77.8118237186834
-67.2682117287209
-59.5758050622558
-55.076214282594
-53.870293899829
-54.9013467123969
-56.1013607285104
-55.6779658998633
-53.2121894136263
-49.421756333693
-44.9985371685436
-39.9224585349932
-33.9047656510424
-27.1551155297132
-20.368167665345
-13.9816926288393
-7.77768056016129
-1.4308879022877
4.69589083931517
9.59984274469385
12.5585473867519
13.8228343397847
14.2617586988721
14.4658235925129
14.4662531282504
14.3694211366915
14.9655774658993
17.3684119346118
21.9903445451059
28.0591394370877
34.283180836825
39.9278385778221
45.1421277270114
50.3436390999055
55.5678737903646
60.5748880047069
65.4291268177689
70.6513106104758
76.6289751214639
82.9481552541112
88.4286700692703
91.8218037275596
92.4397871689803
90.2256876782545
85.4986961548856
78.8519310912153
71.2377774591878
63.8785857292363
57.8619032912667
53.7626855314248
51.6555613705706
51.3952059326538
52.7447146372464
55.2500702619196
58.2282053616481
61.1400866992449
64.0296111777646
67.4495505516275
71.8248910253199
76.9130103908021
81.9704833137084
86.4145992559991
90.179908265914
93.3756013236109
95.7536623904176
96.7476180196054
96.1009387980468
94.3076402404689
92.2632433332148
90.4760263875317
88.7326678316981
86.571393453619
83.9660093524779
81.4297366616293
79.5022921038062
78.3096003548616
77.7013584407786
77.680304197164
78.4771417627522
80.124987661021
82.063656983064
83.2910697719058
82.9293988053346
80.6291631646151
76.5099450227764
70.902938367289
64.2784278626836
57.3356501781848
50.9246663638167
45.6923655353972
41.7684758027351
38.8271218352456
36.4340018247568
34.2877579679085
32.1780456562964
29.8954138176874
27.3600447663832
24.8479377453368
22.9429199301433
22.12041257383
22.343898376511
23.0990377296628
23.8147855526671
24.2099041917721
24.2579854464765
23.9570868429662
23.2789786178074
22.345332903201
21.5077025132031
21.1027508309438
21.0826970295727
20.9089609621499
19.8038539333732
17.0785100515464
12.2727420162013
5.17067640229939
-4.10188640494383
-14.9329193055207
-26.3068725631651
-37.2158195758789
-47.087837179434
-55.8340536480932
-63.5307244218194
-70.1659794705369
-75.7452314978471
-80.523102152899
-84.9120191155375
-89.0341080158422
-92.4186444343395
-94.2812405638571
-94.1737996529913
-92.3462920590149
-89.4784782677261
-86.144935449412
-82.6147193556972
-79.0979604003898
-75.9831446732273
-73.6743777745012
-72.2150970599118
-71.2038553505994
-70.1602077453709
-68.9464329894636
-67.8001883488448
-67.0199599207525
-66.7231184127273
-66.9068600135237
-67.5951034071646
-68.7721030246359
-70.1733377774667
-71.281378143104
-71.6463551957422
-71.2113040251302
-70.2757311693306
-69.1622210777591
-67.997925224708
-66.8267164075006
-65.7984816911147
-65.0820510015581
-64.5630961486182
-63.7542491764577
-62.1378025477758
-59.6166279283888
-56.5751696894524
-53.4988039485457
-50.6093670012318
-47.9001697222903
-45.4062240045008
-43.2511202651147
-41.3571972416637
-39.2239602667521
-36.1648536768208
-31.8349445170306
-26.4942918126168
-20.7416688205066
-15.0593721014028
-9.67031881114876
-4.74827083805071
-0.564695235746029
2.70554455553292
5.27328132555427
7.68100089742885
10.3760346206863
13.3563584062487
16.2547646946814
18.702389955081
20.5257967560245
21.630080839984
21.8690868948262
21.1883670625144
19.8831526084103
18.5717031955796
17.8047196742923
17.7054936799954
18.0258981087942
18.5044346799293
19.0707069243844
19.697391850878
20.2013692972916
20.3610747098452
20.2554047041907
20.3665321193052
21.2341848697802
23.0049327202899
25.364277255317
27.8789771840721
30.3070153252437
32.5496161900522
34.4369611153122
35.7485141745241
36.4964480462167
37.0724961921315
37.9818897137014
39.4177704012256
41.1526704407629
42.8258711886806
44.2127507953598
45.140891326974
45.2609971807051
44.1310610447125
41.6490279274221
38.3226912956507
34.9692376353276
32.1251280082723
29.8384456181026
28.0571528982554
27.0678089044357
27.3669631449615
29.0916339079536
31.748212242757
34.6378843943868
37.4804045127191
40.4412709353724
43.4962406086756
45.9278037844507
46.6358889200796
44.965894367827
41.1267484597726
35.7832999713001
29.4152105164476
22.2660828213716
14.8804572447516
8.41021072126025
4.11910478024949
2.520680438774
3.07924308779626
4.76445600846086
6.78136233457051
8.6937837108038
9.99944636539779
9.90325188390943
7.71805989774666
3.45254220289756
-2.14475176551151
-8.1726970806042
-14.1434050886325
-19.955530188403
-25.4542604505369
-30.2072761135634
-33.7589507511349
-35.9847902904146
-37.0842175817753
-37.2638614178056
-36.5509865141617
-34.9513222006465
-32.6874257765481
-30.1780120502795
-27.8006733594412
-25.7549485027077
-24.1463285826892
-23.0729430535567
-22.5293929423066
-22.2898819992572
-22.0484552571617
-21.7494384370903
-21.70345672265
-22.2826020584098
-23.525192793096
-25.1311365312356
-26.829568031765
-28.5823324427486
-30.2806913265254
-31.3093211140671
-30.6467325202611
-27.5741329958868
-22.2739542152962
-15.6469274081871
-8.57350073666328
-1.49071769644453
5.28448115778145
11.0424761741425
14.803586954968
16.0756703627529
15.3671089284559
13.7895330842465
12.1613513483215
10.6161464597227
9.07548901683015
7.87618580715795
7.69731044384389
8.87626747394436
11.0103156234254
13.3765842063485
15.6522394366637
18.0394323788368
20.6747709257838
23.1184530686376
24.597248790651
24.6967734632413
23.6404958208894
21.8591590828109
19.4743309298344
16.3842779258025
12.790248403702
9.38427902543278
6.85951627627635
5.31337455047893
4.28070655003795
3.33187252786387
2.4579692993695
1.78248994867823
1.05918534917729
-0.288867151351214
-2.56430270389196
-5.38910574689567
-8.04979832290434
-10.1906417654556
-11.9981996666004
-13.6730996152175
-14.90048952679
-15.0206079459453
-13.685067963433
-11.1614751616502
-7.92312608534019
-4.09543764680969
0.501893404116828
5.78373478799796
11.0730316445262
15.4763278440886
18.5125777360911
20.2476563358164
20.8649695841067
20.3296816787434
18.6131840391662
16.1203426727412
13.6416814976092
11.7820286627576
10.5450082768173
9.58016889341121
8.73963410722063
8.19813385934652
8.00450562721698
7.73268841463258
6.79182136357537
5.05712595179835
3.00037413699753
1.11374857704414
-0.651805736225687
-2.71171731887304
-5.17233424312349
-7.55359752092662
-9.28573507839984
-10.3248572470657
-11.065802340473
-11.668990768706
-11.7208393036092
-10.7268618328089
-8.82561606561181
-6.78651714840045
-5.27258291634025
-4.30873167051366
-3.61338122849842
-3.28592325660501
-3.85326066155623
-5.54655412156968
-7.76214006567811
-9.48471153758743
-10.201313657734
-10.1642078258795
-9.7013197039413
-8.54316624273798
-6.12756082073381
-2.51775109521292
1.32148697554038
4.35925276777714
6.43362063749419
8.07942402516877
9.47152166855596
9.91122650385227
8.61684094065066
5.83916453723634
2.80521651412961
0.46987588841828
-1.35264089250728
-3.33769570849683
-5.32776993357702
-6.14015863805519
-4.88180483332855
-2.12738453470042
0.614468693212499
2.53397733591808
4.1521364024226
6.10823154750014
7.72772660332855
7.40997263810321
4.52918386810908
0.417687693471922
-2.99252571481547
-5.25643425050303
-7.49691488966872
-10.2469946240535
-11.9041478708556
-10.182110196497
-5.14951849081559
-0.0315713677324281
1.68173547242046
-0.321512704101251
-3.3949602374344
-5.78983130650846
-9.45808278376083
-17.9561579311081
-31.4595437707555
-44.9141925972575
-52.3362932284085
-53.2429637978576
-54.2532671487582
-63.7597037819766
-84.9589545063735
-114.113818722054
-144.957102267953
-173.505320382047
-197.695889830011
-212.711089744971
-207.996041926783
-170.07273177355
-88.8756415461774
38.0364870267217
205.894257295925
404.839948342632
619.749148272643
828.095460185077
1000.52730623041
1107.59896648914
1130.13033784138
1066.19492647431
929.60863928552
741.452330214099
521.425030969074
285.052895812869
47.0021129043479
-174.744241999275
-359.60957568545
-491.112775701626
-564.76772922074
-590.540424627559
-587.103469180674
-571.735308771818
-553.289332393084
-532.798224102333
-509.414810099881
-484.983447845188
-462.884624376542
-443.425790423224
-421.938478114471
-392.671809851259
-354.881552662888
-314.647670104838
-280.243072079064
-255.677682025908
-238.833243832097
-225.45452598712
-214.009723599607
-206.013577769101
-202.00405202633
-198.398592285939
-189.281947693073
-171.430247043322
-147.25063417591
-122.708350589345
-102.636471612448
-88.0463851953027
-77.2267594390744
-68.3657917925737
-60.7130928553313
-53.940419102431
-47.5543912601268
-41.4295701289995
-36.3953861868958
-33.4904683969631
-32.4056160986801
-31.061499889746
-27.1294350224676
-19.9516922003379
-10.7622956168033
-1.10314118633645
8.59821535391822
18.7057114153861
28.9800062550037
38.05072137139
44.4758545883497
48.067522976488
49.8831592532836
50.9995338238181
51.6382007592197
51.6103236086839
51.2972954015228
51.7664046097102
53.8398182957296
57.3192784337279
61.3387154470371
65.3558193772438
69.5345799006021
74.1393756215753
78.8472536105599
82.9141436969243
85.9437469269337
88.2172026302462
90.1623730404408
91.6977934941793
92.3340330354248
91.8885541539877
90.8531609131801
89.917795131679
89.263221152977
88.5204666826424
87.4019816361923
86.1344687166832
85.1125800266105
84.2442821382394
82.8801933586044
80.4657032579702
77.1221187597409
73.4609228266531
69.9133756160195
66.436374166117
62.9115623994271
59.636858035136
57.2194591463436
55.9995073493515
55.7596403074988
56.0935403272867
56.9441727143132
58.6195909167078
61.2962763409889
64.683489772772
68.2824840340153
71.8749780647078
75.5840734193752
79.4401151624831
83.0573516902447
85.8910251972588
87.7838707122671
89.1267858441125
90.4429073408831
91.9127301230093
93.3786060350254
94.7121026513182
95.9803884608094
97.1755287191224
97.8971535446868
97.4556468034088
95.3069048063386
91.3067240126475
85.5447511435393
78.0904404696861
69.0619061880216
58.9121757334801
48.4499469835957
38.4316076491042
29.1705054595632
20.6592804475708
13.0619823533181
6.92357691776206
2.77277918975363
0.585542147540707
-0.191209954120723
-0.0283371022332517
1.15902646332677
3.75961223797023
7.79074327558203
12.6374937935485
17.542501863839
22.2576659692146
27.0697001215458
32.1803333494098
37.1987000817272
41.3388910376657
44.0471507054182
45.3018656478538
45.2972725186791
44.002106222105
41.1931119415264
36.9100677999408
31.7275676633302
26.4726873333335
21.6978734207539
17.4746148096683
13.6289203338027
10.0119986405902
6.45254753986628
2.53789351432765
-2.37369110607198
-8.81588998366421
-16.8910027911204
-26.2832756113148
-36.5202602774893
-47.1469169345895
-57.6892953611512
-67.6138574883749
-76.4659107942674
-84.0535736179698
-90.4146429637418
-95.5739308168166
-99.3965277820645
-101.729041767501
-102.622270573105
-102.294450598003
-100.843484362698
-98.0992609399468
-93.8796505509376
-88.3900698360796
-82.261258489459
-76.1178215158945
-70.1501873558584
-64.188905450963
-58.186332848967
-52.517505962872
-47.7344510207667
-44.0756726614518
-41.3208143486852
-39.1427214397691
-37.501498990384
-36.5972674350937
-36.4603178250909
-36.6964261349091
-36.6970009945223
-36.0645841952522
-34.7906559861548
-33.0677328214556
-31.0367424036292
-28.7531331599258
-26.302000059453
-23.8123878548964
-21.3238222458974
-18.7114166963447
-15.8089324593728
-12.5923156850515
-9.21061684792524
-5.8865577451634
-2.90064933335467
-0.715116158006978
0.0032613544293838
-1.32222650526766
-4.74448497480329
-9.66348280555024
-15.1750797061432
-20.5410812571484
-25.297678875877
-28.9910250020224
-31.0195175185679
-30.9282230716372
-28.8778428872773
-25.6886760256059
-22.2917943233312
-19.1129595793726
-16.0155233267065
-12.7904668002092
-9.57055044992162
-6.69717229844954
-4.27585768325245
-2.03409697434076
0.311556855540481
2.6329450137867
4.44845561366156
5.41137996385761
5.66340879764562
5.67071827633624
5.78201847662206
6.03163306516148
6.3465426713257
6.81133149223537
7.63275981671745
8.88692251523902
10.4192505308025
12.0424602964206
13.7711513313135
15.7882839928582
18.1938107076752
20.8519098475706
23.4920102183984
25.878171623757
27.8117174984291
29.0202081696207
29.1868954000056
28.1901531477064
26.2983681601527
24.0596518785386
21.9745142729269
20.2939659500674
19.1079468877716
18.5133153613756
18.576634529623
19.1310567285445
19.7262066150298
19.8927665302556
19.479226101612
18.6979069984789
17.8508031920187
17.070847590866
16.3491481219458
15.7275885913621
15.3431888120076
15.2587741029649
15.346384574676
15.437766792764
15.5820524646278
16.0685712246281
17.1505784121974
18.7868895993095
20.6900207701332
22.5610818846541
24.15541984295
25.0936841474986
24.7528809070066
22.5453947547895
18.3987652590442
12.9155689870833
6.99686232889305
1.31961110480756
-3.78999792558972
-8.05832601490512
-11.0482919078345
-12.4015788731565
-12.2726906115652
-11.3635799657347
-10.406304040518
-9.61673848621458
-8.70438432078542
-7.37751607286437
-5.72235764023177
-4.04366152824531
-2.44792782212769
-0.748150359795229
1.1863703194577
3.11303735712264
4.57935776011015
5.3984902700748
5.86251032854805
6.43725613848373
7.31076642479124
8.31203837019477
9.22332912263738
10.0325112966099
10.8100303591052
11.4287967452664
11.5577838545494
10.9840887608156
9.86609235756436
8.58912769928263
7.38547626906601
6.15049598692841
4.60716718479216
2.53996598818749
-0.196223704945679
-3.80554094505128
-8.50963986545981
-14.2780372112977
-20.6450038548298
-26.8847099051996
-32.3878255357875
-36.8384828430006
-40.0684764255989
-41.8967516298143
-42.2546744585919
-41.4467781980329
-40.1203017104644
-38.8328689481766
-37.6417618475623
-36.181004799565
-34.139472058051
-31.5830889187954
-28.7802119133926
-25.8242240255941
-22.5874029443717
-19.0751180677295
-15.6871256478357
-12.9780854671816
-11.1496953760561
-9.87746649362766
-8.68524483007491
-7.41784306921606
-6.26953331659994
-5.41166868971845
-4.76082291324704
-4.19831764021604
-3.91094281244073
-4.32897956811327
-5.66063591394093
-7.5817478920398
-9.49152178044103
-11.0582181888189
-12.4267656539728
-13.8919752516904
-15.4987226793633
-17.0744052838661
-18.5927838455977
-20.3154145476031
-22.448884039529
-24.7081337234316
-26.3378784052547
-26.6060364488845
-25.2353321011041
-22.3638216408279
-18.2239715246334
-13.016781201929
-7.09811891895491
-1.11577090120691
4.20959455981836
8.4713735881062
11.6956008786887
14.0906920411053
15.7849321287358
16.8679451829387
17.5889385744673
18.3364484805345
19.3566516393983
20.5887225959231
21.8846723518036
23.3495103267973
25.3190640508309
27.9412099021036
30.8795336815167
33.5510179695336
35.6261622766056
37.151231083309
38.1311285917377
38.151661596731
36.6279880427811
33.4614039091072
29.284019551571
24.9000830551315
20.5174214278823
15.6623938205443
9.8638212043788
3.26050045719913
-3.59176833663622
-10.40652051747
-17.4059748411689
-24.7528238192677
-31.8758899772659
-37.5790077114763
-40.8859918249301
-41.6902757098876
-40.545356406774
-37.9807836496111
-34.2205934313278
-29.5407781189057
-24.6224461123794
-20.294462819666
-16.9226799908541
-14.2138364125355
-11.6810606447897
-9.17631402397846
-6.86067063002006
-4.77899865847685
-2.7297950410628
-0.653444633673716
1.04226965366341
1.7957381282613
1.55534177444811
0.946974893726719
0.669094602147308
0.843328856649249
1.13978725524543
1.48836733727262
2.38471660190007
4.30728550119178
6.9694561501991
9.43855498316982
11.0809979453323
12.1913747207047
13.5019948827287
15.1758061060782
16.5557639343448
16.9776163531573
16.5779309956271
16.0402791700983
15.6220638374849
14.7584871984171
12.7784753805055
9.78922006930127
6.56541238559194
3.62587704670028
0.780379709576832
-2.23577734624783
-4.97260035656659
-6.53141500791291
-6.61944050639544
-5.89738237675218
-4.97928020268217
-3.39776789091294
-0.17200637742666
4.46756257110516
8.54618883141885
10.2704428802978
10.5165415330621
12.7155175436636
19.6855146601615
30.7487065378231
42.5486739550539
52.7342605991586
61.9711303487323
71.3404177312758
77.6950174254762
72.6024832328835
47.2163303666981
-0.792769398385551
-64.3564589291036
-130.267972832673
-185.187908149971
-219.911854345554
-230.666295984557
-218.693004317298
-188.254844032485
-141.731649897444
-73.1231817862109
33.7797665668182
196.440563927602
416.457151779692
667.133102971109
898.588639552284
1060.07579495932
1124.05151387251
1094.45488511018
995.215174471263
851.22772921314
677.558121062284
481.756280146252
271.572045865755
58.5453011743942
-143.945335788608
-322.907737182076
-465.266577017058
-558.305821987738
-595.435168368566
-584.502209272628
-549.46806462481
-519.806205312542
-513.442962197889
-526.639146036445
-539.322889987633
-531.287713033999
-496.008635174987
-442.349458207993
-385.612273776836
-337.187882408548
-300.473802146276
-273.44973208676
-253.159786498519
-237.957906247415
-227.041959728833
-219.161101645972
-212.08738507333
-203.144757163089
-190.362309721522
-173.616210069905
-154.962040095835
-137.571992763137
-123.718937063771
-113.346052131274
-104.515141393245
-95.303993132303
-85.2723568463969
-75.145504853221
-65.3622660519896
-55.3210318420817
-44.1851481518321
-32.1938803178331
-20.8538136222086
-11.752747364135
-5.31903510449749
-0.7924416427116
2.79381989695267
5.84364720314416
8.33585338748301
10.3561691235614
12.1831477371673
13.889591483417
15.1448796213046
15.5918280819538
15.3341620844283
14.8894029042235
14.6711164457703
14.6827167489423
14.7986041925836
15.2050423564322
16.3594418874325
18.4844857053576
21.2583882757114
24.1342300008065
26.9190944138621
29.9156787102405
33.4898739215156
37.6358802528786
42.0607643338387
46.6070486359506
51.4128546020716
56.5989528566936
61.9213064455875
66.8734141170777
71.1262866508681
74.7586532796701
78.0185450668209
80.9638255423119
83.4475427878028
85.4127632728819
87.0351722128977
88.4748860490341
89.5618134749082
89.8724949242016
89.1649107420756
87.6624076614461
85.8489631181819
84.0425681949093
82.2728644733717
80.5744341853366
79.2617513801999
78.7797521205514
79.281864278186
80.453546881938
81.8095695819054
83.122913256123
84.5068092101018
86.113860203752
87.8616456194754
89.5047895200519
90.9111473017298
92.1680253455725
93.400632595642
94.5552957567616
95.4120484281055
95.777489877955
95.6062516960262
94.9436499349113
93.829734556821
92.3138865446122
90.5287148250131
88.680822634048
86.9628314188397
85.5351285423128
84.6243729745628
84.5707469084576
85.6633565519246
87.8776697451634
90.8116042407642
93.9191554109859
96.7758559916261
99.0608113233955
100.314572388293
99.8700882089894
97.1881746858302
92.3145896754538
85.9475159127458
78.9890717982088
72.025949198385
65.2550280153349
58.8396089501567
53.1818057534541
48.7284718941558
45.528681554424
43.099492264054
40.822294606805
38.4827699559231
36.3995894903756
35.0407929235855
34.5612379692514
34.714222134803
35.1280956397804
35.5584457146525
35.831362047983
35.5961113331493
34.2197765452595
30.9789684046927
25.3872908344792
17.3906135906322
7.32182307207033
-4.28625698595848
-16.8696418153169
-29.8991248612201
-42.8580364447754
-55.2042041570454
-66.3979270519806
-76.0283881020225
-83.9691140825865
-90.423370436354
-95.7874438940453
-100.433400897674
-104.605424740173
-108.499889508239
-112.377894994401
-116.509016959911
-120.953240018509
-125.41634275407
-129.370177969209
-132.341779340129
-134.08573547739
-134.502112825954
-133.471908138985
-130.867739270693
-126.748251125403
-121.476039926277
-115.561199774914
-109.36162196243
-102.957437644407
-96.3194220720254
-89.5474387372213
-82.8884107571183
-76.5315581179479
-70.4570068170123
-64.5363548008662
-58.7570488960128
-53.2842226053026
-48.2810029521469
-43.7134141708668
-39.3835086167567
-35.1493770962232
-31.0675586546898
-27.3056997729819
-23.9631628145865
-21.0314542584051
-18.5181060570409
-16.5322663001541
-15.1845790470115
-14.4117986528611
-13.9550214995512
-13.5396691656557
-13.055842555588
-12.5398672352465
-12.0081379362462
-11.3715665675329
-10.5390358145955
-9.5607932795046
-8.60276786197166
-7.75956430239416
-6.92975099292664
-5.91334845614712
-4.62412968502184
-3.17226500019799
-1.73499415335
-0.387891986294498
0.900530955821651
2.13100584109528
3.19795578906724
3.99313733910119
4.56006681717633
5.08797369982291
5.72664497165911
6.43164567691016
7.02172013965357
7.3747163930722
7.52303064252407
7.54409041605893
7.40830513255866
7.0051758148658
6.3340995199898
5.61154375863366
5.12102612743213
4.94634910724312
4.89562029412281
4.71552083187958
4.34711979966927
3.91990508178682
3.51110036889867
3.01355801361916
2.33710738440143
1.71936609027667
1.70020685535954
2.66190847116685
4.40177046113986
6.28552208571357
7.92536126423535
9.66908936764615
12.2827058659525
16.0644803559502
20.3306579910531
23.9123697314639
26.2346347306466
27.8634750992416
29.9112838693095
32.8873882354535
36.1698256789698
38.600306518836
39.5134067279666
39.1174498751076
37.9422729834372
36.1058004840414
33.2542385033366
29.1570121444974
24.1700418580628
19.0083415403112
14.1490301205524
9.61549116576202
5.37256616785884
1.77695660875101
-0.535923447839655
-1.22549849102924
-0.586755243235215
0.757788398025021
2.44226030445897
4.52961342783509
7.11858556607956
9.93332167221247
12.4396042520605
14.3503881146093
15.8911420977901
17.4960809472035
19.3008801702125
21.017204907393
22.2775344286601
22.9797312041838
23.2287596934466
23.0299904542335
22.1930213427791
20.5868475729421
18.3991731034384
16.043386845768
13.8196919129266
11.7462240386145
9.73120956948116
7.80420157363631
6.07521531366086
4.49932010592373
2.82184564476846
0.847227842201534
-1.28329821611764
-3.17753630532927
-4.56798602651324
-5.52997787004126
-6.29421354161105
-6.92889840786072
-7.3276423465012
-7.51789092587536
-7.85129846597224
-8.76057712624483
-10.3268905703627
-12.1744794786114
-13.8264521123751
-15.0945878162791
-16.0518886104144
-16.6783695720401
-16.6809774158019
-15.7447852567495
-13.8989213475633
-11.5220235588596
-8.96857410280991
-6.27459367382493
-3.28876719550418
-0.0321156097664899
3.1806927697842
5.9942640366988
8.29729331796176
10.1896625043762
11.7223792263586
12.7859786914741
13.2886950880938
13.3551415852772
13.2521464166065
13.1292853708531
12.9143766491145
12.4849364374536
11.8591592570724
11.1435976433921
10.3444623913693
9.36439494002836
8.24242414095363
7.30753959036001
6.96920570060237
7.33690117725705
8.12124799767516
8.93357617894683
9.58336693348527
9.97629962299822
9.77472096402316
8.36268279154006
5.30808460626493
0.841337743049049
-4.23925639380846
-9.16794876967336
-13.6323537180315
-17.5576312792473
-20.6120375463467
-22.1551259239726
-21.7737398391719
-19.758178201033
-16.891634319342
-13.7627471041688
-10.4071082084556
-6.6699282411032
-2.77779364407819
0.635603020630072
3.08365865908526
4.64657198300339
5.72967196792978
6.4984392656695
6.73528414539192
6.28604639624803
5.47112076496054
4.87557075173618
4.75234173414759
4.78902084159062
4.51759765044409
3.81077197645264
2.81584561810686
1.4521689853787
-0.792717963020266
-4.41391920005375
-9.31412873233066
-14.8404045178806
-20.4076240701059
-25.9338511363847
-31.5648484445234
-37.0980657356994
-41.907115549437
-45.4977294821071
-47.9761871299757
-49.8090614771601
-51.1809496305078
-51.792807075017
-51.3695788805354
-50.2067768724916
-49.0196248525819
-48.2623187266591
-47.774245511795
-47.1745167771125
-46.437555453596
-45.8493367778245
-45.3832189754847
-44.3412849041492
-41.8054657514932
-37.4105906958246
-31.5347470660063
-24.7460368413269
-17.2744790188913
-9.1830333229614
-0.938579394320984
6.46876791830694
12.1146377280782
15.753335071269
17.7350428807927
18.4118634921333
17.8458901033197
16.1591351063627
13.9557897914686
12.1460671005504
11.3367550556891
11.5664821033892
12.6959664169822
14.8526128764785
18.2497191572099
22.5982560978535
26.9711091511517
30.4290966045596
32.6730265365047
33.893393862197
34.0532149600291
32.6470138766587
29.3690701141675
24.8370949879531
20.3078350448597
16.587175831582
13.4558892950375
10.3460425772304
7.37833349295175
5.35046831969003
4.63670783484871
4.46999716548107
3.66536009085958
1.93760191290003
0.0845785480637318
-1.25614439485793
-2.6199259455514
-5.03763184391604
-8.4627289484024
-11.4509757681978
-12.7113438877816
-12.5756669947824
-12.3194610186976
-12.0707375135419
-10.1949638314238
-5.40752034434713
0.84358025990803
5.10657754402148
5.53602475301131
4.19411217617729
4.84984194759086
8.48311217132703
12.0182541529209
12.3755887415872
11.2274605093122
14.0534570919725
23.2005301762038
32.1232079223479
27.8788776792353
0.656446019542964
-48.3924676337367
-108.047484018379
-164.71552488235
-208.868688364863
-235.209104710783
-239.266347188539
-216.085974022515
-162.093184662864
-76.022779054587
43.6193016271205
200.659591847894
396.820718094433
621.302841109947
843.827860475417
1020.7953865626
1113.54028748424
1106.22278537641
1010.37049642886
854.19813646153
666.595905688126
467.409740305965
267.596536803029
74.3700358133312
-104.939642948184
-262.259740235724
-389.734263650335
-480.991318631231
-533.137849641926
-549.379169427074
-540.04923728158
-519.692661615199
-500.913258622837
-488.951440903388
-480.73234106574
-468.607099814566
-445.768887133009
-410.064751891294
-364.868002460247
-317.409202381865
-275.583326547965
-244.604989926459
-225.294606841351
-215.147696666568
-211.168310231342
-211.610978006887
-214.789663132531
-216.581620471364
-210.412130410736
-191.326649941695
-161.008270527129
-128.501480172348
-104.821803177953
-95.455347321032
-96.9915044745358
-100.424953044031
-97.8159487683604
-86.7411249003722
-69.9042852365096
-51.755263362793
-35.58380325587
-22.7192846967785
-13.0768426304917
-5.80826357444435
0.206730470811655
5.76017440779208
10.829400951817
14.7916785925168
17.2975775263262
18.9018976806205
20.7286027985222
23.5622207028441
27.4079635704201
31.917769272332
36.9985812237503
42.7941655191799
49.1526139181586
55.3862671491414
60.6991184388599
64.7391171443271
67.5861403287916
69.277423819659
69.5933167305137
68.4312490063821
66.2430119910454
63.8803764085188
61.9741272052752
60.603821317063
59.6362112418651
59.2235998045392
59.7540856457586
61.3068481110565
63.3651530459057
65.2291323448769
66.650659238895
67.9064736849393
69.2482497530061
70.4702734490239
71.1609505686693
71.2897473203511
71.3376394647855
71.7868661176217
72.6320163136337
73.5387861087703
74.4144461743953
75.6128590383943
77.4897549749179
79.8901248052271
82.2405238431399
84.1220250638971
85.5772199248856
86.7779657774394
87.5431205271404
87.3949885822663
86.1150445176816
84.0750381049969
81.8930682058063
79.8388539195576
77.7335084072861
75.4330155628981
73.2182948701501
71.5488778669115
70.4921245116179
69.5848575572257
68.3296283832391
66.7007537581693
65.0217680501863
63.3948060572349
61.4438548311977
58.7218473912884
55.2670184819901
51.5997634793263
48.1699320888707
44.9575123580156
41.7096646308594
38.4691846484218
35.6894431627913
33.7832126278677
32.6820670487389
31.956340251818
31.3302611228231
30.9581100760925
31.1742999309814
32.0957845716968
33.5780995328328
35.5053528188613
37.9595405911772
41.0205514989338
44.4682059918446
47.7795077345035
50.4096910019973
51.9980305265881
52.3093833147216
51.128495664766
48.3715439711083
44.3083629224295
39.5516933732437
34.7381341687139
30.2447812727076
26.2554237519781
23.0173904256276
20.8573612103249
19.8561525348246
19.5950109092444
19.3659482949928
18.6616428804333
17.3747947387395
15.4855230629511
12.6793350955407
8.44642514778206
2.59180801303209
-4.47429350009603
-12.0518438851461
-19.7010603540408
-27.362293208467
-34.9439736182816
-41.9760898721735
-47.8490477702418
-52.3907016160479
-56.0673986441141
-59.5409159528922
-63.1069564656508
-66.6653592362464
-70.1746532068353
-73.9308917114942
-78.2702855123608
-83.0770062909813
-87.7578584754863
-91.7600123837792
-95.0176591469656
-97.8078305220438
-100.242630764157
-102.058551131804
-102.943358150487
-102.936601782612
-102.365627930304
-101.406277574139
-99.8493290583256
-97.3766972904367
-93.9884186650068
-90.0414743731549
-85.8769210097973
-81.5286255515497
-76.8615451484569
-71.9067874180986
-66.9255213198597
-62.1319611847325
-57.4755526862822
-52.79179008592
-48.1202678911155
-43.7575975233343
-39.9672105894709
-36.7194792301091
-33.7780283211409
-30.976528548363
-28.2956030083472
-25.6634770733183
-22.8188021929873
-19.5044940688148
-15.7941332026368
-12.1328535480589
-9.02085107117309
-6.72234663719436
-5.3267660532738
-4.99202128408756
-5.94332513180272
-8.15329154496361
-11.1226318237055
-14.123604995323
-16.6915434183217
-18.8046420106393
-20.5622382672716
-21.8027614494053
-22.1710062543627
-21.5449094493757
-20.2415683903606
-18.6938917093251
-16.9832394331413
-14.8232287123278
-12.0264657979069
-8.86858703036228
-5.89125208640206
-3.39399239192711
-1.24041530872882
0.825148262899177
2.81117814979648
4.54868029718538
6.06588107271303
7.71344864965933
9.82172945191447
12.3112110951155
14.7586097449804
16.8302433422432
18.5214320011415
19.9210988920833
20.8777787617544
21.0844964983304
20.5184226177506
19.643592303333
19.0457443656573
18.9094830113902
18.9924951423752
19.140717114081
19.6878375268794
21.208794581253
23.9128201457842
27.4262341336282
31.2222138704678
35.1288173398723
39.2502838262712
43.4009678972009
46.8003987149902
48.4799496848915
47.9819851435541
45.5853989962585
41.8818972693776
37.2847953045546
32.0337232411116
26.5464647495091
21.5167952109486
17.5305239030287
14.6420152299376
12.4307025362994
10.4609376159617
8.5972047258573
6.87825133044946
5.2518718208696
3.60472755638747
2.03804934497549
0.934239849511883
0.612073499085376
0.950223773141662
1.46910470349183
1.81201844874235
2.05932277334224
2.51653391724446
3.28472381588077
4.18458851750713
5.11760054123828
6.34200659046132
8.21531607627836
10.6342259088988
12.830261419875
13.8076220385806
12.9910835285115
10.4551261048672
6.63133160840809
1.96248824658423
-3.08398638035488
-7.76945360462262
-11.0449930534317
-11.896356303223
-9.78983837823544
-4.84292761556579
2.34061011160131
10.9412445350389
20.1013467800508
29.0052980760886
36.9249218928071
43.231144148322
47.3764666159686
48.9401876092965
47.7995041408191
44.2917023535964
39.1332639770494
33.0868334839643
26.6943857179585
20.3655611044606
14.6703639780676
10.3676824930215
7.97785253971256
7.30880941638676
7.51007930717162
7.67467619484813
7.37301365181536
6.58984920561346
5.27053504935473
3.14974166748948
0.127448870577823
-3.3141280147101
-6.28486033531591
-8.16577166878597
-9.04632979781127
-9.43359665857336
-9.61972291895579
-9.47515552252283
-8.84414940071063
-7.93198213973377
-7.1163254059536
-6.42290368269695
-5.39999860001507
-3.63441783472671
-1.30393478410931
0.92382376049989
2.52747262481946
3.52640973389906
4.20385797249677
4.6146587166125
4.58458718824556
4.19440131789757
4.02753755286409
4.7249628726512
6.3122611880689
8.1210797399812
9.41567168091634
9.96279590325902
9.89162178613676
9.14135556843153
7.33118967989002
4.28966472495902
0.536102795635863
-3.0110995139556
-5.84892697441374
-8.26913273184728
-10.8521882758064
-13.7183942059909
-16.4513283057492
-18.7134936946689
-20.6833215790545
-22.7161281299309
-24.6949525972871
-25.9776637732755
-26.0768220103308
-25.2409556864005
-24.2144519785087
-23.4931122821588
-22.9988840048857
-22.4961463005769
-22.0927041510814
-22.1188619322724
-22.5913750760124
-23.0760443494055
-23.2197225309032
-23.2669137694468
-23.833132747567
-25.1751985095885
-26.8801542798746
-28.3427083510766
-29.3381410320449
-29.8788962541983
-29.5728827856702
-27.4896034986666
-22.9456673176986
-16.3527423996278
-9.0319137393257
-2.11394324361776
4.20359777925975
10.2126852780195
15.7550214919251
20.1066201160069
22.8876371761343
24.766595453988
26.8932900158991
29.6129908680851
32.0053382051373
32.8258802878874
31.7054776839657
29.1945106206892
25.7661916686311
21.2165341962937
15.2868373816824
8.61431676920009
2.59776484680249
-1.82255013317264
-4.98487112234235
-7.88503922146463
-10.9140630809282
-13.5653435732911
-15.4041384424274
-16.8797940316973
-18.7679648999826
-20.9324994597992
-22.1481590730022
-21.4225583751277
-19.2329011860378
-17.06002624263
-15.7305769185122
-14.6398165291357
-12.8186894621216
-10.3969750695297
-8.463097540968
-7.43863535683824
-6.14601855130608
-2.98140899704673
2.10987467424148
7.30997041182388
10.71287965153
12.0291595848339
12.1606753397253
11.3700706058606
8.57965366175882
2.80413715142473
-5.13607877950247
-12.868529011833
-18.3388962803944
-20.8627052721723
-20.2146873813946
-15.5350608624328
-6.24486504151782
5.78734104505352
15.9501848032075
19.7358080453394
15.8398883235894
5.69020877278888
-10.2257273698186
-34.432196674901
-69.4727815078489
-112.653816222441
-154.993799128371
-186.758878929743
-204.287424313977
-210.72790041075
-209.886334117512
-200.187486535238
-175.408642331571
-130.52024111139
-64.7204375229782
22.4492310806358
136.365884469303
284.859462500954
466.877090250581
662.376104288412
835.030858094309
948.273260072849
982.652671725987
941.389588840456
842.030643723926
703.636875370108
540.032538373575
361.249965394668
177.518149002195
0.239951471679352
-160.101031719399
-295.703142961437
-401.212346726556
-473.134962154623
-510.819449625879
-518.314179699604
-504.680992808755
-481.594095089333
-459.442116567733
-443.978435495901
-434.734475097009
-425.686782782783
-408.520446179171
-377.876211352811
-335.828917564043
-291.876967672968
-257.359342953518
-238.034658549577
-230.756138451362
-226.858087768856
-218.917838818063
-204.94433009988
-187.262016698011
-168.665603036908
-150.205051912865
-132.011718714937
-114.933513589939
-100.517517537388
-89.5824633296497
-81.4571696411673
-74.8244577197509
-68.9136071804889
-63.5213110869706
-58.1388092117316
-51.7092255664847
-43.5585065607887
-34.2751868303626
-25.2330639736563
-17.1958734975366
-9.67579365411289
-1.78705815758855
6.53641708274951
14.4677917592724
21.3162242981773
27.2187565990934
32.6137676883167
37.3053089479582
40.473436091984
41.6944641430927
41.6652219046913
41.6962950859042
42.6248097465692
44.4803047804718
47.1525108204182
50.9630420144296
56.2524935049502
62.5485604695546
68.5757916608153
73.3170234722775
76.9150384254738
80.3230876121796
84.1630966626618
88.2134427972879
92.0613269615182
95.891680483993
100.219589003504
104.839315363324
108.422464458372
109.479715427636
107.682754680834
104.037885683053
99.7847803365861
95.4121696529897
90.9170245087857
86.7656491754296
84.1129846121009
83.8474660321588
85.6174321117129
88.0954233471852
90.218094086378
91.9465098492592
93.7251186419966
95.4359068589848
96.1940437761531
95.1830271627933
92.4121816743493
88.4594028623134
83.6218872258842
77.642276243024
70.3865545363246
62.6016959446685
55.7762431130002
51.2299798726846
49.4170206935485
50.0203840106225
52.4157133180362
55.8336149799236
59.2565455147686
61.6242879197656
62.4636979113112
62.2426814650866
61.8110403241818
61.334162356258
59.8761590317739
56.212874827563
50.1304566391657
42.9164662913293
36.5900405894958
32.64755795759
31.3880592678872
32.118078972379
33.7566190999671
35.3382059684989
36.3216892116329
36.7429205644505
37.0686279562153
37.6739773530385
38.3182396011539
38.2032362077641
36.6693919020403
33.8202268043067
30.3633238914586
26.8500330293275
23.2285033449511
19.2320202865648
15.04719255304
11.3217384549865
8.43185143708534
5.96937679628524
3.24832715672768
0.374045001671732
-1.38381362227935
-0.45591571136174
3.80620520491368
10.8316392806332
19.6089261541428
29.4410946223385
39.7295129050995
49.1806418021426
55.6585990924293
57.1757960034436
53.1243335934027
44.5065969372115
33.0220879228026
20.0585277106385
6.53250801691215
-6.62307559092466
-18.2531401231853
-27.4682791015961
-34.2469627149958
-39.3821650954142
-43.7899530286298
-47.9216414594827
-51.8143733034364
-55.5292321155528
-59.3682770916448
-63.682239903288
-68.6274875679627
-74.2011974742002
-80.4204755103736
-87.3054011476096
-94.6382067484835
-101.82504853394
-108.081793674226
-112.763192364182
-115.515998568095
-116.222825379838
-114.976337281144
-112.190487328713
-108.631810177986
-105.14685374333
-102.233037504607
-99.8510424816635
-97.6358330060805
-95.2218134733487
-92.3327043795533
-88.6721486932529
-83.9444837326678
-78.1195559893656
-71.6276219839639
-65.150664159385
-59.1476671173621
-53.6067897076375
-48.2620229556974
-42.9528746497782
-37.6734168281452
-32.3291873147559
-26.6574977930428
-20.5536158961867
-14.439161057181
-9.13658813505664
-5.27206731052394
-2.84056225464827
-1.42330974209024
-0.779859650153794
-1.09446176295196
-2.60784642933763
-5.14882754764487
-8.20005117912543
-11.4297456590367
-14.9899909239646
-19.1371683727804
-23.5699883843026
-27.262888768579
-29.0245968088901
-28.2074280117749
-24.8911935976006
-19.5272919591699
-12.5989495519187
-4.67193750344752
3.39988025662237
10.5714157693027
16.0503598476379
19.6661342627371
21.8155542116403
23.1077097052565
24.0763832687035
25.0991420299563
26.3564001961241
27.7161012030289
28.7055049931658
28.758562858293
27.6050225845812
25.4360682841644
22.7030927300146
19.8256952473353
17.1461224672248
15.0785828892561
14.0929765974993
14.3908402756964
15.6111667226802
16.9869568251126
17.8893773453931
18.2293124699805
18.3373947010565
18.5398401819498
18.9464060921742
19.6130781723337
20.7239880983986
22.4402135801266
24.5683776815071
26.5171035615452
27.6925334891354
27.9355946853752
27.5400360299999
26.8964480063534
26.2248826242932
25.6581683597653
25.4175946922125
25.7006442276371
26.3460624780874
26.7401079372183
26.2042041094267
24.5113018871674
21.9871772677175
19.1357140520229
16.2779377383097
13.6087018682142
11.4755647726787
10.3698045629798
10.5163022209803
11.5403581138088
12.6806429068651
13.380783590901
13.6240772964951
13.6780449501529
13.6155919335721
13.2037114738954
12.2388651902565
10.8342182914937
9.25859310106049
7.54543604636164
5.41828544209596
2.69129649933803
-0.302571136946106
-2.76060443268929
-3.89181707571724
-3.3236154591028
-1.09485126746587
2.57642574441296
7.36272793195726
12.6801957257551
17.6426875824907
21.3411710401242
23.2543242112881
23.4127907374738
22.2162319418951
20.1610600831911
17.730603728414
15.3973225590137
13.5352313034409
12.2343596732688
11.2414320878269
10.1639598664212
8.76473100132531
7.05736154525356
5.15330677394168
3.09197081886483
0.847434215172839
-1.57361993624397
-4.15080336818968
-6.99526178006488
-10.4000842801508
-14.6489258253289
-19.7324218174126
-25.2504982814119
-30.5726837247738
-35.0643167046248
-38.1970060154353
-39.5873726381376
-39.1036613858431
-37.0133097408496
-33.9807174280477
-30.8344059986332
-28.2790540796356
-26.7731447934942
-26.5561313339942
-27.6279924917159
-29.629837792685
-31.8374051485645
-33.4381585052233
-33.9028128741144
-33.0657959134104
-30.8345384637566
-26.9212229576544
-20.9974169540071
-13.1323378914012
-3.95725558228809
5.71064639900403
15.3624652511014
24.7887627458428
33.5640303038879
40.7183571400395
45.148327157382
46.4341213123728
45.1733698103473
42.4438740935034
38.9974008486956
35.060249483519
30.833835431803
26.9225464413514
24.0449818237128
22.3379947502452
21.1350935820677
19.56902461614
17.3743117247501
15.0476275325422
13.295822723223
12.4796365636613
12.6199349524719
13.7457540230645
15.975486946795
19.1801447386863
22.7059481704009
25.5883669429803
27.0677028047543
26.8676489357211
25.0561928263815
21.8363813733555
17.5863990465316
12.9748741646729
8.7736093915033
5.4096999980329
2.75608864376428
0.455310595231768
-1.59225084130604
-3.17587606453536
-4.18978992862577
-4.90215719080561
-5.63302157655524
-6.2153107535006
-5.99923219470605
-4.53076254888593
-2.14408962383404
0.27047768840806
2.0807084338648
3.34133229762916
4.34603093698816
4.91436345186015
4.35722512706535
2.19054647820248
-1.30156782055903
-5.37306252852462
-9.60841466032497
-14.2052325810656
-19.4067994785976
-24.820817094931
-29.4865265241839
-32.5985427375111
-34.0085338468549
-33.9867361008705
-32.6999821766705
-30.1562567553108
-26.6416595051583
-22.9578999493181
-20.0294618947184
-18.3087288994956
-17.6799355486463
-17.8880150254068
-18.8429600693272
-20.4110790137408
-22.1201488478204
-23.393353353071
-24.1647142861021
-25.0641526611029
-26.7969567591799
-29.3919464679467
-32.2360063254342
-34.8241640820874
-37.1917190293345
-39.3948660316972
-40.7341844002882
-39.9096160569037
-36.1769885577187
-30.2040021755214
-23.53259601024
-17.2167978438475
-11.2487240397242
-5.41152238523006
-0.370098136265177
2.53332811164551
2.66178104680326
0.946828958831112
-0.924310188481561
-2.11358489076781
-3.16403478094005
-4.92124780304702
-7.26590056612051
-9.21178660184253
-10.1318264084698
-10.494129091194
-11.2261196095776
-12.5809857752516
-13.8229986239155
-13.7611621748292
-11.1205688622308
-4.4579437725859
7.38689301214514
23.7163940938226
40.6892562641857
52.5193718843439
55.0961850726691
48.830558371767
37.5729902610941
24.388874619536
8.57814104427754
-12.8715904704134
-41.2121704027692
-74.0508442523581
-107.685053014793
-140.326764073229
-171.604566467416
-198.477918440485
-212.840239560492
-204.905477514541
-169.614291886731
-108.755375236209
-25.4322823753644
83.5608825026015
227.926164740539
413.451452336209
628.801685288982
841.685819273143
1009.54841180912
1098.02943819362
1094.60147879386
1009.51147290324
866.022495848341
688.206993791414
493.486894309802
291.898779896612
89.7794589961339
-105.667972874593
-283.71623071058
-430.824317728931
-534.550024070339
-588.719384763183
-596.944977522004
-572.3456652777
-533.344353562703
-497.25765710195
-474.188432009371
-463.729689205792
-456.375046794525
-439.748396116935
-406.777881073918
-360.706550441646
-313.117439356896
-276.124696948468
-254.672388113274
-244.825679526484
-238.649060258071
-230.651436703289
-220.209881866252
-209.046179462168
-197.614338112179
-184.395719541927
-168.165622423207
-150.049926115451
-132.960200301515
-119.251895090975
-109.198824829225
-101.491622615278
-94.6295168144648
-87.6060032978351
-79.7413127857253
-70.62369575546
-60.5318075974958
-50.5792888152313
-41.9482449316138
-34.843537502544
-28.3904840615639
-21.663869899549
-14.6481912756984
-8.01188950668928
-2.06767219018089
3.71357592548159
10.0288435541164
16.8114359057813
23.2535934299537
28.7437621734885
33.5172681763759
38.2311699199782
43.0747673327122
47.5820951940843
51.3426810127875
54.6247651992547
58.0715640124501
61.8725076617735
65.4995476530668
68.3521167270288
70.478542260677
72.4688362652091
74.7023979652298
76.941401845755
78.7594103144011
80.1872265158663
81.7031602549836
83.5897251405565
85.5160090567614
86.8959593188235
87.5576536812001
87.8777564431141
88.2545833594378
88.6342159971871
88.6764812721986
88.2720042766331
87.6822704867874
87.1259063188105
86.3992024151656
85.069002750486
83.0037227261151
80.5649378360654
78.2472825697488
76.2767589561099
74.6817228496025
73.6572620595058
73.6201332088341
74.7844284685378
76.784362060948
78.866013551974
80.4466786198958
81.3650011864117
81.56668326416
80.7330565151329
78.4343440632696
74.6603596273719
70.0220898849129
65.2988009479409
60.849116435262
56.595224744148
52.5532382318111
49.1730171502247
47.0045437681342
46.1025113414397
45.9420559380757
45.962787292358
46.0403797182389
46.2848568760118
46.4629547129588
45.8617900830452
43.8564654748375
40.5234560126334
36.5551576335491
32.6036248165548
28.8878287503593
25.5213441524625
23.044807199513
22.3483264701822
23.9472880703449
27.4385035337524
31.7968567673421
36.1718204370605
40.2670601424855
43.9497040200758
46.710521323236
47.7535089811386
46.6603023416608
43.8229571848715
40.1048938636487
36.1136951642805
31.895314329441
27.3021544445743
22.4882729371616
17.9181451604033
13.9422213234812
10.5093275116929
7.35145580128255
4.37327039191113
1.78443016034956
-0.107055405331554
-1.13019265954495
-1.27635735760245
-0.61224943017238
0.72071241651264
2.43752985707599
4.13415091786889
5.40990333058126
5.90019937718738
5.15309265935247
2.57811104745734
-2.3027554961411
-9.46079447683887
-18.2623005650238
-27.8313476007205
-37.4878236984366
-46.765685777543
-55.0550177793259
-61.4403518498064
-65.1093433857674
-65.9703932992425
-64.7704532159016
-62.5341835186317
-59.9311937877974
-57.2350690184122
-54.7799426031578
-53.2012264903527
-53.0567195853732
-54.2664132391155
-56.0951728867245
-57.7509590620468
-58.911312902874
-59.5998158982314
-59.6722446176917
-58.6564462287315
-56.1966383931172
-52.5308063715231
-48.3603498940655
-44.2547640700653
-40.3474547628867
-36.7034043482379
-33.8435430014362
-32.6625817689139
-33.7289805777075
-36.7622627574539
-40.9005318816327
-45.4093183773995
-49.9582796969898
-54.1791979366809
-57.1762243130114
-57.7624364087727
-55.2949284712694
-50.1983295547886
-43.5881229471119
-36.4379410239153
-29.2102730756811
-22.2314484719056
-16.1656518301921
-11.873966535176
-9.77274870276918
-9.46424713100777
-10.0952480711134
-11.0406139333755
-12.1781912094811
-13.5733955020438
-15.082317648408
-16.3712722026384
-17.242536389888
-17.7788508205195
-18.1182900088361
-18.1833424000798
-17.7220067290405
-16.5735370603728
-14.7837595928477
-12.4448084064393
-9.54332570925584
-6.08034480652437
-2.30033848818071
1.35308132910494
4.60152879412705
7.59350229589695
10.6931280004967
13.9959308648317
17.1458750978528
19.6900253292671
21.5383954695694
22.9356632341574
23.9370591894571
24.0169855495517
22.3345508676055
18.4312971663787
12.627615824428
5.72246435147793
-1.61370601137604
-9.04948821624725
-16.2076718939188
-22.1992213331469
-25.6927622862307
-25.5432234424073
-21.4081627826181
-13.8218600078914
-3.76826589571622
7.75769344589507
19.8214523934645
31.3429006103094
41.0028785766273
47.5099466614004
50.0908493402129
48.830237204728
44.5896968389632
38.562867025023
31.7903830913439
24.9536063392573
18.4991237734824
12.8485140022715
8.39892603776882
5.28386590644807
3.18083408023943
1.46685082885843
-0.325096283014169
-2.14913172936142
-3.53748702710421
-4.04779244509507
-3.61720258452476
-2.50075283575551
-0.939821281417316
1.0207389260233
3.37415526811515
5.89487682217092
8.14424390783201
9.77178258897496
10.7832085192619
11.4845232867059
12.1826755135227
12.9686731435691
13.7596726174779
14.4607128732045
15.0222586133388
15.375605774289
15.4105259174063
15.0774278208376
14.4928304335418
13.9034237548455
13.5520919439711
13.6143837124855
14.2517773132995
15.634720866479
17.8173818565337
20.5818125665861
23.4799754947965
26.0921480793133
28.2335287648238
29.869767942489
30.8543039312155
30.8421642838517
29.5336647006551
26.9815558608896
23.5870054730131
19.7747745127226
15.7342053487938
11.5345268150369
7.45007437268698
4.05008346515321
1.88119337218837
1.07075352786845
1.28803611845284
2.08385485330699
3.20312487860888
4.54693534878047
5.92497995284937
6.99056267059473
7.48420998579572
7.48833296033033
7.36246307044953
7.41999429949377
7.71464512850034
8.14291668176809
8.66481435505804
9.32679089656214
10.0753267617781
10.6556471157794
10.7832209798204
10.3970820497445
9.66377807565437
8.70209805464701
7.36097009043568
5.33127385401256
2.46004603325924
-1.11403402162076
-5.14998313382642
-9.54436947672983
-14.2836908653574
-19.1536439442123
-23.5935122954975
-26.943465191324
-28.8686551236565
-29.5260365664704
-29.3340306616264
-28.6473322045667
-27.6955173376841
-26.7707550386052
-26.3280444293891
-26.7852549581211
-28.2076485241087
-30.2315026895919
-32.3223942919468
-34.1018004146895
-35.4382250985285
-36.2965860271806
-36.5918641187998
-36.2206087187553
-35.1860123725295
-33.6247228200022
-31.6890204228095
-29.4186057867499
-26.7302139511346
-23.5062666447489
-19.6814929215277
-15.2830493040592
-10.4507167954967
-5.44120510387246
-0.572906404260152
3.88619448486723
7.78535687904025
11.0233424981441
13.4173475114436
14.6939175642612
14.669845732556
13.4475292169553
11.388324099434
8.86763138626063
6.08833591402188
3.18105910974666
0.469730059550256
-1.45685542937699
-2.03548215652581
-1.12333228046926
0.915795605841994
3.52532576823907
6.32641396070342
9.16568511265065
11.865026430143
14.055539443161
15.35826867528
15.7267963675611
15.5371535329854
15.2795057624459
15.1537445945829
14.9701441839332
14.4048896249633
13.2864673115436
11.6192314769875
9.40802553109393
6.57884609884185
3.13213634633732
-0.656215705774581
-4.25090566172205
-7.11113296449947
-8.94745033644587
-9.77441922424011
-9.79249918291335
-9.27784746674902
-8.56500782918296
-8.04428981846609
-8.08545244478299
-8.92569842931164
-10.6243016480884
-13.1012874391195
-16.1797164522576
-19.5870468875475
-22.9772905752291
-26.032268192293
-28.5683163496159
-30.5106388712728
-31.7377654501562
-31.9899878526157
-31.0031075964097
-28.7586420034212
-25.5571105373125
-21.7913822721242
-17.6559393083884
-13.1308599148819
-8.25965318720978
-3.36452941160336
1.10884704536216
4.97285669899632
8.4472971792385
11.8548513714285
15.1753789649519
17.9609946639068
19.7100712163813
20.2749059516166
19.8637400722508
18.702397076727
16.8185525186925
14.2191397928698
11.2070081854308
8.39350997956084
6.34033001617578
5.21964885589936
4.84511623550338
4.96901954851051
5.46374767001596
6.24127620870097
7.15384680091972
8.11462523039972
9.29571675920918
11.0639012021183
13.6253233632262
16.771032006351
20.038658526134
23.0728426818963
25.6847505224281
27.5204045133419
27.8582086620641
26.0122989129688
22.0541181440026
17.0150413293204
12.1943230055653
8.22646209869256
4.90756271527389
1.92989658120646
-0.406644462509824
-1.41840055953292
-0.957939969113761
0.118059982182081
0.626247175573776
0.273994856997596
0.194816686885657
2.30303725147208
8.08503144436491
17.6966491115594
29.6374942103556
40.8817707429659
47.6240746986041
46.908806663751
38.5538418323141
25.7280594895033
12.9896473540427
2.78893107947093
-6.72352157337728
-20.5338049988187
-43.133083623652
-75.352539448617
-113.668960164843
-151.490196132682
-180.975623283851
-195.205720055355
-191.259111589594
-172.792764221228
-148.288675607014
-122.922245211235
-88.6613936211656
-22.37860515912
101.98985577017
293.101687300059
529.033060624987
763.226650006487
946.581582833643
1049.53190037148
1068.93533623361
1018.41634871395
913.842429702529
766.122887210727
583.328587749868
375.275233273302
154.572109440428
-64.9693479588414
-268.504850156892
-438.888493545144
-558.68972090117
-618.0105402819
-622.911613452958
-595.432705396504
-562.248263967515
-539.700558152925
-527.078623356791
-512.826006038298
-486.992392148323
-448.922903155816
-405.319590602555
-363.160856072371
-325.184865099042
-291.003595061005
-260.705256403519
-236.3983341023
-220.552690523695
-213.434416313793
-212.091660016202
-211.345688965849
-205.887305685268
-192.604080605461
-172.354249509693
-150.011433708846
-131.963512574786
-122.150526420049
-119.557171875471
-119.3787839908
-116.908212063717
-110.674629406849
-102.281562985324
-93.7944233129963
-85.7117811204007
-77.3248949014037
-68.3709622652012
-59.7247184924566
-52.4638165830285
-46.704585372015
-41.6393711673707
-36.5038937676537
-31.1271530939922
-25.5232597267658
-19.3695528493296
-12.2649747025044
-4.4208214148087
3.29107962216132
10.1812886053779
16.4725466358255
22.9673438755901
30.0475518024918
37.267386601832
44.0298958583029
50.422099988116
57.0759576279547
64.1997585932458
71.027613611153
76.4315578904954
79.9824383627058
82.2043061979912
83.8097518306157
84.9618938212211
85.480960827907
85.621074438768
86.2899108890274
88.3245018036752
91.6754253762937
95.4857530110045
98.9425600995668
101.874040494222
104.482376441344
106.725427269536
108.221080727469
108.754060060115
108.635221219859
108.386715333904
108.144788288467
107.532292325103
106.10797593624
103.761254965121
100.579343119689
96.5000271140185
91.3592756856908
85.3371917135262
79.1617146720977
73.686376473177
69.309710951556
65.9767288572912
63.7603965249549
63.2165335931898
64.9483205590798
68.8569675355255
74.0397074370412
79.5315616508646
85.0074948091663
90.5725410925546
95.9142575783235
99.9404295104648
101.469429806331
100.238209909758
97.0647068433623
92.99155795081
88.4244134499401
83.2101515821782
77.4053384583099
71.6701249968353
66.7642796165539
62.7836845258915
59.097686672206
55.0828639975675
50.8191570214801
47.0338818716315
44.4960133742542
43.5974557337948
44.4429036151804
47.0734790613145
51.3853536692154
56.8460846359887
62.4470265748378
67.0256634667245
69.6303475970711
69.6319933814118
66.70817332618
60.9717049714712
53.1599105955503
44.5003704153303
36.1589999987225
28.7401874360363
22.3479037718594
17.0719994195174
13.2326109336741
11.0357035523221
10.1067952241468
9.61158421993007
8.95896613461304
8.28829043218425
8.12193386432
8.56056139457664
8.97890308806291
8.5868468444943
7.1686140992224
5.11299624890543
2.74658349716672
-0.158443681840756
-4.08687731554426
-9.10208248625935
-14.6739743347759
-20.2412579371187
-25.8024538890426
-31.8103664705299
-38.5313451297614
-45.6713501439916
-52.6759874206504
-59.2444207197016
-65.3897601985205
-71.0496328277736
-75.8662014540497
-79.499593631593
-82.0840972435686
-84.2105345832229
-86.4209159236499
-88.8204190077288
-91.2270439412008
-93.5588875914649
-95.8816311148192
-98.0673434503834
-99.6109170073585
-99.9780471403893
-99.1299423417571
-97.5723508380427
-95.8427741015901
-94.0529377230695
-92.0102143688965
-89.6663546075741
-87.2168305949527
-84.6790234294166
-81.5456144468474
-77.0919867432538
-71.086699977269
-64.0835808548806
-56.9395295846569
-50.1409532329487
-43.731613367938
-37.8367648379074
-33.0009213200997
-29.812187499761
-28.2495664837221
-27.6053059242969
-27.1424045815193
-26.7213123078795
-26.6585714173296
-27.0351765793542
-27.3421160495784
-26.895779269748
-25.4770818481676
-23.3968253072832
-20.9599814533558
-18.0766527084425
-14.5518571611507
-10.6793842174162
-7.3455995425609
-5.4457073660412
-5.25096511239138
-6.38979554001013
-8.33465318832718
-10.7297469555935
-13.2230368374648
-15.1814671859536
-15.8162534744094
-14.6697943072155
-11.9121978926446
-8.11841387572651
-3.81765595238396
0.69548516905898
5.22833737846217
9.59528498728525
13.7635093329716
17.9840508348891
22.590565991197
27.6015768950174
32.5916956784595
36.9998713105696
40.4846191859857
42.8846746980053
43.9039620870433
43.0619855857215
40.1217549217448
35.5182324324252
30.1910502637549
24.9072671035861
19.8083972955248
14.6779588181327
9.55998057358541
4.94685635120059
1.32254054654734
-1.32682107419204
-3.39216228378874
-5.0648944152065
-6.05195495619962
-5.95742670712576
-4.85328761002933
-3.32574398600813
-1.95149998444764
-0.855518229575736
0.156028217731915
1.16109810930446
2.01298667570936
2.68283964945078
3.52254449631164
5.00009081981075
7.17429945173635
9.56183349179448
11.5767199823894
13.0025604561329
