Value(μV)
82.876823425293
77.1546020507813
64.5657196044922
54.170352935791
58.5573883056641
63.6120147705078
59.4157218933105
69.8110885620117
91.4601593017578
95.8471908569336
89.6481170654297
84.2120132446289
70.2879409790039
56.4592399597168
51.2138710021973
39.197208404541
22.6027698516846
13.3518476486206
10.5861072540283
29.3740653991699
56.3638725280762
55.887020111084
50.4509086608887
54.6472053527832
43.679615020752
31.2814712524414
45.5870208740234
59.4157218933105
56.8407211303711
58.5573883056641
56.2685012817383
50.0694274902344
55.219425201416
51.9768333435059
32.9027671813965
20.6953639984131
20.7907333374023
29.0879535675049
34.5240631103516
26.0361022949219
19.7416610717773
17.9296245574951
11.2537002563477
6.48518323898315
5.53147983551025
5.1499981880188
-4.57777643203735
-15.5453653335571
-18.6925868988037
-15.0685138702393
-6.96203470230103
-10.204626083374
-14.7824029922485
-16.6898097991943
-29.278694152832
-48.5435028076172
-61.0370178222656
-67.903678894043
-80.0157165527344
-86.6916351318359
-84.6888580322266
-83.925895690918
-82.4953460693359
-86.6916351318359
-100.52033996582
-121.69255065918
-140.480514526367
-135.235137939453
-122.646255493164
-116.44718170166
-103.095336914063
-94.8934860229492
-98.8036727905273
-104.907371520996
-110.343482971191
-104.239784240723
-92.5092315673828
-91.3647842407227
-78.2036819458008
-49.9740562438965
-41.6768379211426
-48.1620216369629
-45.4916534423828
-39.6740608215332
-45.0148010253906
-51.5953521728516
-50.6416511535645
-49.8786888122559
-44.3472061157227
-35.9546165466309
-30.2323970794678
-27.3712882995605
-34.3333206176758
-34.3333206176758
-28.9925842285156
-39.864803314209
-37.0036926269531
-22.4120292663574
-32.2351760864258
-37.2898025512695
-19.074068069458
-3.62407302856445
-8.3925895690918
-22.8888816833496
-24.5101776123047
-13.4472179412842
-10.0138854980469
-19.9324016571045
-26.7990646362305
-23.1749935150146
-12.3981437683105
3.05185079574585
18.6925868988037
21.839807510376
9.537034034729
2.95648050308228
7.53425693511963
13.9240694046021
16.022216796875
12.8749961853027
12.9703664779663
14.4962921142578
17.4527721405029
28.9925842285156
39.6740608215332
38.148136138916
40.2462844848633
55.1240577697754
60.6555366516113
49.4018363952637
36.9083213806152
24.891658782959
18.4064750671387
29.0879535675049
37.6712837219238
35.2870254516602
43.7749862670898
55.6009063720703
54.7425765991211
39.2925796508789
19.4555492401123
21.0768451690674
37.1944313049316
32.9027671813965
14.2101802825928
13.9240694046021
33.9518394470215
43.7749862670898
32.04443359375
22.125919342041
15.7361059188843
-0.0953703373670578
0.762962698936462
7.34351634979248
-7.0574049949646
-10.9675893783569
-12.1120328903198
-10.9675893783569
9.44166374206543
17.2620315551758
10.204626083374
10.7768487930298
15.35462474823
13.9240694046021
7.24814605712891
-9.06018257141113
-22.2212886810303
-17.8342533111572
-11.5398111343384
0.190740674734116
14.5916624069214
21.6490669250488
25.7499923706055
30.6138782501221
41.0092468261719
39.1018409729004
34.9055442810059
49.9740562438965
59.2249794006348
48.1620216369629
30.70924949646
15.35462474823
10.3953666687012
19.7416610717773
24.5101776123047
19.4555492401123
21.9351787567139
27.4666576385498
30.0416564941406
24.2240657806396
4.1962947845459
-10.204626083374
-8.58333015441895
4.7685170173645
20.409252166748
24.5101776123047
27.2759170532227
30.0416564941406
23.2703628540039
23.3657341003418
28.9925842285156
18.4064750671387
-6.96203470230103
-23.0796222686768
-16.8805503845215
-7.6296272277832
-11.5398111343384
-11.5398111343384
0.572222054004669
8.20184898376465
12.302773475647
15.9268465042114
17.1666603088379
15.4499950408936
2.28888821601868
-14.0194396972656
-22.4120292663574
-22.8888816833496
-18.787956237793
-16.8805503845215
-15.7361059188843
-20.3138828277588
-19.8370304107666
-17.738883972168
-34.7148017883301
-46.7314682006836
-39.7694320678711
-35.5731353759766
-36.8129501342773
-35.5731353759766
-39.0064697265625
-29.278694152832
-7.34351634979248
-19.074068069458
-42.7259140014648
-44.5379486083984
-40.8185043334961
-42.1536903381348
-45.3962821960449
-35.0009155273438
-22.7935104370117
-21.5536975860596
-12.588885307312
-5.24536848068237
-15.9268465042114
-21.7444381713867
-6.86666440963745
10.4907369613647
22.9842510223389
30.1370277404785
25.3685111999512
13.5425882339478
8.86944198608398
10.5861072540283
12.3981437683105
12.0166625976563
-6.96203470230103
-29.1833248138428
-19.360179901123
-4.86388731002808
-4.7685170173645
6.48518323898315
13.3518476486206
1.14444410800934
1.14444410800934
13.9240694046021
12.0166625976563
7.43888664245605
14.7824029922485
12.302773475647
2.47962880134583
-0.858333051204681
-7.72499752044678
-7.15277528762817
0.47685170173645
-5.43610954284668
-6.77129411697388
-4.48240613937378
-16.6898097991943
-16.2129573822021
-4.38703584671021
-4.10092449188232
-7.24814605712891
-17.2620315551758
-32.9981384277344
-25.8453617095947
-4.7685170173645
-1.14444410800934
-0.572222054004669
8.77407169342041
16.4990692138672
17.8342533111572
13.4472179412842
11.8259220123291
13.7333288192749
10.6814785003662
-3.5287024974823
-19.6462898254395
-15.9268465042114
-5.34073925018311
-4.10092449188232
-2.47962880134583
6.6759238243103
11.4444408416748
13.4472179412842
18.4064750671387
13.4472179412842
12.302773475647
14.3055505752563
10.4907369613647
4.00555419921875
-1.62129580974579
8.67870044708252
25.8453617095947
37.8620262145996
37.8620262145996
27.5620288848877
19.5509204864502
9.82314491271973
2.38425850868225
-18.3111057281494
-49.4018363952637
-50.2601699829102
-39.2925796508789
-33.2842483520508
-20.8861045837402
-17.8342533111572
-15.8314762115479
-0.381481349468231
6.86666440963745
0.286111027002335
-5.62685012817383
-8.0111083984375
-16.9759197235107
-24.1286964416504
-20.9814739227295
-27.5620288848877
-39.2925796508789
-33.1888771057129
-15.2592544555664
-8.29721927642822
-9.25092315673828
-6.77129411697388
-12.6842555999756
-16.6898097991943
-15.0685138702393
-20.5999927520752
-17.6435127258301
-11.7305517196655
-10.4907369613647
0.381481349468231
4.86388731002808
-9.44166374206543
-18.5018463134766
-11.4444408416748
-1.04907369613647
0.190740674734116
-4.67314672470093
-0.0953703373670578
-3.24259161949158
-14.4962921142578
-4.95925760269165
-5.05462789535522
-21.3629570007324
-13.7333288192749
3.24259161949158
2.8611102104187
0.9537034034729
11.1583299636841
4.57777643203735
-16.7851791381836
-23.7472152709961
-28.5157318115234
-32.8073959350586
-20.8861045837402
-2.1935179233551
4.48240613937378
0.762962698936462
2.76573991775513
4.00555419921875
5.7222204208374
15.1638841629028
11.4444408416748
-5.62685012817383
-10.1092557907104
-13.7333288192749
-24.3194370269775
-26.7036952972412
-40.5323944091797
-86.5009002685547
-150.780502319336
-203.424942016602
-215.060119628906
-196.55827331543
-188.356414794922
-190.454574584961
-150.685134887695
-74.9610900878906
10.1092557907104
169.091613769531
384.723937988281
604.266479492188
873.115478515625
1106.2958984375
1178.10986328125
1151.59680175781
1093.51635742188
962.096008300781
751.899780273438
532.071105957031
317.964721679688
95.9425582885742
-109.580520629883
-307.664703369141
-493.827606201172
-607.699829101563
-626.010925292969
-599.497985839844
-574.320190429688
-543.134094238281
-512.520202636719
-489.631317138672
-472.178558349609
-475.707244873047
-473.132263183594
-446.428558349609
-397.503570556641
-324.449890136719
-248.725845336914
-193.792526245117
-175.1953125
-172.811050415039
-177.961059570313
-205.523086547852
-230.605484008789
-228.888809204102
-197.130493164063
-153.73698425293
-123.123107910156
-99.5666351318359
-76.3916397094727
-54.7425765991211
-45.300910949707
-65.9962768554688
-84.6888580322266
-70.5740509033203
-55.0286865234375
-45.8731346130371
-25.8453617095947
-6.1037015914917
9.63240432739258
23.6518440246582
25.2731399536133
21.839807510376
16.8805503845215
13.4472179412842
16.8805503845215
22.9842510223389
33.3796195983887
45.0148010253906
62.8490524291992
79.729606628418
72.4814605712891
56.5546112060547
50.1647987365723
50.2601699829102
49.6879463195801
44.4425773620605
51.9768333435059
60.8462753295898
60.6555366516113
67.7129440307617
57.3175735473633
45.300910949707
64.1842422485352
70.2879409790039
62.9444236755371
63.3259048461914
55.6009063720703
54.3610954284668
65.7101669311523
74.5796051025391
71.5277557373047
69.3342361450195
84.0212707519531
84.6888580322266
78.5851593017578
84.4981231689453
79.9203414916992
75.247200012207
79.729606628418
70.7647933959961
52.9305381774902
53.9796104431152
63.7073860168457
59.8925743103027
61.99072265625
75.6286773681641
71.1462707519531
46.5407257080078
29.8509159088135
26.3222141265869
30.6138782501221
46.1592445373535
54.3610954284668
52.1675758361816
63.3259048461914
73.1490478515625
59.3203506469727
43.3935050964355
43.2981338500977
43.1073951721191
41.962947845459
49.3064651489258
58.5573883056641
55.887020111084
41.2953567504883
36.431468963623
31.7583236694336
18.5018463134766
18.2157344818115
23.6518440246582
21.5536975860596
13.0657367706299
17.8342533111572
47.6851692199707
66.3777542114258
60.3694267272949
59.2249794006348
60.0833129882813
59.1296119689941
56.5546112060547
42.630542755127
32.2351760864258
30.8999900817871
36.431468963623
51.1185035705566
62.2768325805664
65.0425720214844
66.854606628418
62.6583137512207
50.355541229248
53.4073905944824
73.0536804199219
84.8796005249023
90.4110794067383
92.986083984375
92.8907089233398
94.03515625
84.8796005249023
71.2416458129883
57.3175735473633
31.6629524230957
13.7333288192749
18.787956237793
33.8564720153809
45.4916534423828
51.3092422485352
59.6064605712891
55.7916488647461
29.5648059844971
3.91018390655518
-21.0768451690674
-44.3472061157227
-47.3990592956543
-43.679615020752
-51.3092422485352
-62.0860900878906
-67.903678894043
-78.1083068847656
-90.220344543457
-99.0897827148438
-113.109222412109
-119.403663635254
-110.057373046875
-103.858299255371
-100.615707397461
-91.5555267333984
-81.9231185913086
-75.5333099365234
-81.2555313110352
-91.8416366577148
-93.367561340332
-106.910148620605
-120.83422088623
-107.95922088623
-105.479598999023
-114.825889587402
-106.528671264648
-101.187927246094
-103.476821899414
-92.986083984375
-77.1546020507813
-74.4842376708984
-73.9120101928711
-62.9444236755371
-50.0694274902344
-38.0527648925781
-30.2323970794678
-27.7527694702148
-34.0472106933594
-48.734245300293
-52.0722045898438
-46.3499870300293
-42.8212814331055
-40.5323944091797
-39.3879508972168
-33.0935096740723
-31.2814712524414
-40.7231369018555
-47.8759117126465
-42.1536903381348
-22.9842510223389
-12.9703664779663
-16.9759197235107
-13.4472179412842
-6.6759238243103
0
2.1935179233551
-10.204626083374
-19.1694374084473
-21.7444381713867
-23.9379558563232
-17.9296245574951
-17.9296245574951
-20.2185115814209
-15.1638841629028
-12.9703664779663
-10.204626083374
-5.43610954284668
1.52592539787292
5.7222204208374
6.19907188415527
13.256477355957
15.8314762115479
6.1037015914917
2.09814739227295
5.1499981880188
2.76573991775513
4.00555419921875
7.91573810577393
12.7796258926392
24.7962875366211
29.0879535675049
26.9898052215576
27.0851764678955
26.6083240509033
32.9981384277344
37.8620262145996
33.6657295227051
29.9462871551514
19.074068069458
10.4907369613647
22.0305480957031
22.6981410980225
1.14444410800934
-6.00833129882813
6.48518323898315
10.4907369613647
2.67036962509155
1.9074068069458
8.86944198608398
8.3925895690918
2.09814739227295
7.34351634979248
19.074068069458
28.7064723968506
32.9981384277344
20.409252166748
17.2620315551758
25.0823993682861
15.7361059188843
12.1120328903198
22.4120292663574
30.3277683258057
40.7231369018555
35.6685066223145
10.7768487930298
-9.15555286407471
-27.2759170532227
-33.1888771057129
-21.2675857543945
-8.29721927642822
-0.286111027002335
7.24814605712891
21.3629570007324
25.9407329559326
19.5509204864502
21.1722145080566
24.7009181976318
24.4148063659668
17.1666603088379
13.5425882339478
22.6981410980225
27.4666576385498
32.9981384277344
45.2055397033691
39.1018409729004
18.0249938964844
8.20184898376465
8.0111083984375
12.588885307312
15.5453653335571
15.4499950408936
28.8018417358398
40.6277656555176
38.7203598022461
41.1999855041504
40.913875579834
30.70924949646
24.7009181976318
18.5018463134766
7.72499752044678
6.58055353164673
13.8286991119385
9.82314491271973
6.00833129882813
15.4499950408936
14.3055505752563
3.91018390655518
6.86666440963745
10.8722190856934
4.10092449188232
6.38981294631958
18.9786968231201
13.9240694046021
-3.43333220481873
-4.10092449188232
1.81203651428223
-6.58055353164673
-17.0712909698486
-18.4064750671387
-15.4499950408936
-3.05185079574585
12.4935140609741
12.302773475647
3.147221326828
-0.572222054004669
0.667592406272888
3.05185079574585
5.91296100616455
6.29444265365601
-3.147221326828
-11.1583299636841
-4.95925760269165
5.43610954284668
6.00833129882813
-2.00277709960938
-8.20184898376465
-14.4009208679199
-16.8805503845215
-15.6407356262207
-24.9870281219482
-35.5731353759766
-32.04443359375
-23.8425846099854
-20.1231422424316
-12.2074031829834
0.0953703373670578
-1.9074068069458
-10.6814785003662
-2.95648050308228
10.6814785003662
21.6490669250488
28.3249912261963
19.8370304107666
13.1611070632935
12.4935140609741
-3.91018390655518
-15.0685138702393
-1.9074068069458
0.286111027002335
-19.8370304107666
-29.9462871551514
-29.0879535675049
-33.4749908447266
-33.761100769043
-32.1398048400879
-37.099063873291
-37.3851737976074
-26.8944358825684
-15.8314762115479
-15.35462474823
-18.787956237793
-20.0277709960938
-18.1203651428223
-6.29444265365601
-1.04907369613647
-7.0574049949646
-9.63240432739258
-14.4962921142578
-15.7361059188843
-2.09814739227295
9.537034034729
3.91018390655518
-2.67036962509155
5.43610954284668
15.5453653335571
18.2157344818115
15.7361059188843
14.3055505752563
18.5972156524658
15.2592544555664
4.86388731002808
4.1962947845459
7.0574049949646
-2.09814739227295
-16.1175880432129
-19.360179901123
-17.2620315551758
-15.5453653335571
-3.147221326828
15.6407356262207
22.7935104370117
16.30832862854
7.72499752044678
5.34073925018311
-1.62129580974579
-15.9268465042114
-12.302773475647
-0.762962698936462
-4.29166507720947
-4.38703584671021
-4.95925760269165
-1.71666610240936
17.5481433868408
26.1314735412598
23.5564746856689
27.657398223877
28.8972129821777
14.4009208679199
5.1499981880188
21.839807510376
38.2435073852539
28.4203605651855
2.8611102104187
-9.25092315673828
-3.62407302856445
-8.10647869110107
-20.409252166748
-25.4638805389404
-30.2323970794678
-27.943510055542
-24.5101776123047
-32.9027671813965
-37.9573936462402
-38.148136138916
-35.6685066223145
-28.0388793945313
-21.839807510376
-19.1694374084473
-21.0768451690674
-20.1231422424316
-19.074068069458
-20.6953639984131
-9.15555286407471
-0.190740674734116
-6.77129411697388
-4.57777643203735
2.1935179233551
8.29721927642822
19.5509204864502
14.2101802825928
9.06018257141113
26.1314735412598
38.5296173095703
43.3935050964355
40.7231369018555
19.8370304107666
10.1092557907104
19.7416610717773
20.5046234130859
16.1175880432129
11.8259220123291
0.381481349468231
-11.9212923049927
-19.1694374084473
-23.6518440246582
-25.2731399536133
-18.3111057281494
-11.1583299636841
-9.34629344940186
-4.29166507720947
2.47962880134583
6.48518323898315
5.43610954284668
-4.48240613937378
-12.1120328903198
-9.9185152053833
-1.9074068069458
3.91018390655518
-11.5398111343384
-31.6629524230957
-32.2351760864258
-24.9870281219482
-23.4611034393311
-32.2351760864258
-24.6055469512939
-5.1499981880188
-2.95648050308228
1.04907369613647
7.53425693511963
6.19907188415527
3.147221326828
-13.3518476486206
-56.0777587890625
-125.793479919434
-187.593460083008
-201.708267211914
-192.934204101563
-199.133270263672
-209.337890625
-181.108276367188
-108.340705871582
-42.5351715087891
49.8786888122559
230.986968994141
444.807250976563
680.753479003906
927.285827636719
1055.08203125
1049.83666992188
1012.92840576172
950.174682617188
813.795104980469
612.659057617188
401.890625
200.468460083008
-17.9296245574951
-226.313812255859
-386.440612792969
-507.656311035156
-576.609069824219
-588.434997558594
-574.98779296875
-543.420166015625
-492.873901367188
-465.311889648438
-469.222076416016
-465.025787353516
-460.543365478516
-454.058197021484
-428.117462158203
-382.625793457031
-307.378601074219
-229.461044311523
-185.304565429688
-167.851791381836
-158.219390869141
-161.461990356445
-177.579574584961
-186.162902832031
-177.770309448242
-142.006439208984
-93.7490463256836
-67.9990539550781
-57.0314636230469
-45.5870208740234
-43.8703575134277
-49.4018363952637
-61.99072265625
-74.2934951782227
-62.5629425048828
-46.9222068786621
-42.1536903381348
-27.0851764678955
-19.2648086547852
-23.0796222686768
-20.0277709960938
-27.8481388092041
-43.0120239257813
-44.0610961914063
-33.9518394470215
-25.7499923706055
-23.4611034393311
-14.0194396972656
12.7796258926392
32.3305435180664
28.5157318115234
30.995361328125
32.6166572570801
20.409252166748
23.7472152709961
31.2814712524414
36.0499877929688
49.6879463195801
53.5981292724609
50.6416511535645
60.1786842346191
76.6777496337891
82.2092361450195
78.2036819458008
74.1027526855469
71.4323883056641
70.2879409790039
60.5601654052734
50.9277610778809
58.3666496276855
61.6092376708984
61.7046089172363
76.6777496337891
85.2610855102539
82.876823425293
80.4925689697266
82.7814559936523
92.5092315673828
93.0814514160156
79.6342315673828
71.8138656616211
76.6777496337891
83.6397857666016
89.2666397094727
98.0407104492188
104.62126159668
102.809226989746
103.286079406738
104.239784240723
94.702751159668
88.8851547241211
89.7434921264648
89.2666397094727
91.6508941650391
93.4629364013672
83.3536758422852
73.4351654052734
75.5333099365234
71.0509033203125
61.0370178222656
59.1296119689941
68.4759063720703
84.4027481079102
83.8305282592773
77.2499771118164
81.0647888183594
74.0073852539063
68.1897964477539
70.0018310546875
50.4509086608887
35.0962867736816
38.8157272338867
36.5268402099609
31.3768424987793
24.7962875366211
27.8481388092041
37.5759124755859
40.4370231628418
43.5842437744141
33.2842483520508
21.5536975860596
24.891658782959
22.9842510223389
31.8536930084229
64.0888671875
85.0703430175781
85.4518280029297
82.2092361450195
74.6749725341797
56.3638725280762
28.8972129821777
19.7416610717773
34.9055442810059
39.6740608215332
36.9083213806152
48.066650390625
58.3666496276855
61.2277565002441
52.453685760498
29.8509159088135
20.3138828277588
22.2212886810303
17.8342533111572
10.8722190856934
2.67036962509155
4.95925760269165
8.3925895690918
-8.3925895690918
-27.5620288848877
-34.4286918640137
-36.1453590393066
-40.8185043334961
-46.2546157836914
-48.734245300293
-62.2768325805664
-69.1434936523438
-56.5546112060547
-46.5407257080078
-48.2573928833008
-58.1759071350098
-66.854606628418
-73.9120101928711
-70.9555358886719
-62.2768325805664
-68.8573837280273
-75.8194198608398
-72.9583129882813
-67.7129440307617
-67.3314590454102
-86.3101577758789
-106.337928771973
-111.487930297852
-115.588851928711
-115.779594421387
-108.054595947266
-104.239784240723
-107.291633605957
-115.302742004395
-106.719413757324
-79.1573791503906
-73.5305328369141
-85.5471954345703
-89.1712646484375
-91.5555267333984
-91.0786743164063
-79.729606628418
-67.2360916137695
-61.5138702392578
-68.5712738037109
-81.16015625
-79.3481216430664
-69.2388687133789
-56.2685012817383
-36.3360977172852
-24.7962875366211
-17.8342533111572
-12.4935140609741
-12.302773475647
-5.53147983551025
3.8148136138916
14.0194396972656
23.7472152709961
25.7499923706055
23.9379558563232
26.5129547119141
32.2351760864258
31.0907306671143
28.7064723968506
33.1888771057129
39.9601707458496
38.4342460632324
31.3768424987793
26.9898052215576
32.2351760864258
49.4972076416016
48.066650390625
25.9407329559326
21.1722145080566
26.7036952972412
25.177770614624
26.1314735412598
25.3685111999512
24.1286964416504
38.6249885559082
46.2546157836914
32.9981384277344
33.5703582763672
44.1564674377441
35.0009155273438
16.6898097991943
15.2592544555664
26.1314735412598
22.8888816833496
5.43610954284668
4.95925760269165
16.4036979675293
6.6759238243103
-7.91573810577393
-8.20184898376465
-7.0574049949646
-7.91573810577393
-8.67870044708252
-10.6814785003662
-18.4064750671387
-26.9898052215576
-15.1638841629028
2.5749990940094
-3.05185079574585
-9.9185152053833
-9.06018257141113
-16.022216796875
-9.15555286407471
9.63240432739258
14.4009208679199
9.537034034729
5.34073925018311
10.1092557907104
14.7824029922485
3.147221326828
-4.38703584671021
-0.762962698936462
-8.29721927642822
-16.7851791381836
-20.5046234130859
-27.8481388092041
-22.6027698516846
-12.1120328903198
-7.24814605712891
-3.91018390655518
-14.0194396972656
-18.1203651428223
8.10647869110107
33.0935096740723
37.3851737976074
30.3277683258057
16.9759197235107
14.5916624069214
24.4148063659668
26.4175834655762
15.7361059188843
0.381481349468231
-4.38703584671021
6.77129411697388
16.6898097991943
12.2074031829834
-3.147221326828
-21.0768451690674
-25.9407329559326
-24.3194370269775
-33.6657295227051
-37.6712837219238
-27.943510055542
-23.3657341003418
-22.3166599273682
-18.0249938964844
-14.4962921142578
-12.7796258926392
-26.7990646362305
-44.0610961914063
-42.8212814331055
-41.8675804138184
-36.431468963623
-18.787956237793
-10.3953666687012
-7.43888664245605
-2.5749990940094
-2.95648050308228
-2.28888821601868
1.04907369613647
-2.67036962509155
-10.3953666687012
-12.2074031829834
-10.2999963760376
-0.0953703373670578
14.5916624069214
12.1120328903198
3.91018390655518
13.256477355957
22.6027698516846
15.5453653335571
13.3518476486206
19.6462898254395
17.2620315551758
15.5453653335571
17.1666603088379
10.4907369613647
2.38425850868225
2.95648050308228
16.2129573822021
27.4666576385498
27.7527694702148
23.8425846099854
14.8777732849121
11.9212923049927
17.2620315551758
15.6407356262207
30.1370277404785
55.0286865234375
47.8759117126465
36.5268402099609
48.9249839782715
56.6499824523926
53.4073905944824
55.4101676940918
55.5055389404297
46.1592445373535
35.1916542053223
20.409252166748
6.19907188415527
7.82036781311035
13.1611070632935
10.2999963760376
8.20184898376465
3.147221326828
-4.10092449188232
-5.1499981880188
-8.48795986175537
-10.4907369613647
-3.8148136138916
-7.72499752044678
-10.204626083374
-1.04907369613647
-10.204626083374
-20.8861045837402
-10.1092557907104
-4.10092449188232
-5.24536848068237
-6.00833129882813
-11.635181427002
-7.53425693511963
-0.858333051204681
-6.38981294631958
-6.1037015914917
-0.572222054004669
-2.09814739227295
-4.00555419921875
-9.15555286407471
-11.0629596710205
-6.86666440963745
-20.9814739227295
-41.962947845459
-49.8786888122559
-49.2110939025879
-39.7694320678711
-35.0962867736816
-32.1398048400879
-17.2620315551758
-3.147221326828
1.52592539787292
3.33796191215515
5.91296100616455
2.09814739227295
-0.667592406272888
-2.67036962509155
-16.4990692138672
-18.4064750671387
-10.2999963760376
-19.6462898254395
-27.1805477142334
-16.4036979675293
-5.7222204208374
-5.7222204208374
-1.04907369613647
10.7768487930298
14.1148099899292
8.10647869110107
-3.43333220481873
-2.1935179233551
15.7361059188843
17.5481433868408
9.06018257141113
14.1148099899292
14.4962921142578
2.8611102104187
-9.82314491271973
-18.5018463134766
-21.3629570007324
-26.226842880249
-30.5185089111328
-34.1425819396973
-38.0527648925781
-21.839807510376
0.9537034034729
2.09814739227295
2.00277709960938
4.86388731002808
-7.43888664245605
-19.9324016571045
-17.0712909698486
-10.1092557907104
-13.7333288192749
-23.9379558563232
-30.995361328125
-26.7036952972412
-16.7851791381836
-15.0685138702393
-7.15277528762817
8.29721927642822
14.1148099899292
17.8342533111572
17.0712909698486
10.0138854980469
7.53425693511963
6.48518323898315
10.0138854980469
14.9731435775757
10.0138854980469
4.1962947845459
3.24259161949158
10.1092557907104
17.2620315551758
18.5018463134766
23.4611034393311
18.4064750671387
2.28888821601868
-2.09814739227295
8.77407169342041
22.125919342041
16.4990692138672
-11.9212923049927
-45.2055397033691
-95.3703384399414
-163.846237182617
-182.824935913086
-153.546249389648
-151.924957275391
-163.464767456055
-150.494400024414
-122.169403076172
-74.198127746582
22.5074005126953
188.451797485352
383.674865722656
611.228515625
883.320068359375
1047.73852539063
1046.88024902344
1006.15710449219
944.357116699219
805.30712890625
610.560913085938
420.964691162109
252.254547119141
67.7129440307617
-138.000885009766
-320.253601074219
-451.483184814453
-525.490600585938
-542.752624511719
-519.482238769531
-492.015594482422
-471.129486083984
-445.760955810547
-435.937835693359
-448.049865722656
-461.401702880859
-455.870239257813
-419.438751220703
-364.028594970703
-301.561004638672
-236.709182739258
-184.160125732422
-164.418472290039
-168.614761352539
-184.350860595703
-205.1416015625
-195.318450927734
-167.279571533203
-154.404586791992
-130.27587890625
-96.0379333496094
-67.9990539550781
-47.7805404663086
-53.0259094238281
-61.1323890686035
-70.4786834716797
-92.318489074707
-91.5555267333984
-78.4897918701172
-69.5249786376953
-56.0777587890625
-40.6277656555176
-27.5620288848877
-30.8999900817871
-34.9055442810059
-32.9027671813965
-43.9657249450684
-52.0722045898438
-37.3851737976074
-7.91573810577393
12.8749961853027
17.2620315551758
22.9842510223389
25.3685111999512
12.8749961853027
1.9074068069458
-0.762962698936462
-2.8611102104187
1.62129580974579
18.5018463134766
34.6194343566895
35.4777679443359
35.0009155273438
38.7203598022461
43.2027626037598
51.5953521728516
55.3147964477539
47.3990592956543
43.3935050964355
51.2138710021973
50.832389831543
47.8759117126465
49.4972076416016
43.0120239257813
37.9573936462402
50.1647987365723
65.7101669311523
70.6694183349609
84.4027481079102
97.849967956543
94.9888610839844
90.6971969604492
86.2147903442383
91.7462692260742
98.4221878051758
79.4434967041016
67.7129440307617
73.1490478515625
74.3888626098633
84.2120132446289
82.3999710083008
64.2796096801758
55.0286865234375
41.5814666748047
42.630542755127
57.0314636230469
52.5490570068359
51.4999847412109
62.8490524291992
72.7675704956055
70.4786834716797
54.2657241821289
50.1647987365723
51.7860946655273
45.3962821960449
52.3583183288574
70.2879409790039
83.7351608276367
88.5990447998047
83.5444183349609
73.7212753295898
57.6036834716797
43.7749862670898
40.5323944091797
43.8703575134277
45.4916534423828
40.5323944091797
39.0064697265625
44.9194297790527
42.5351715087891
38.5296173095703
44.8240585327148
46.7314682006836
46.3499870300293
44.0610961914063
42.7259140014648
63.5166473388672
85.2610855102539
86.5962677001953
80.3018264770508
63.3259048461914
46.0638732910156
42.630542755127
32.2351760864258
25.177770614624
37.7666549682617
49.2110939025879
59.1296119689941
66.6638641357422
66.9499816894531
69.8110885620117
69.0481262207031
50.0694274902344
29.6601753234863
22.0305480957031
13.9240694046021
11.2537002563477
13.256477355957
-0.286111027002335
-22.4120292663574
-33.4749908447266
-40.0555419921875
-53.121280670166
-56.936092376709
-52.1675758361816
-48.9249839782715
-41.1046180725098
-45.5870208740234
-57.5083160400391
-50.1647987365723
-44.0610961914063
-59.9879455566406
-81.5416412353516
-94.7981185913086
-97.849967956543
-101.760154724121
-110.820335388184
-111.392555236816
-111.869407653809
-120.071258544922
-112.918479919434
-91.6508941650391
-79.06201171875
-88.5036773681641
-101.950889587402
-91.3647842407227
-82.3046035766602
-77.8221969604492
-57.2222023010254
-59.1296119689941
-72.7675704956055
-55.6962776184082
-48.4481315612793
-58.2712783813477
-46.2546157836914
-32.2351760864258
-30.2323970794678
-26.0361022949219
-23.6518440246582
-28.9925842285156
-27.8481388092041
-16.2129573822021
-16.2129573822021
-21.6490669250488
-23.7472152709961
-37.6712837219238
-43.2027626037598
-24.1286964416504
-3.62407302856445
-0.858333051204681
-5.24536848068237
2.76573991775513
16.9759197235107
20.8861045837402
11.2537002563477
8.29721927642822
12.4935140609741
-6.77129411697388
-16.022216796875
4.29166507720947
11.4444408416748
11.5398111343384
12.2074031829834
0.0953703373670578
-1.14444410800934
16.2129573822021
21.1722145080566
11.2537002563477
5.81759071350098
-5.1499981880188
-17.4527721405029
-3.62407302856445
17.2620315551758
28.6111011505127
37.8620262145996
35.0962867736816
30.4231376647949
31.2814712524414
23.0796222686768
13.256477355957
9.537034034729
12.2074031829834
25.0823993682861
36.6222114562988
32.7120246887207
19.074068069458
5.34073925018311
-8.10647869110107
-4.7685170173645
14.7824029922485
20.3138828277588
11.4444408416748
4.48240613937378
5.7222204208374
12.2074031829834
16.9759197235107
27.4666576385498
35.8592491149902
39.864803314209
45.4916534423828
38.2435073852539
28.9925842285156
28.5157318115234
25.6546211242676
29.0879535675049
39.7694320678711
43.0120239257813
37.1944313049316
33.6657295227051
32.8073959350586
33.1888771057129
39.5786895751953
37.7666549682617
28.4203605651855
24.6055469512939
17.357400894165
15.2592544555664
18.8833274841309
18.4064750671387
15.2592544555664
12.6842555999756
13.4472179412842
7.72499752044678
0.47685170173645
3.91018390655518
4.10092449188232
-0.381481349468231
-6.1037015914917
-12.6842555999756
-2.95648050308228
11.4444408416748
12.1120328903198
10.0138854980469
7.82036781311035
11.0629596710205
12.8749961853027
8.58333015441895
15.1638841629028
15.7361059188843
6.77129411697388
0.47685170173645
-13.6379585266113
-25.5592517852783
-22.0305480957031
-17.5481433868408
-8.86944198608398
8.48795986175537
6.6759238243103
-3.8148136138916
4.10092449188232
9.25092315673828
5.1499981880188
-4.38703584671021
-22.7935104370117
-36.1453590393066
-42.3444290161133
-41.2953567504883
-28.3249912261963
-9.34629344940186
-4.7685170173645
-10.5861072540283
-10.8722190856934
-12.0166625976563
-12.6842555999756
-9.15555286407471
-7.72499752044678
-12.588885307312
-15.4499950408936
-16.022216796875
-17.0712909698486
-13.8286991119385
-17.4527721405029
-25.8453617095947
-21.2675857543945
-5.62685012817383
9.82314491271973
13.7333288192749
7.34351634979248
2.47962880134583
5.7222204208374
16.30832862854
13.4472179412842
-0.286111027002335
-6.96203470230103
-11.9212923049927
-10.2999963760376
-5.7222204208374
-7.0574049949646
-15.4499950408936
-25.7499923706055
-17.738883972168
-17.738883972168
-39.3879508972168
-53.0259094238281
-68.5712738037109
-76.0101623535156
-66.7592391967773
-67.1407165527344
-61.7999801635742
-51.0231323242188
-50.4509086608887
-42.8212814331055
-31.6629524230957
-33.6657295227051
-31.5675830841064
-19.360179901123
-19.4555492401123
-25.4638805389404
-19.9324016571045
-8.67870044708252
3.5287024974823
10.4907369613647
7.91573810577393
5.1499981880188
5.53147983551025
5.24536848068237
-0.858333051204681
-2.28888821601868
1.81203651428223
-1.9074068069458
-10.204626083374
-28.4203605651855
-36.6222114562988
-8.48795986175537
9.44166374206543
-1.04907369613647
-5.43610954284668
-5.7222204208374
-5.1499981880188
1.04907369613647
-0.286111027002335
-0.381481349468231
5.1499981880188
2.38425850868225
1.71666610240936
9.15555286407471
3.91018390655518
-16.30832862854
-12.7796258926392
6.77129411697388
-0.381481349468231
-8.10647869110107
-1.52592539787292
8.10647869110107
22.3166599273682
16.9759197235107
-6.48518323898315
-11.1583299636841
-2.47962880134583
-7.34351634979248
-9.82314491271973
-5.05462789535522
2.76573991775513
18.3111057281494
11.9212923049927
-0.858333051204681
12.0166625976563
30.5185089111328
51.3092422485352
61.2277565002441
48.2573928833008
37.4805450439453
29.3740653991699
16.4990692138672
2.67036962509155
-12.2074031829834
-21.839807510376
-16.5944385528564
-1.14444410800934
4.10092449188232
5.91296100616455
24.1286964416504
37.099063873291
23.2703628540039
10.3953666687012
20.5999927520752
35.2870254516602
34.2379531860352
21.5536975860596
4.86388731002808
-12.588885307312
-19.9324016571045
-22.6027698516846
-22.125919342041
-12.9703664779663
-7.82036781311035
-7.72499752044678
-4.38703584671021
-6.96203470230103
-16.4036979675293
-17.6435127258301
-16.8805503845215
-22.8888816833496
-17.1666603088379
1.33518481254578
17.0712909698486
16.1175880432129
2.95648050308228
-2.95648050308228
-0.858333051204681
0.190740674734116
-1.71666610240936
2.1935179233551
-1.81203651428223
-15.5453653335571
-4.67314672470093
0.9537034034729
-4.7685170173645
12.2074031829834
22.8888816833496
26.5129547119141
26.8944358825684
7.6296272277832
1.52592539787292
6.48518323898315
1.23981440067291
-3.24259161949158
2.00277709960938
14.9731435775757
12.6842555999756
6.6759238243103
12.7796258926392
12.0166625976563
12.9703664779663
16.5944385528564
12.7796258926392
17.9296245574951
24.4148063659668
19.8370304107666
14.1148099899292
12.0166625976563
-2.38425850868225
-41.1999855041504
-100.52033996582
-171.094390869141
-211.436050415039
-208.288818359375
-196.939758300781
-185.78141784668
-159.077728271484
-108.149963378906
-47.4944305419922
56.8407211303711
257.976776123047
478.854461669922
701.258117675781
968.19970703125
1141.20153808594
1153.3134765625
1113.35339355469
1035.81726074219
870.158996582031
657.197021484375
448.717437744141
238.044372558594
27.943510055542
-171.761978149414
-357.448028564453
-497.260955810547
-558.774841308594
-558.202575683594
-534.359985351563
-499.454467773438
-458.254486083984
-438.322082519531
-439.657257080078
-436.223937988281
-434.411895751953
-431.169311523438
-406.754486083984
-372.611907958984
-330.172119140625
-265.415649414063
-212.771224975586
-191.789749145508
-186.735122680664
-208.002716064453
-238.998077392578
-251.396209716797
-246.436950683594
-221.449935913086
-177.388824462891
-133.518478393555
-102.046264648438
-76.3916397094727
-66.6638641357422
-83.4490509033203
-99.1851501464844
-107.291633605957
-116.637924194336
-106.624038696289
-81.3508987426758
-68.7620162963867
-58.2712783813477
-43.7749862670898
-45.4916534423828
-55.4101676940918
-58.9388694763184
-57.7944259643555
-49.4972076416016
-39.1018409729004
-32.4259147644043
-19.5509204864502
-4.67314672470093
11.2537002563477
31.6629524230957
35.4777679443359
26.9898052215576
25.3685111999512
20.2185115814209
15.1638841629028
20.3138828277588
23.1749935150146
21.3629570007324
20.409252166748
20.2185115814209
23.0796222686768
26.7036952972412
40.3416519165039
64.6610870361328
69.9064559936523
68.7620162963867
76.7731246948242
78.5851593017578
90.220344543457
98.1360778808594
78.5851593017578
66.1870193481445
73.4351654052734
77.8221969604492
74.8657150268555
83.1629333496094
96.2286758422852
86.7870101928711
68.6666412353516
61.4184989929199
61.7999801635742
61.7046089172363
55.7916488647461
52.8351669311523
61.4184989929199
76.5823822021484
80.778678894043
65.9009017944336
56.3638725280762
61.1323890686035
57.5083160400391
55.0286865234375
70.4786834716797
93.9397811889648
100.424964904785
86.5009002685547
70.2879409790039
52.0722045898438
54.0749816894531
79.6342315673828
79.1573791503906
65.137939453125
74.3888626098633
84.4981231689453
90.4110794067383
103.667556762695
95.6564483642578
65.9009017944336
49.9740562438965
37.6712837219238
22.9842510223389
23.2703628540039
33.8564720153809
46.0638732910156
51.9768333435059
50.9277610778809
51.9768333435059
50.9277610778809
37.3851737976074
23.8425846099854
28.7064723968506
33.0935096740723
32.9027671813965
49.1157264709473
67.1407165527344
63.6120147705078
40.1509132385254
18.0249938964844
17.6435127258301
29.7555465698242
36.5268402099609
43.0120239257813
48.3527641296387
45.0148010253906
45.7777633666992
43.0120239257813
27.7527694702148
21.1722145080566
25.7499923706055
33.0935096740723
44.0610961914063
54.9333152770996
61.6092376708984
61.7046089172363
56.7453536987305
43.679615020752
29.4694347381592
24.7009181976318
14.4009208679199
-10.6814785003662
-31.2814712524414
-33.2842483520508
-34.6194343566895
-32.8073959350586
-24.7009181976318
-28.3249912261963
-37.0036926269531
-51.8814659118652
-70.2879409790039
-82.876823425293
-99.0897827148438
-107.95922088623
-102.332374572754
-100.615707397461
-101.474044799805
-94.2258987426758
-88.6944122314453
-100.043487548828
-110.724967956543
-102.713859558105
-100.424964904785
-105.574966430664
-92.5092315673828
-69.5249786376953
-57.7944259643555
-63.4212760925293
-64.6610870361328
-49.783317565918
-43.9657249450684
-47.7805404663086
-50.5462799072266
-61.99072265625
-72.6721954345703
-71.3370132446289
-73.6259002685547
-77.0592346191406
-60.0833129882813
-43.4888763427734
-37.9573936462402
-23.7472152709961
-14.5916624069214
-24.0333251953125
-40.2462844848633
-42.630542755127
-28.5157318115234
-23.9379558563232
-22.6981410980225
-6.86666440963745
-0.667592406272888
-15.0685138702393
-28.4203605651855
-32.8073959350586
-28.0388793945313
-12.9703664779663
-1.9074068069458
-2.67036962509155
-2.76573991775513
-9.44166374206543
-10.8722190856934
11.4444408416748
16.4036979675293
2.28888821601868
2.95648050308228
-0.190740674734116
-7.6296272277832
-7.43888664245605
-11.7305517196655
-15.35462474823
-16.8805503845215
-13.1611070632935
-4.00555419921875
-11.4444408416748
-23.4611034393311
-19.5509204864502
-17.9296245574951
-18.8833274841309
-18.787956237793
-21.9351787567139
-9.25092315673828
11.2537002563477
19.1694374084473
21.7444381713867
17.4527721405029
12.4935140609741
12.302773475647
4.57777643203735
1.14444410800934
2.09814739227295
-6.96203470230103
-8.48795986175537
-1.71666610240936
0.858333051204681
11.635181427002
23.5564746856689
26.8944358825684
35.9546165466309
41.2953567504883
32.9981384277344
24.1286964416504
23.9379558563232
31.8536930084229
43.3935050964355
55.6009063720703
57.4129447937012
45.2055397033691
30.0416564941406
25.0823993682861
36.2407302856445
37.2898025512695
21.0768451690674
19.4555492401123
29.5648059844971
27.7527694702148
13.5425882339478
-0.762962698936462
-1.23981440067291
4.10092449188232
7.53425693511963
10.204626083374
9.06018257141113
20.3138828277588
24.5101776123047
-1.14444410800934
-13.8286991119385
-5.24536848068237
-2.95648050308228
-7.34351634979248
-17.9296245574951
-23.5564746856689
-17.6435127258301
-17.1666603088379
-15.7361059188843
-4.48240613937378
3.62407302856445
-2.5749990940094
-13.256477355957
-19.5509204864502
-27.2759170532227
-25.0823993682861
-16.1175880432129
-21.3629570007324
-27.0851764678955
-25.3685111999512
-24.7009181976318
-13.1611070632935
7.91573810577393
14.1148099899292
11.0629596710205
17.6435127258301
9.72777462005615
-20.0277709960938
-39.197208404541
-24.7009181976318
6.96203470230103
16.30832862854
5.24536848068237
0
5.24536848068237
16.1175880432129
20.6953639984131
19.1694374084473
25.177770614624
29.4694347381592
25.9407329559326
14.8777732849121
-0.572222054004669
-1.43055510520935
4.86388731002808
9.82314491271973
12.9703664779663
4.48240613937378
1.71666610240936
11.0629596710205
19.7416610717773
33.0935096740723
50.355541229248
57.4129447937012
49.3064651489258
36.7175827026367
32.04443359375
35.0962867736816
33.6657295227051
31.0907306671143
37.6712837219238
39.6740608215332
35.4777679443359
40.6277656555176
39.6740608215332
24.3194370269775
19.7416610717773
25.177770614624
22.4120292663574
19.074068069458
25.3685111999512
30.0416564941406
29.3740653991699
26.4175834655762
22.3166599273682
21.4583263397217
11.7305517196655
-8.48795986175537
-19.2648086547852
-14.7824029922485
-4.38703584671021
3.71944332122803
7.34351634979248
-1.9074068069458
-8.67870044708252
7.72499752044678
16.2129573822021
7.34351634979248
11.0629596710205
24.7009181976318
32.6166572570801
36.2407302856445
33.1888771057129
21.5536975860596
12.4935140609741
8.20184898376465
-0.381481349468231
-9.63240432739258
-18.787956237793
-28.6111011505127
-24.1286964416504
-8.77407169342041
0.381481349468231
0.572222054004669
-6.6759238243103
-18.8833274841309
-29.0879535675049
-26.9898052215576
-12.4935140609741
10.2999963760376
24.4148063659668
17.2620315551758
8.67870044708252
0.286111027002335
-7.6296272277832
-5.43610954284668
-5.34073925018311
-4.57777643203735
-3.71944332122803
-14.4962921142578
-19.7416610717773
-18.5018463134766
-22.5074005126953
-25.4638805389404
-29.0879535675049
-19.360179901123
-0.858333051204681
0.381481349468231
2.00277709960938
-4.1962947845459
-24.3194370269775
-25.2731399536133
-18.4064750671387
-18.5018463134766
-22.9842510223389
-33.5703582763672
-44.0610961914063
-43.7749862670898
-40.913875579834
-50.355541229248
-44.8240585327148
-27.8481388092041
-32.7120246887207
-35.2870254516602
-26.1314735412598
-19.360179901123
-9.63240432739258
-8.77407169342041
-15.0685138702393
-19.4555492401123
-31.9490642547607
-35.5731353759766
-25.6546211242676
-20.9814739227295
-26.0361022949219
-33.2842483520508
-21.1722145080566
0.190740674734116
0.858333051204681
-9.06018257141113
-13.0657367706299
-22.125919342041
-30.6138782501221
-27.0851764678955
-26.0361022949219
-24.0333251953125
-8.86944198608398
10.0138854980469
22.0305480957031
17.8342533111572
2.67036962509155
-4.7685170173645
-2.95648050308228
6.48518323898315
4.48240613937378
-15.7361059188843
-22.6027698516846
-10.7768487930298
-0.9537034034729
1.43055510520935
5.34073925018311
12.4935140609741
8.29721927642822
-5.62685012817383
-14.2101802825928
-7.0574049949646
7.24814605712891
5.91296100616455
0.381481349468231
10.8722190856934
22.4120292663574
26.6083240509033
26.4175834655762
23.3657341003418
18.8833274841309
6.86666440963745
-2.47962880134583
-8.10647869110107
-15.6407356262207
-13.3518476486206
-8.96481227874756
-11.7305517196655
-14.1148099899292
-24.7009181976318
-59.701831817627
-120.357368469238
-185.113830566406
-220.019378662109
-220.496231079102
-210.482345581055
-208.288818359375
-207.907333374023
-174.241607666016
-98.1360778808594
15.4499950408936
195.413833618164
420.010986328125
660.63037109375
907.448791503906
1070.91357421875
1106.39135742188
1081.404296875
1016.36169433594
861.28955078125
646.134033203125
449.480407714844
259.884185791016
46.1592445373535
-167.661056518555
-357.924896240234
-507.656311035156
-579.660949707031
-576.418334960938
-551.526672363281
-516.525756835938
-466.265594482422
-436.796142578125
-427.3544921875
-421.06005859375
-426.305419921875
-413.716522216797
-381.767456054688
-353.728576660156
-303.945281982422
-242.526779174805
-212.866592407227
-203.711044311523
-199.228637695313
-213.72492980957
-219.447158813477
-209.719375610352
-210.577713012695
-194.55549621582
-152.783279418945
-115.398109436035
-95.2749710083008
-91.269416809082
-90.220344543457
-92.2231216430664
-100.52033996582
-102.237007141113
-87.8360824584961
-67.5222015380859
-45.3962821960449
-19.5509204864502
-10.4907369613647
-2.47962880134583
12.7796258926392
8.96481227874756
8.67870044708252
12.1120328903198
-0.190740674734116
2.8611102104187
26.4175834655762
36.5268402099609
35.2870254516602
40.3416519165039
30.1370277404785
12.3981437683105
17.357400894165
23.6518440246582
14.3055505752563
15.2592544555664
30.4231376647949
33.9518394470215
35.9546165466309
50.2601699829102
61.4184989929199
61.7999801635742
47.9712791442871
35.1916542053223
45.7777633666992
66.4731292724609
77.7268295288086
83.1629333496094
90.6971969604492
93.9397811889648
83.2583084106445
68.1897964477539
65.9962768554688
69.5249786376953
63.7073860168457
49.2110939025879
43.8703575134277
57.4129447937012
60.4647941589355
52.1675758361816
56.0777587890625
56.936092376709
58.7481307983398
74.198127746582
82.3046035766602
80.8740463256836
81.3508987426758
78.012939453125
66.0916442871094
53.6935005187988
51.4999847412109
48.6388740539551
44.7286911010742
55.0286865234375
68.1897964477539
80.2064590454102
88.4083023071289
82.2092361450195
79.4434967041016
83.925895690918
86.4055252075195
89.6481170654297
86.5009002685547
81.5416412353516
84.6888580322266
88.5036773681641
92.5092315673828
94.8934860229492
79.6342315673828
62.5629425048828
70.2879409790039
67.8083114624023
47.7805404663086
58.0805358886719
73.1490478515625
68.8573837280273
73.0536804199219
73.4351654052734
64.3749771118164
55.5055389404297
49.6879463195801
51.8814659118652
67.1407165527344
93.367561340332
100.043487548828
86.5962677001953
78.2990493774414
71.4323883056641
59.5110931396484
47.4944305419922
42.9166526794434
44.7286911010742
45.5870208740234
49.4972076416016
59.8925743103027
64.5657196044922
58.2712783813477
45.8731346130371
29.7555465698242
15.5453653335571
-6.19907188415527
-25.3685111999512
-22.6027698516846
-12.8749961853027
6.58055353164673
19.7416610717773
2.1935179233551
-14.4009208679199
-14.7824029922485
-13.8286991119385
-20.5046234130859
-32.4259147644043
-33.8564720153809
-35.5731353759766
-42.7259140014648
-45.300910949707
-57.3175735473633
-67.1407165527344
-66.7592391967773
-69.6203460693359
-75.5333099365234
-86.7870101928711
-92.1277465820313
-90.6018218994141
-86.3101577758789
-69.0481262207031
-55.4101676940918
-70.5740509033203
-93.9397811889648
-90.8879318237305
-80.8740463256836
-85.8333053588867
-83.8305282592773
-72.8629379272461
-70.8601608276367
-71.9092330932617
-71.8138656616211
-82.1138610839844
-88.5036773681641
-75.1518249511719
-67.0453491210938
-75.7240524291992
-78.8712692260742
-68.8573837280273
-56.3638725280762
-50.6416511535645
-51.9768333435059
-42.3444290161133
-21.0768451690674
-25.177770614624
-42.5351715087891
-38.9110984802246
-28.4203605651855
-18.5972156524658
-19.4555492401123
-29.4694347381592
-10.5861072540283
12.3981437683105
9.63240432739258
10.9675893783569
11.0629596710205
-3.5287024974823
-19.8370304107666
-28.6111011505127
-24.4148063659668
-21.5536975860596
-26.7036952972412
-34.6194343566895
-43.2027626037598
-39.864803314209
-28.8972129821777
-27.4666576385498
-34.4286918640137
-44.8240585327148
-50.832389831543
-47.7805404663086
-42.9166526794434
-40.6277656555176
-39.197208404541
-32.9027671813965
-17.6435127258301
-7.0574049949646
-3.43333220481873
2.95648050308228
5.05462789535522
5.05462789535522
4.67314672470093
0.667592406272888
7.0574049949646
26.226842880249
32.1398048400879
19.8370304107666
18.4064750671387
27.943510055542
21.9351787567139
12.0166625976563
6.00833129882813
-0.858333051204681
0.0953703373670578
-0.572222054004669
-3.5287024974823
4.38703584671021
12.3981437683105
22.5074005126953
25.7499923706055
9.63240432739258
8.86944198608398
20.2185115814209
12.4935140609741
9.15555286407471
12.2074031829834
6.19907188415527
13.4472179412842
24.0333251953125
20.409252166748
18.787956237793
18.8833274841309
6.58055353164673
-4.10092449188232
5.53147983551025
20.9814739227295
26.8944358825684
32.9027671813965
42.2490615844727
40.1509132385254
27.4666576385498
25.4638805389404
28.8018417358398
23.7472152709961
13.256477355957
-1.52592539787292
-13.9240694046021
-17.2620315551758
-18.5018463134766
-18.0249938964844
-8.0111083984375
-3.5287024974823
-4.48240613937378
9.537034034729
25.7499923706055
33.1888771057129
36.7175827026367
40.2462844848633
42.5351715087891
38.8157272338867
32.4259147644043
16.9759197235107
1.04907369613647
2.76573991775513
9.44166374206543
3.33796191215515
-7.0574049949646
0.858333051204681
10.7768487930298
10.6814785003662
9.15555286407471
-5.91296100616455
-20.5999927520752
-17.4527721405029
-12.8749961853027
-17.0712909698486
-24.3194370269775
-28.6111011505127
-28.8018417358398
-23.1749935150146
-17.5481433868408
-16.4990692138672
-13.4472179412842
-13.8286991119385
-19.1694374084473
-21.3629570007324
-17.8342533111572
-8.67870044708252
4.57777643203735
13.3518476486206
22.2212886810303
43.1073951721191
51.2138710021973
40.1509132385254
34.810173034668
32.1398048400879
33.4749908447266
33.2842483520508
13.1611070632935
-3.71944332122803
-3.33796191215515
-4.67314672470093
-4.7685170173645
0.0953703373670578
-6.38981294631958
-15.7361059188843
-10.1092557907104
-6.86666440963745
-12.6842555999756
-11.7305517196655
-10.1092557907104
-11.9212923049927
-5.43610954284668
4.00555419921875
-1.81203651428223
-11.1583299636841
-7.15277528762817
-13.1611070632935
-26.8944358825684
-20.5046234130859
-3.71944332122803
12.1120328903198
19.9324016571045
13.7333288192749
19.2648086547852
35.8592491149902
42.4398002624512
38.0527648925781
28.4203605651855
22.7935104370117
21.2675857543945
20.5046234130859
21.4583263397217
15.9268465042114
5.81759071350098
5.81759071350098
6.96203470230103
0.858333051204681
-2.09814739227295
2.5749990940094
15.2592544555664
30.1370277404785
35.0009155273438
30.6138782501221
34.2379531860352
48.2573928833008
57.4129447937012
54.8379440307617
40.6277656555176
23.7472152709961
17.357400894165
13.4472179412842
5.1499981880188
0.9537034034729
-8.20184898376465
-20.8861045837402
-27.0851764678955
-31.7583236694336
-34.7148017883301
-29.7555465698242
-20.409252166748
-17.6435127258301
-16.7851791381836
-12.6842555999756
-11.8259220123291
-14.5916624069214
-17.0712909698486
-16.1175880432129
-18.4064750671387
-22.7935104370117
-12.302773475647
4.7685170173645
17.1666603088379
19.4555492401123
5.05462789535522
-5.24536848068237
-1.52592539787292
0.381481349468231
1.23981440067291
2.47962880134583
1.04907369613647
1.9074068069458
-3.05185079574585
-15.7361059188843
-15.9268465042114
-2.09814739227295
8.20184898376465
6.19907188415527
-2.47962880134583
1.81203651428223
13.4472179412842
4.86388731002808
-12.9703664779663
-24.0333251953125
-31.2814712524414
-34.7148017883301
-29.3740653991699
-20.8861045837402
-18.4064750671387
-19.6462898254395
-22.3166599273682
-25.8453617095947
-24.7962875366211
-20.5046234130859
-15.6407356262207
-14.9731435775757
-19.2648086547852
-25.5592517852783
-34.2379531860352
-36.3360977172852
-32.9981384277344
-44.4425773620605
-63.5166473388672
-68.6666412353516
-60.8462753295898
-50.6416511535645
-36.7175827026367
-13.0657367706299
5.34073925018311
1.9074068069458
-6.48518323898315
-3.62407302856445
0
1.9074068069458
6.48518323898315
-5.43610954284668
-21.3629570007324
-14.3055505752563
-7.15277528762817
-8.20184898376465
-7.6296272277832
0.762962698936462
17.0712909698486
22.125919342041
19.9324016571045
19.2648086547852
13.9240694046021
13.1611070632935
13.1611070632935
6.38981294631958
1.81203651428223
2.8611102104187
9.34629344940186
14.8777732849121
14.0194396972656
-3.71944332122803
-45.2055397033691
-97.7546005249023
-158.886993408203
-187.974945068359
-164.418472290039
-150.780502319336
-150.780502319336
-131.229583740234
-97.6592254638672
-43.0120239257813
62.2768325805664
224.692520141602
399.887847900391
611.5146484375
868.633056640625
1016.93395996094
1015.12188720703
979.739501953125
911.835815429688
771.546020507813
585.097045898438
391.399871826172
226.027709960938
43.2027626037598
-172.811050415039
-332.460998535156
-437.654479980469
-506.41650390625
-516.048889160156
-497.73779296875
-478.282257080078
-461.592437744141
-439.561889648438
-423.348937988281
-427.926727294922
-439.085052490234
-441.469299316406
-407.898956298828
-346.003601074219
-289.353607177734
-230.128631591797
-184.923095703125
-176.435134887695
-181.203643798828
-192.171234130859
-211.53141784668
-219.351776123047
-216.299926757813
-199.896224975586
-148.110137939453
-96.7055282592773
-74.9610900878906
-54.5518341064453
-41.6768379211426
-48.4481315612793
-67.6175689697266
-94.9888610839844
-94.3212661743164
-66.2823867797852
-47.8759117126465
-17.4527721405029
21.0768451690674
34.3333206176758
39.1018409729004
31.7583236694336
11.635181427002
8.29721927642822
6.77129411697388
8.29721927642822
29.7555465698242
44.1564674377441
49.1157264709473
53.5981292724609
46.1592445373535
37.5759124755859
30.0416564941406
19.8370304107666
24.3194370269775
41.8675804138184
50.1647987365723
41.8675804138184
33.6657295227051
36.3360977172852
35.7638778686523
35.2870254516602
53.7888717651367
67.4268264770508
67.7129440307617
73.9120101928711
59.701831817627
34.9055442810059
35.1916542053223
43.3935050964355
50.1647987365723
59.4157218933105
62.6583137512207
61.0370178222656
60.5601654052734
57.2222023010254
55.887020111084
57.1268348693848
53.3120193481445
49.8786888122559
49.9740562438965
55.6962776184082
63.6120147705078
67.4268264770508
79.5388641357422
86.5962677001953
69.6203460693359
54.7425765991211
49.2110939025879
36.3360977172852
28.8972129821777
32.04443359375
33.6657295227051
46.2546157836914
63.9934997558594
65.5194244384766
62.8490524291992
56.5546112060547
48.066650390625
49.3064651489258
47.4944305419922
47.5897979736328
58.7481307983398
68.3805313110352
70.3833084106445
69.2388687133789
67.903678894043
64.8518295288086
63.6120147705078
56.936092376709
41.3907279968262
35.6685066223145
45.1101722717285
58.8434982299805
63.6120147705078
63.7073860168457
63.5166473388672
57.6036834716797
55.5055389404297
47.7805404663086
31.7583236694336
31.0907306671143
41.1999855041504
49.0203552246094
51.2138710021973
41.1999855041504
32.2351760864258
30.2323970794678
15.5453653335571
-0.572222054004669
-4.00555419921875
-6.29444265365601
-2.09814739227295
2.38425850868225
-2.38425850868225
-8.77407169342041
-11.7305517196655
-12.4935140609741
-18.5018463134766
-18.5018463134766
-9.63240432739258
-11.8259220123291
-14.4962921142578
-10.0138854980469
-14.5916624069214
-14.4009208679199
-1.04907369613647
-1.9074068069458
-8.96481227874756
-11.9212923049927
-28.4203605651855
-36.8129501342773
-36.6222114562988
-49.2110939025879
-41.8675804138184
-18.1203651428223
-15.9268465042114
-18.8833274841309
-14.4962921142578
-24.1286964416504
-39.9601707458496
-51.2138710021973
-63.3259048461914
-67.8083114624023
-63.6120147705078
-57.4129447937012
-52.0722045898438
-60.9416465759277
-75.7240524291992
-76.6777496337891
-72.3860855102539
-74.4842376708984
-76.3916397094727
-67.5222015380859
-56.5546112060547
-44.0610961914063
-26.0361022949219
-22.6027698516846
-28.9925842285156
-27.3712882995605
-26.9898052215576
-34.5240631103516
-44.5379486083984
-55.9823913574219
-57.9851684570313
-50.832389831543
-43.3935050964355
-24.891658782959
-10.1092557907104
-19.4555492401123
-26.9898052215576
-18.2157344818115
-17.738883972168
-17.738883972168
-8.58333015441895
-16.30832862854
-26.226842880249
-14.5916624069214
0.381481349468231
8.77407169342041
12.588885307312
13.4472179412842
11.2537002563477
2.38425850868225
-2.38425850868225
-2.1935179233551
-4.29166507720947
2.5749990940094
10.1092557907104
6.19907188415527
4.48240613937378
3.71944332122803
4.57777643203735
13.5425882339478
21.1722145080566
24.4148063659668
18.2157344818115
10.9675893783569
16.9759197235107
17.357400894165
-1.43055510520935
-8.67870044708252
7.72499752044678
19.7416610717773
26.1314735412598
36.7175827026367
31.7583236694336
18.9786968231201
20.409252166748
20.5999927520752
15.35462474823
18.2157344818115
11.0629596710205
-9.537034034729
-13.7333288192749
-3.147221326828
6.77129411697388
11.0629596710205
2.38425850868225
-14.2101802825928
-24.0333251953125
-10.6814785003662
4.7685170173645
8.0111083984375
16.1175880432129
15.9268465042114
0
-10.3953666687012
-9.9185152053833
-2.76573991775513
12.2074031829834
16.4036979675293
1.43055510520935
-4.10092449188232
-6.00833129882813
-19.8370304107666
-31.3768424987793
-28.0388793945313
-19.9324016571045
-25.0823993682861
-27.5620288848877
-17.357400894165
-12.8749961853027
-6.29444265365601
-0.572222054004669
-5.53147983551025
-2.5749990940094
-10.5861072540283
-26.3222141265869
-20.3138828277588
-18.0249938964844
-18.9786968231201
-2.09814739227295
11.1583299636841
12.4935140609741
9.34629344940186
7.82036781311035
15.35462474823
12.588885307312
7.53425693511963
26.3222141265869
37.6712837219238
40.3416519165039
54.7425765991211
51.0231323242188
39.1018409729004
49.1157264709473
57.1268348693848
46.7314682006836
31.3768424987793
29.7555465698242
38.148136138916
33.9518394470215
28.8018417358398
40.1509132385254
42.3444290161133
27.1805477142334
25.0823993682861
27.4666576385498
14.0194396972656
12.588885307312
25.4638805389404
29.5648059844971
22.5074005126953
9.82314491271973
5.05462789535522
6.58055353164673
4.57777643203735
-1.9074068069458
-3.43333220481873
6.00833129882813
4.1962947845459
-0.47685170173645
7.43888664245605
9.9185152053833
12.6842555999756
14.687032699585
3.71944332122803
-7.24814605712891
-10.3953666687012
-5.62685012817383
-3.62407302856445
-11.7305517196655
-13.3518476486206
-14.5916624069214
-18.787956237793
-2.76573991775513
15.6407356262207
16.4990692138672
6.77129411697388
-10.1092557907104
-18.6925868988037
-18.4064750671387
-10.1092557907104
8.0111083984375
8.86944198608398
-5.43610954284668
-11.4444408416748
-13.8286991119385
-22.8888816833496
-30.4231376647949
-30.8999900817871
-32.8073959350586
-33.1888771057129
-27.2759170532227
-18.4064750671387
-12.7796258926392
-18.3111057281494
-21.3629570007324
-16.2129573822021
-21.0768451690674
-22.3166599273682
-7.6296272277832
2.38425850868225
0.9537034034729
-4.38703584671021
-6.58055353164673
-1.71666610240936
0.47685170173645
-2.95648050308228
-3.147221326828
-9.15555286407471
-13.1611070632935
2.47962880134583
6.96203470230103
-3.91018390655518
-11.5398111343384
-17.8342533111572
-5.91296100616455
3.8148136138916
-13.4472179412842
-15.7361059188843
1.14444410800934
-8.48795986175537
-22.2212886810303
-12.1120328903198
-15.35462474823
-22.0305480957031
-8.77407169342041
-2.5749990940094
-6.58055353164673
-8.10647869110107
-4.95925760269165
-1.14444410800934
-3.05185079574585
2.09814739227295
14.7824029922485
23.4611034393311
22.9842510223389
17.9296245574951
20.7907333374023
22.4120292663574
16.4990692138672
7.0574049949646
-6.1037015914917
-14.5916624069214
-11.635181427002
-2.1935179233551
1.52592539787292
-2.76573991775513
-7.15277528762817
-13.6379585266113
-19.074068069458
-17.738883972168
-23.7472152709961
-26.7036952972412
-15.6407356262207
-25.3685111999512
-45.5870208740234
-36.0499877929688
-23.2703628540039
-37.1944313049316
-42.3444290161133
-35.4777679443359
-40.6277656555176
-40.2462844848633
-28.8972129821777
-27.8481388092041
-43.3935050964355
-56.1731300354004
-53.5027618408203
-41.2953567504883
-32.9027671813965
-28.3249912261963
-16.022216796875
-10.4907369613647
-14.8777732849121
-9.63240432739258
0.381481349468231
5.91296100616455
5.34073925018311
10.204626083374
24.6055469512939
25.5592517852783
16.1175880432129
18.4064750671387
21.4583263397217
14.3055505752563
16.7851791381836
22.9842510223389
12.302773475647
13.0657367706299
19.2648086547852
-3.91018390655518
-36.2407302856445
-85.9286727905273
-157.265686035156
-186.258270263672
-179.868453979492
-183.874008178711
-176.053649902344
-145.916625976563
-104.907371520996
-46.8268356323242
60.1786842346191
234.420288085938
421.632263183594
624.198852539063
862.815490722656
1022.75152587891
1051.55334472656
1027.61535644531
960.093200683594
809.217346191406
602.740539550781
398.171173095703
212.580490112305
18.1203651428223
-176.911987304688
-338.373962402344
-466.551696777344
-531.212768554688
-520.245178222656
-489.249847412109
-466.074859619141
-439.847991943359
-419.724853515625
-422.299865722656
-426.305419921875
-424.684112548828
-417.340606689453
-385.105438232422
-340.948974609375
-291.451751708984
-228.125854492188
-183.68327331543
-171.952728271484
-170.9990234375
-182.348083496094
-193.506423950195
-193.315673828125
-188.928649902344
-158.600875854492
-114.539779663086
-88.0268249511719
-69.4296035766602
-55.0286865234375
-45.1101722717285
-41.5814666748047
-59.4157218933105
-86.6916351318359
-92.318489074707
-84.5934906005859
-70.8601608276367
-45.1101722717285
-29.0879535675049
-22.6027698516846
-11.2537002563477
-11.9212923049927
-25.177770614624
-39.4833221435547
-48.1620216369629
-36.0499877929688
-10.7768487930298
11.4444408416748
22.3166599273682
18.6925868988037
21.6490669250488
35.2870254516602
36.9083213806152
20.0277709960938
2.76573991775513
-1.81203651428223
3.05185079574585
15.7361059188843
28.3249912261963
36.6222114562988
44.6333198547363
47.6851692199707
43.679615020752
47.1129493713379
59.2249794006348
65.2333145141602
77.1546020507813
89.5527496337891
89.3620071411133
92.0323791503906
93.9397811889648
91.1740417480469
88.4083023071289
85.5471954345703
77.4407196044922
63.1351661682129
57.9851684570313
53.2166481018066
43.7749862670898
46.3499870300293
52.453685760498
52.1675758361816
56.6499824523926
72.9583129882813
85.2610855102539
79.729606628418
72.5768280029297
68.1897964477539
61.1323890686035
67.9990539550781
81.4462738037109
80.8740463256836
80.8740463256836
91.5555267333984
101.855522155762
110.915702819824
117.114776611328
109.199035644531
94.1305236816406
80.8740463256836
63.9934997558594
57.5083160400391
71.8138656616211
88.5036773681641
89.4573822021484
82.876823425293
82.876823425293
90.9833068847656
96.3240432739258
86.9777526855469
79.2527542114258
74.5796051025391
55.6009063720703
52.7397994995117
68.3805313110352
70.8601608276367
76.296272277832
79.2527542114258
62.8490524291992
44.1564674377441
28.4203605651855
17.1666603088379
9.537034034729
8.20184898376465
22.2212886810303
46.3499870300293
66.854606628418
60.8462753295898
31.3768424987793
14.8777732849121
6.58055353164673
-4.38703584671021
-1.52592539787292
5.91296100616455
11.3490705490112
22.7935104370117
38.148136138916
50.7370223999023
47.7805404663086
33.6657295227051
24.4148063659668
20.1231422424316
12.1120328903198
-1.04907369613647
-7.0574049949646
-7.53425693511963
-11.4444408416748
-25.5592517852783
-43.7749862670898
-49.4018363952637
-54.6472053527832
-65.6147918701172
-71.5277557373047
-73.2444229125977
-76.1055297851563
-79.1573791503906
-78.5851593017578
-85.1657104492188
-93.6536712646484
-101.37866973877
-109.00830078125
-101.855522155762
-95.6564483642578
-85.1657104492188
-57.9851684570313
-46.0638732910156
-55.5055389404297
-69.0481262207031
-75.0564575195313
-76.2009048461914
-81.5416412353516
-83.7351608276367
-81.7323837280273
-82.876823425293
-79.6342315673828
-69.1434936523438
-54.8379440307617
-47.3990592956543
-57.6036834716797
-58.5573883056641
-55.4101676940918
-69.0481262207031
-74.2934951782227
-72.6721954345703
-75.4379425048828
-70.3833084106445
-63.8981285095215
-70.2879409790039
-77.9175643920898
-68.3805313110352
-58.8434982299805
-60.5601654052734
-58.0805358886719
-52.0722045898438
-36.2407302856445
-16.9759197235107
-24.9870281219482
-41.6768379211426
-41.5814666748047
-39.6740608215332
-43.7749862670898
-40.3416519165039
-21.0768451690674
-8.96481227874756
-13.5425882339478
-13.1611070632935
-4.67314672470093
5.05462789535522
11.9212923049927
12.8749961853027
16.5944385528564
22.2212886810303
21.0768451690674
10.6814785003662
5.05462789535522
18.3111057281494
32.04443359375
29.8509159088135
17.8342533111572
13.256477355957
14.9731435775757
12.7796258926392
20.3138828277588
32.4259147644043
29.9462871551514
19.4555492401123
12.4935140609741
13.3518476486206
14.0194396972656
12.6842555999756
18.0249938964844
26.3222141265869
24.7962875366211
24.9870281219482
40.0555419921875
48.1620216369629
42.3444290161133
39.197208404541
35.4777679443359
29.4694347381592
25.7499923706055
26.9898052215576
38.4342460632324
54.2657241821289
58.9388694763184
48.4481315612793
38.148136138916
35.9546165466309
39.0064697265625
39.197208404541
29.0879535675049
32.1398048400879
45.5870208740234
36.0499877929688
26.5129547119141
29.3740653991699
18.9786968231201
11.5398111343384
27.5620288848877
43.7749862670898
45.6823921203613
55.4101676940918
69.0481262207031
61.7999801635742
44.0610961914063
28.6111011505127
13.0657367706299
9.25092315673828
18.2157344818115
17.1666603088379
13.256477355957
11.9212923049927
2.09814739227295
0.381481349468231
10.9675893783569
14.7824029922485
11.5398111343384
16.2129573822021
23.7472152709961
9.9185152053833
-12.3981437683105
-16.1175880432129
-14.7824029922485
-20.5999927520752
-24.7962875366211
-20.2185115814209
-14.2101802825928
-20.0277709960938
-34.6194343566895
-46.5407257080078
-49.2110939025879
-41.1046180725098
-34.2379531860352
-34.810173034668
-28.3249912261963
-13.4472179412842
-12.8749961853027
-31.4722118377686
-42.2490615844727
-32.9027671813965
-17.5481433868408
-8.77407169342041
-13.8286991119385
-21.839807510376
-19.360179901123
-18.9786968231201
-27.2759170532227
-35.0009155273438
-38.8157272338867
-38.2435073852539
-37.9573936462402
-35.8592491149902
-24.7962875366211
-15.0685138702393
-8.48795986175537
0.0953703373670578
7.72499752044678
16.4990692138672
16.1175880432129
4.67314672470093
-2.00277709960938
5.43610954284668
16.022216796875
13.5425882339478
9.9185152053833
11.8259220123291
6.29444265365601
0.667592406272888
3.24259161949158
10.3953666687012
21.4583263397217
28.1342506408691
27.943510055542
23.7472152709961
12.8749961853027
13.6379585266113
26.7036952972412
28.6111011505127
28.0388793945313
22.7935104370117
4.38703584671021
-1.33518481254578
3.71944332122803
2.5749990940094
1.81203651428223
7.72499752044678
14.7824029922485
10.3953666687012
10.1092557907104
18.787956237793
4.57777643203735
-18.3111057281494
-22.2212886810303
-18.1203651428223
-14.9731435775757
-14.5916624069214
-15.9268465042114
-8.0111083984375
3.8148136138916
0.286111027002335
-10.5861072540283
-20.1231422424316
-24.4148063659668
-6.38981294631958
10.3953666687012
10.5861072540283
21.1722145080566
27.943510055542
17.0712909698486
11.635181427002
13.6379585266113
17.0712909698486
25.3685111999512
29.4694347381592
19.7416610717773
8.10647869110107
3.43333220481873
-3.147221326828
-6.77129411697388
2.47962880134583
15.8314762115479
16.6898097991943
8.3925895690918
2.47962880134583
1.14444410800934
1.23981440067291
-4.29166507720947
-6.58055353164673
-4.10092449188232
-10.4907369613647
-22.7935104370117
-31.6629524230957
-19.9324016571045
-0.9537034034729
4.86388731002808
15.0685138702393
8.48795986175537
-16.9759197235107
-16.6898097991943
-10.7768487930298
-16.7851791381836
-10.1092557907104
0.762962698936462
5.91296100616455
-2.47962880134583
-18.3111057281494
-21.2675857543945
-16.30832862854
-10.2999963760376
-6.6759238243103
1.14444410800934
9.06018257141113
9.44166374206543
11.0629596710205
12.9703664779663
9.72777462005615
2.5749990940094
6.1037015914917
10.7768487930298
-0.190740674734116
-13.6379585266113
-15.9268465042114
-8.0111083984375
-1.9074068069458
1.04907369613647
4.29166507720947
1.23981440067291
4.7685170173645
9.72777462005615
3.24259161949158
0.762962698936462
1.81203651428223
2.00277709960938
6.1037015914917
5.53147983551025
-1.04907369613647
-8.20184898376465
-16.30832862854
-23.3657341003418
-12.4935140609741
7.53425693511963
6.48518323898315
2.38425850868225
6.77129411697388
-1.52592539787292
-14.7824029922485
-25.3685111999512
-30.6138782501221
-33.6657295227051
-37.6712837219238
-26.9898052215576
-17.357400894165
-20.409252166748
-30.70924949646
-56.5546112060547
-100.234230041504
-158.410140991211
-193.506423950195
-183.206420898438
-175.672164916992
-188.737899780273
-192.075866699219
-157.837905883789
-90.1249694824219
7.34351634979248
182.157348632813
397.503570556641
603.408142089844
852.61083984375
1066.14501953125
1133.28576660156
1117.54968261719
1064.619140625
916.890441894531
691.148864746094
480.475769042969
280.00732421875
61.99072265625
-136.379592895508
-317.583221435547
-491.157257080078
-598.544250488281
-613.517395019531
-596.827575683594
-574.320190429688
-535.409057617188
-507.274841308594
-488.200775146484
-475.325775146484
-480.380401611328
-469.222076416016
-442.32763671875
-412.667449951172
-364.791564941406
-301.942504882813
-240.142517089844
-209.814743041992
-213.72492980957
-223.357330322266
-243.861953735352
-265.511016845703
-255.401763916016
-224.024932861328
-188.0703125
-143.055511474609
-101.760154724121
-84.0212707519531
-80.111083984375
-73.2444229125977
-77.4407196044922
-94.1305236816406
-98.0407104492188
-82.2092361450195
-55.6962776184082
-36.6222114562988
-25.2731399536133
-8.58333015441895
-7.34351634979248
-28.8018417358398
-40.3416519165039
-31.3768424987793
-27.7527694702148
-24.2240657806396
3.91018390655518
36.1453590393066
53.8842430114746
60.0833129882813
49.6879463195801
39.0064697265625
37.0036926269531
39.4833221435547
47.6851692199707
43.0120239257813
45.4916534423828
62.7536849975586
57.2222023010254
57.6036834716797
74.5796051025391
68.9527587890625
60.0833129882813
72.3860855102539
85.6425628662109
85.7379379272461
80.4925689697266
78.394416809082
82.3999710083008
88.3129348754883
94.2258987426758
99.5666351318359
103.667556762695
107.005523681641
105.098114013672
88.3129348754883
65.3286819458008
62.9444236755371
74.5796051025391
80.3971939086914
91.3647842407227
93.7490463256836
73.5305328369141
63.6120147705078
71.6231231689453
74.3888626098633
72.3860855102539
71.1462707519531
67.1407165527344
56.8407211303711
41.1999855041504
41.6768379211426
52.7397994995117
55.4101676940918
60.0833129882813
69.7157211303711
78.7759017944336
86.1194152832031
81.0647888183594
70.4786834716797
68.1897964477539
67.5222015380859
76.296272277832
99.5666351318359
115.016632080078
113.586074829102
105.002746582031
94.6073760986328
85.1657104492188
82.4953460693359
81.5416412353516
81.6370086669922
92.6045989990234
101.187927246094
93.4629364013672
88.2175674438477
88.3129348754883
72.0999755859375
46.5407257080078
25.3685111999512
15.1638841629028
8.77407169342041
-2.67036962509155
0.0953703373670578
14.4009208679199
22.6981410980225
20.9814739227295
7.34351634979248
2.76573991775513
3.8148136138916
-9.537034034729
-10.8722190856934
11.8259220123291
25.6546211242676
24.7962875366211
39.1018409729004
56.2685012817383
48.2573928833008
48.6388740539551
66.2823867797852
52.5490570068359
23.5564746856689
13.0657367706299
11.8259220123291
18.9786968231201
34.810173034668
44.7286911010742
41.8675804138184
34.2379531860352
20.3138828277588
3.43333220481873
-7.82036781311035
-24.9870281219482
-39.3879508972168
-41.6768379211426
-35.4777679443359
-18.8833274841309
-12.8749961853027
-25.9407329559326
-44.9194297790527
-66.6638641357422
-85.1657104492188
-102.332374572754
-114.158294677734
-109.675888061523
-107.95922088623
-111.011077880859
-107.005523681641
-109.389778137207
-107.005523681641
-93.4629364013672
-85.6425628662109
-76.8684921264648
-62.9444236755371
-53.3120193481445
-51.7860946655273
-51.0231323242188
-43.679615020752
-39.864803314209
-40.1509132385254
-41.1046180725098
-57.5083160400391
-70.7647933959961
-61.1323890686035
-48.2573928833008
-32.9027671813965
-19.074068069458
-24.0333251953125
-26.7036952972412
-13.0657367706299
-12.2074031829834
-31.7583236694336
-37.9573936462402
-29.278694152832
-23.1749935150146
-20.409252166748
-25.9407329559326
-20.9814739227295
0.9537034034729
5.53147983551025
-3.05185079574585
-1.43055510520935
-0.381481349468231
-6.1037015914917
-5.81759071350098
-4.29166507720947
-12.4935140609741
-21.4583263397217
-27.3712882995605
-30.8046188354492
-28.6111011505127
-30.1370277404785
-29.5648059844971
-14.9731435775757
-13.5425882339478
-24.9870281219482
-24.7962875366211
-23.2703628540039
-14.3055505752563
-6.19907188415527
-10.8722190856934
3.71944332122803
21.1722145080566
12.9703664779663
5.91296100616455
11.1583299636841
10.9675893783569
-0.9537034034729
-11.4444408416748
-7.15277528762817
2.1935179233551
6.48518323898315
13.5425882339478
20.5046234130859
14.5916624069214
11.9212923049927
20.9814739227295
21.4583263397217
14.5916624069214
4.86388731002808
8.10647869110107
31.0907306671143
43.5842437744141
45.8731346130371
43.8703575134277
25.9407329559326
9.82314491271973
8.20184898376465
14.687032699585
17.0712909698486
11.1583299636841
19.9324016571045
33.8564720153809
31.6629524230957
25.4638805389404
22.6981410980225
26.6083240509033
25.7499923706055
11.635181427002
5.34073925018311
6.29444265365601
7.34351634979248
16.1175880432129
21.1722145080566
17.1666603088379
19.8370304107666
22.2212886810303
16.9759197235107
17.357400894165
15.0685138702393
11.0629596710205
18.1203651428223
30.995361328125
35.7638778686523
26.5129547119141
27.1805477142334
29.278694152832
6.00833129882813
-6.48518323898315
-4.57777643203735
-13.256477355957
-11.5398111343384
-2.1935179233551
-2.00277709960938
-9.15555286407471
-15.35462474823
-9.06018257141113
-3.91018390655518
-7.34351634979248
-4.38703584671021
-4.1962947845459
-10.2999963760376
-8.67870044708252
-4.1962947845459
0.47685170173645
5.43610954284668
6.48518323898315
6.29444265365601
8.58333015441895
8.48795986175537
7.72499752044678
8.77407169342041
6.77129411697388
9.06018257141113
9.15555286407471
7.82036781311035
10.7768487930298
11.635181427002
18.787956237793
19.9324016571045
5.34073925018311
-4.10092449188232
1.71666610240936
0.47685170173645
-11.7305517196655
-6.86666440963745
-1.71666610240936
-10.8722190856934
-11.9212923049927
-17.357400894165
-29.6601753234863
-35.7638778686523
-45.5870208740234
-48.4481315612793
-48.4481315612793
-52.6444282531738
-45.300910949707
-30.8999900817871
-20.6953639984131
-27.4666576385498
-42.9166526794434
-36.8129501342773
-21.0768451690674
-26.3222141265869
-32.04443359375
-27.0851764678955
-21.1722145080566
-9.9185152053833
-4.86388731002808
-1.9074068069458
-1.04907369613647
-12.6842555999756
-15.4499950408936
-7.0574049949646
-2.67036962509155
-0.572222054004669
-4.10092449188232
-0.0953703373670578
6.58055353164673
-10.2999963760376
-19.1694374084473
-16.1175880432129
-25.5592517852783
-19.4555492401123
-14.2101802825928
-22.8888816833496
-19.4555492401123
-12.7796258926392
-4.95925760269165
-9.63240432739258
-25.2731399536133
-26.0361022949219
-25.9407329559326
-30.1370277404785
-29.278694152832
-19.7416610717773
-7.91573810577393
-8.29721927642822
-1.9074068069458
12.7796258926392
19.2648086547852
22.3166599273682
17.6435127258301
16.4036979675293
25.2731399536133
21.2675857543945
9.34629344940186
6.48518323898315
8.67870044708252
16.4036979675293
32.6166572570801
37.7666549682617
39.3879508972168
52.1675758361816
42.2490615844727
24.0333251953125
35.7638778686523
43.5842437744141
24.2240657806396
16.4036979675293
23.0796222686768
22.6981410980225
28.1342506408691
27.2759170532227
15.35462474823
9.63240432739258
-1.52592539787292
-15.7361059188843
-21.5536975860596
-31.2814712524414
-44.251838684082
-49.4018363952637
-41.0092468261719
-29.1833248138428
-26.5129547119141
-28.8972129821777
-33.9518394470215
-36.5268402099609
-30.4231376647949
-20.8861045837402
-16.5944385528564
-16.7851791381836
-11.2537002563477
-4.48240613937378
-0.762962698936462
-8.48795986175537
-16.2129573822021
-8.20184898376465
-7.72499752044678
-10.204626083374
2.8611102104187
15.8314762115479
16.8805503845215
6.96203470230103
2.67036962509155
16.30832862854
17.738883972168
-7.0574049949646
-18.0249938964844
-0.286111027002335
6.29444265365601
-1.23981440067291
2.47962880134583
11.3490705490112
27.5620288848877
40.2462844848633
35.9546165466309
24.7009181976318
3.8148136138916
-2.09814739227295
9.63240432739258
-0.381481349468231
-6.77129411697388
13.1611070632935
16.7851791381836
2.47962880134583
-3.62407302856445
-8.20184898376465
-14.5916624069214
-13.3518476486206
-2.8611102104187
-0.572222054004669
-4.1962947845459
-8.0111083984375
-1.52592539787292
25.9407329559326
27.1805477142334
16.5944385528564
37.7666549682617
45.0148010253906
39.864803314209
51.2138710021973
50.1647987365723
38.4342460632324
36.431468963623
37.5759124755859
34.810173034668
14.7824029922485
-39.864803314209
-119.117553710938
-168.80549621582
-171.666610717773
-173.192535400391
-190.263824462891
-195.127716064453
-165.372161865234
-105.288856506348
-4.10092449188232
173.09716796875
392.448944091797
610.9423828125
861.480285644531
1078.73388671875
1143.29968261719
1110.87365722656
1047.07092285156
901.821960449219
696.680358886719
498.786865234375
291.165649414063
64.5657196044922
-152.306427001953
-351.630432128906
-513.760009765625
-606.4599609375
-618.953491210938
-588.625732421875
-570.123901367188
-540.84521484375
-493.827606201172
-477.137817382813
-484.004486083984
-487.819274902344
-475.802612304688
-453.867462158203
-431.264678955078
-382.721160888672
-308.618408203125
-258.930480957031
-242.145294189453
-220.877700805664
-216.013824462891
-238.616592407227
-241.096221923828
-226.59992980957
-213.152709960938
-183.206420898438
-144.486068725586
-107.768486022949
-75.7240524291992
-64.1842422485352
-77.1546020507813
-94.9888610839844
-114.062927246094
-124.362922668457
-106.719413757324
-88.3129348754883
-62.7536849975586
-16.6898097991943
11.635181427002
18.0249938964844
12.6842555999756
4.86388731002808
0.286111027002335
-7.82036781311035
-7.15277528762817
-1.62129580974579
6.58055353164673
25.7499923706055
35.382396697998
26.7036952972412
11.7305517196655
5.34073925018311
7.34351634979248
8.48795986175537
8.67870044708252
7.53425693511963
13.8286991119385
26.5129547119141
24.2240657806396
20.5046234130859
33.761100769043
47.9712791442871
51.404613494873
42.8212814331055
34.2379531860352
36.9083213806152
38.2435073852539
43.0120239257813
52.6444282531738
56.1731300354004
67.1407165527344
84.9749755859375
93.1768188476563
89.3620071411133
86.3101577758789
89.7434921264648
92.318489074707
91.1740417480469
89.0758972167969
85.1657104492188
77.8221969604492
74.5796051025391
80.6833038330078
88.7897872924805
88.5036773681641
86.5009002685547
93.0814514160156
92.4138565063477
71.8138656616211
54.2657241821289
61.8953514099121
83.8305282592773
94.416633605957
89.7434921264648
101.569412231445
121.883293151855
115.684219360352
94.6073760986328
74.8657150268555
62.7536849975586
65.0425720214844
72.3860855102539
82.3046035766602
94.3212661743164
104.335151672363
120.929588317871
131.134216308594
114.444404602051
91.8416366577148
78.1083068847656
67.3314590454102
66.6638641357422
67.6175689697266
72.6721954345703
91.5555267333984
102.427742004395
109.00830078125
121.311073303223
114.25366973877
92.4138565063477
81.5416412353516
79.2527542114258
77.1546020507813
75.247200012207
78.5851593017578
75.9147872924805
63.1351661682129
61.6092376708984
61.6092376708984
46.3499870300293
30.995361328125
26.4175834655762
27.5620288848877
32.6166572570801
41.5814666748047
46.1592445373535
45.300910949707
39.7694320678711
33.8564720153809
33.8564720153809
30.2323970794678
24.891658782959
32.2351760864258
35.0962867736816
18.4064750671387
6.48518323898315
-0.858333051204681
-15.7361059188843
-29.9462871551514
-44.9194297790527
-58.7481307983398
-69.9064559936523
-86.1194152832031
-96.800895690918
-91.5555267333984
-81.0647888183594
-76.9638671875
-82.5907135009766
-99.1851501464844
-121.215698242188
-130.943481445313
-126.270332336426
-131.038848876953
-144.581436157227
-146.774948120117
-134.853652954102
-120.643478393555
-115.588851928711
-124.553665161133
-132.374038696289
-122.646255493164
-111.297187805176
-111.011077880859
-109.103668212891
-96.0379333496094
-83.4490509033203
-80.2064590454102
-76.0101623535156
-68.5712738037109
-65.9009017944336
-66.1870193481445
-61.8953514099121
-45.7777633666992
-32.9981384277344
-32.2351760864258
-21.2675857543945
-17.0712909698486
-36.1453590393066
-49.783317565918
-45.4916534423828
-26.5129547119141
-10.9675893783569
-10.5861072540283
-4.67314672470093
4.57777643203735
4.00555419921875
-9.44166374206543
-22.0305480957031
-15.4499950408936
-7.6296272277832
-2.67036962509155
-2.95648050308228
-23.2703628540039
-29.8509159088135
-13.256477355957
-3.8148136138916
-2.67036962509155
-4.1962947845459
-4.38703584671021
5.05462789535522
15.35462474823
20.9814739227295
14.5916624069214
-4.00555419921875
-11.7305517196655
-8.58333015441895
0.190740674734116
12.8749961853027
12.588885307312
12.3981437683105
13.9240694046021
8.3925895690918
8.0111083984375
5.05462789535522
5.34073925018311
9.72777462005615
3.33796191215515
-1.23981440067291
-0.0953703373670578
1.23981440067291
6.58055353164673
9.537034034729
3.91018390655518
-5.24536848068237
-0.190740674734116
11.2537002563477
8.86944198608398
12.8749961853027
18.5972156524658
8.48795986175537
1.71666610240936
2.38425850868225
-1.43055510520935
0
22.6981410980225
39.9601707458496
30.6138782501221
11.0629596710205
6.00833129882813
28.0388793945313
46.6360969543457
59.1296119689941
70.6694183349609
59.2249794006348
45.2055397033691
34.2379531860352
16.5944385528564
10.5861072540283
14.4962921142578
14.687032699585
1.23981440067291
-8.58333015441895
7.43888664245605
19.8370304107666
14.5916624069214
9.06018257141113
1.04907369613647
-4.38703584671021
3.24259161949158
15.0685138702393
12.588885307312
-0.762962698936462
-4.29166507720947
5.24536848068237
13.8286991119385
22.4120292663574
34.5240631103516
32.2351760864258
26.6083240509033
25.4638805389404
17.357400894165
21.9351787567139
23.9379558563232
8.58333015441895
1.33518481254578
6.48518323898315
18.0249938964844
26.0361022949219
22.8888816833496
14.3055505752563
5.91296100616455
1.43055510520935
-0.762962698936462
-2.00277709960938
-6.96203470230103
-9.537034034729
1.9074068069458
3.71944332122803
-11.4444408416748
-10.6814785003662
-0.190740674734116
-5.43610954284668
-8.3925895690918
-4.67314672470093
-15.2592544555664
-19.1694374084473
-4.29166507720947
-6.86666440963745
-23.2703628540039
-25.3685111999512
-26.7990646362305
-30.8046188354492
-15.9268465042114
5.81759071350098
8.58333015441895
1.43055510520935
-1.52592539787292
-2.76573991775513
-2.00277709960938
3.8148136138916
6.19907188415527
3.33796191215515
10.4907369613647
12.1120328903198
3.62407302856445
11.4444408416748
25.9407329559326
29.4694347381592
26.8944358825684
7.53425693511963
-12.2074031829834
-1.04907369613647
10.7768487930298
10.4907369613647
9.82314491271973
6.38981294631958
13.6379585266113
20.3138828277588
10.204626083374
6.29444265365601
8.20184898376465
0.9537034034729
2.28888821601868
9.06018257141113
7.43888664245605
7.82036781311035
6.77129411697388
-1.62129580974579
-15.8314762115479
-35.7638778686523
-42.2490615844727
-31.9490642547607
-18.8833274841309
-12.2074031829834
-10.6814785003662
-0.381481349468231
6.86666440963745
3.71944332122803
-2.1935179233551
-14.4962921142578
-13.9240694046021
4.86388731002808
4.7685170173645
-6.38981294631958
4.48240613937378
15.6407356262207
11.635181427002
7.6296272277832
-2.09814739227295
-5.81759071350098
4.48240613937378
9.25092315673828
11.0629596710205
10.9675893783569
6.19907188415527
-5.53147983551025
-16.6898097991943
-23.0796222686768
-32.9027671813965
-28.2296199798584
-21.839807510376
-34.4286918640137
-46.9222068786621
-55.9823913574219
-51.9768333435059
-38.2435073852539
-41.8675804138184
-48.8296127319336
-49.8786888122559
-55.5055389404297
-53.5027618408203
-51.1185035705566
-55.219425201416
-46.5407257080078
-33.0935096740723
-39.864803314209
-55.5055389404297
-53.4073905944824
-47.1129493713379
-38.3388748168945
-22.7935104370117
-23.7472152709961
-23.7472152709961
-5.53147983551025
6.58055353164673
7.72499752044678
11.5398111343384
11.4444408416748
7.82036781311035
17.4527721405029
25.9407329559326
21.839807510376
14.4009208679199
5.1499981880188
0.667592406272888
0.286111027002335
7.53425693511963
21.839807510376
25.3685111999512
24.6055469512939
31.3768424987793
42.2490615844727
43.7749862670898
36.5268402099609
32.4259147644043
20.9814739227295
10.3953666687012
12.8749961853027
13.0657367706299
17.357400894165
24.4148063659668
14.3055505752563
5.1499981880188
12.302773475647
12.2074031829834
3.33796191215515
3.24259161949158
-0.0953703373670578
-12.3981437683105
-9.9185152053833
3.91018390655518
0.9537034034729
-16.4036979675293
-18.5018463134766
-8.77407169342041
-6.00833129882813
-2.47962880134583
2.47962880134583
4.48240613937378
0.47685170173645
-15.9268465042114
-29.8509159088135
-18.9786968231201
-0.381481349468231
6.48518323898315
13.256477355957
19.7416610717773
18.1203651428223
21.839807510376
32.2351760864258
30.1370277404785
25.7499923706055
30.8999900817871
2.28888821601868
-72.1953506469727
-148.396255493164
-196.081420898438
-203.138824462891
-195.795303344727
-193.411056518555
-175.386047363281
-133.518478393555
-76.3916397094727
6.96203470230103
160.126800537109
365.936004638672
584.620178222656
832.201599121094
1030.85803222656
1092.94409179688
1078.63854980469
1041.06262207031
916.69970703125
691.911804199219
476.088745117188
299.462860107422
106.051818847656
-101.187927246094
-287.255462646484
-441.850769042969
-548.379455566406
-577.467407226563
-543.515563964844
-509.659088134766
-488.105407714844
-462.546142578125
-467.219299316406
-483.146148681641
-472.083190917969
-457.873016357422
-436.128570556641
-395.691528320313
-346.575805664063
-277.241577148438
-212.961975097656
-185.686050415039
-180.822158813477
-197.893447875977
-225.360107421875
-239.2841796875
-246.436950683594
-237.758255004883
-202.85270690918
-157.456436157227
-113.20458984375
-77.4407196044922
-67.903678894043
-78.5851593017578
-93.5583038330078
-119.880516052246
-128.559219360352
-100.806449890137
-65.4240493774414
-28.1342506408691
0
15.35462474823
28.2296199798584
18.5018463134766
-3.5287024974823
-13.6379585266113
-13.1611070632935
-2.47962880134583
4.1962947845459
13.4472179412842
37.5759124755859
49.4018363952637
45.300910949707
42.3444290161133
41.1999855041504
47.8759117126465
58.2712783813477
55.887020111084
52.9305381774902
63.8027572631836
73.9120101928711
70.4786834716797
65.4240493774414
65.2333145141602
63.1351661682129
66.1870193481445
68.3805313110352
68.5712738037109
71.1462707519531
59.5110931396484
44.0610961914063
46.2546157836914
54.2657241821289
58.9388694763184
69.4296035766602
79.3481216430664
83.1629333496094
83.3536758422852
73.9120101928711
69.1434936523438
72.1953506469727
65.6147918701172
65.9962768554688
75.7240524291992
74.3888626098633
75.6286773681641
90.4110794067383
92.0323791503906
80.0157165527344
77.8221969604492
79.5388641357422
80.0157165527344
85.9286727905273
86.6916351318359
79.729606628418
83.8305282592773
91.3647842407227
92.4138565063477
95.751823425293
84.4981231689453
62.0860900878906
52.8351669311523
49.5925750732422
50.355541229248
61.8953514099121
72.3860855102539
74.6749725341797
70.7647933959961
66.854606628418
65.9009017944336
59.4157218933105
49.1157264709473
37.9573936462402
24.5101776123047
18.4064750671387
23.0796222686768
30.5185089111328
38.4342460632324
51.4999847412109
59.1296119689941
55.4101676940918
40.0555419921875
17.1666603088379
7.15277528762817
18.1203651428223
29.0879535675049
28.7064723968506
45.6823921203613
72.4814605712891
73.8166427612305
64.1842422485352
54.7425765991211
44.6333198547363
35.6685066223145
25.4638805389404
25.0823993682861
32.9981384277344
36.431468963623
37.0036926269531
43.1073951721191
44.3472061157227
28.7064723968506
7.15277528762817
-4.7685170173645
-1.9074068069458
5.34073925018311
15.4499950408936
29.0879535675049
26.226842880249
10.2999963760376
-2.09814739227295
-15.2592544555664
-19.7416610717773
-21.7444381713867
-38.8157272338867
-49.5925750732422
-53.4073905944824
-57.3175735473633
-53.7888717651367
-53.3120193481445
-55.6962776184082
-57.1268348693848
-63.1351661682129
-76.5823822021484
-92.318489074707
-93.8444137573242
-91.3647842407227
-90.6971969604492
-82.876823425293
-86.2147903442383
-93.6536712646484
-96.6101531982422
-115.970336914063
-129.131439208984
-114.062927246094
-89.5527496337891
-81.16015625
-84.6888580322266
-75.247200012207
-75.8194198608398
-96.3240432739258
-101.474044799805
-93.1768188476563
-79.06201171875
-64.0888671875
-62.3722038269043
-54.6472053527832
-42.8212814331055
-46.7314682006836
-44.0610961914063
-33.3796195983887
-31.3768424987793
-28.2296199798584
-25.5592517852783
-35.0009155273438
-41.0092468261719
-30.6138782501221
-17.8342533111572
-14.0194396972656
-7.34351634979248
6.00833129882813
6.19907188415527
-4.95925760269165
-11.3490705490112
-15.5453653335571
-17.0712909698486
-12.588885307312
-13.3518476486206
-17.738883972168
-13.7333288192749
-7.0574049949646
-6.29444265365601
-15.1638841629028
-27.0851764678955
-29.6601753234863
-27.7527694702148
-26.1314735412598
-21.0768451690674
-13.4472179412842
-9.72777462005615
-7.82036781311035
-4.57777643203735
3.24259161949158
18.1203651428223
21.0768451690674
15.1638841629028
15.1638841629028
13.1611070632935
9.72777462005615
4.7685170173645
-6.00833129882813
-9.06018257141113
3.33796191215515
16.2129573822021
28.9925842285156
37.6712837219238
28.8972129821777
30.2323970794678
38.6249885559082
20.7907333374023
7.43888664245605
12.8749961853027
10.204626083374
20.7907333374023
41.5814666748047
37.9573936462402
36.2407302856445
39.5786895751953
23.2703628540039
18.9786968231201
31.6629524230957
41.2953567504883
50.355541229248
46.0638732910156
47.9712791442871
65.6147918701172
65.137939453125
45.7777633666992
19.8370304107666
7.53425693511963
8.0111083984375
-3.147221326828
-8.67870044708252
-3.33796191215515
2.8611102104187
9.34629344940186
3.8148136138916
1.52592539787292
7.91573810577393
5.34073925018311
6.58055353164673
10.4907369613647
13.6379585266113
16.4990692138672
2.28888821601868
-8.29721927642822
-3.8148136138916
-3.05185079574585
2.5749990940094
13.8286991119385
17.2620315551758
11.4444408416748
0.0953703373670578
0.0953703373670578
9.15555286407471
12.588885307312
16.6898097991943
11.1583299636841
-5.7222204208374
-9.63240432739258
-4.67314672470093
-6.00833129882813
-3.24259161949158
-0.9537034034729
-1.62129580974579
7.72499752044678
12.4935140609741
22.7935104370117
55.7916488647461
75.0564575195313
67.1407165527344
49.4972076416016
36.0499877929688
30.8999900817871
22.4120292663574
14.2101802825928
26.1314735412598
37.1944313049316
22.3166599273682
2.47962880134583
-0.286111027002335
0.667592406272888
0
7.72499752044678
10.204626083374
10.7768487930298
15.35462474823
0.9537034034729
-13.256477355957
-8.10647869110107
-8.3925895690918
-10.4907369613647
-8.58333015441895
-12.0166625976563
-10.5861072540283
-8.0111083984375
-7.15277528762817
-5.43610954284668
-6.29444265365601
1.23981440067291
4.95925760269165
-3.05185079574585
-4.48240613937378
-3.147221326828
-2.09814739227295
1.71666610240936
2.67036962509155
6.19907188415527
12.588885307312
12.0166625976563
13.3518476486206
20.6953639984131
13.0657367706299
-6.29444265365601
-13.256477355957
-13.5425882339478
-7.0574049949646
9.15555286407471
16.6898097991943
16.2129573822021
12.0166625976563
2.00277709960938
-3.5287024974823
-1.14444410800934
-7.34351634979248
-20.1231422424316
-21.6490669250488
-26.5129547119141
-31.4722118377686
-34.6194343566895
-45.2055397033691
-39.6740608215332
-22.8888816833496
-16.8805503845215
-12.588885307312
-14.4009208679199
-19.8370304107666
-15.8314762115479
-12.6842555999756
-13.6379585266113
-24.1286964416504
-40.7231369018555
-42.4398002624512
-34.3333206176758
-28.8972129821777
-23.2703628540039
-15.8314762115479
-10.1092557907104
-6.38981294631958
-17.8342533111572
-49.4018363952637
-52.2629470825195
-18.0249938964844
-3.5287024974823
-8.96481227874756
-5.81759071350098
4.57777643203735
17.5481433868408
23.2703628540039
22.9842510223389
26.1314735412598
37.7666549682617
49.6879463195801
43.9657249450684
33.9518394470215
23.9379558563232
11.9212923049927
10.1092557907104
11.635181427002
14.7824029922485
15.4499950408936
9.63240432739258
2.47962880134583
-7.82036781311035
-8.10647869110107
-5.62685012817383
-15.4499950408936
-20.1231422424316
-20.1231422424316
-23.1749935150146
-19.2648086547852
-17.6435127258301
-24.7009181976318
-19.8370304107666
-10.8722190856934
-13.3518476486206
-16.2129573822021
-14.687032699585
-15.6407356262207
-16.1175880432129
-6.58055353164673
-0.0953703373670578
-2.38425850868225
2.67036962509155
8.86944198608398
8.58333015441895
4.95925760269165
4.00555419921875
4.86388731002808
0.190740674734116
-2.00277709960938
2.1935179233551
2.5749990940094
-6.00833129882813
-2.09814739227295
9.82314491271973
-2.76573991775513
-17.738883972168
-17.8342533111572
-16.8805503845215
-11.4444408416748
-13.9240694046021
-22.6027698516846
-29.1833248138428
-38.0527648925781
-37.1944313049316
-52.7397994995117
-103.76293182373
-165.372161865234
-210.100860595703
-211.054565429688
-191.217529296875
-193.411056518555
-192.648086547852
-154.118469238281
-95.3703384399414
-31.3768424987793
77.2499771118164
252.063812255859
454.058197021484
682.470153808594
906.495056152344
1014.16821289063
1003.00988769531
951.509887695313
863.769165039063
713.274780273438
518.242431640625
344.191558837891
186.639755249023
-8.3925895690918
-201.899002075195
-348.673950195313
-448.717437744141
-492.397064208984
-496.974853515625
-483.622985839844
-455.774841308594
-431.264678955078
-428.117462158203
-446.333190917969
-457.30078125
-454.916534423828
-447.382263183594
-410.187835693359
-352.48876953125
-295.457305908203
-237.662887573242
-193.220306396484
-177.674942016602
-190.454574584961
-218.207336425781
-235.373992919922
-235.183258056641
-222.308258056641
-185.399948120117
-131.897186279297
-92.1277465820313
-70.0018310546875
-55.4101676940918
-60.4647941589355
-77.9175643920898
-82.3046035766602
-80.6833038330078
-79.6342315673828
-65.6147918701172
-46.2546157836914
-29.6601753234863
-8.3925895690918
4.10092449188232
0
0.286111027002335
1.04907369613647
-6.86666440963745
-1.23981440067291
16.8805503845215
29.4694347381592
39.864803314209
47.8759117126465
56.8407211303711
65.137939453125
55.0286865234375
39.4833221435547
35.5731353759766
30.70924949646
30.4231376647949
46.9222068786621
67.6175689697266
74.6749725341797
77.345344543457
79.5388641357422
73.6259002685547
83.1629333496094
95.4657135009766
90.6971969604492
92.6999740600586
100.806449890137
105.956443786621
110.915702819824
115.970336914063
109.866630554199
92.0323791503906
89.0758972167969
97.6592254638672
92.1277465820313
82.876823425293
90.8879318237305
92.7953414916992
75.3425674438477
74.8657150268555
90.1249694824219
96.800895690918
101.092559814453
103.190704345703
96.4194107055664
84.8796005249023
86.4055252075195
96.6101531982422
88.7897872924805
70.5740509033203
60.6555366516113
54.5518341064453
55.3147964477539
63.7073860168457
67.2360916137695
63.3259048461914
58.652759552002
49.8786888122559
39.6740608215332
38.7203598022461
36.3360977172852
36.1453590393066
55.6009063720703
83.1629333496094
99.5666351318359
92.4138565063477
67.7129440307617
47.017578125
33.0935096740723
13.256477355957
-2.47962880134583
4.57777643203735
19.5509204864502
34.7148017883301
57.6990547180176
66.4731292724609
58.2712783813477
46.5407257080078
33.6657295227051
24.1286964416504
20.1231422424316
21.3629570007324
19.6462898254395
16.022216796875
21.6490669250488
26.8944358825684
23.9379558563232
29.7555465698242
26.8944358825684
-0.0953703373670578
-5.91296100616455
2.47962880134583
-5.05462789535522
-0.762962698936462
6.77129411697388
10.1092557907104
22.2212886810303
29.278694152832
34.6194343566895
39.9601707458496
40.7231369018555
47.2083168029785
52.6444282531738
41.6768379211426
28.9925842285156
32.6166572570801
36.5268402099609
23.6518440246582
1.62129580974579
-22.125919342041
-47.7805404663086
-66.3777542114258
-74.198127746582
-74.5796051025391
-64.8518295288086
-52.453685760498
-46.6360969543457
-38.148136138916
-41.1046180725098
-68.6666412353516
-92.8907089233398
-98.9944152832031
-101.37866973877
-102.999969482422
-103.572189331055
-107.291633605957
-108.912925720215
-109.199035644531
-115.970336914063
-123.599960327148
-117.305519104004
-102.046264648438
-102.046264648438
-109.96199798584
-105.670333862305
-91.1740417480469
-75.4379425048828
-73.7212753295898
-84.3073806762695
-79.3481216430664
-66.4731292724609
-72.6721954345703
-74.6749725341797
-51.1185035705566
-37.2898025512695
-44.251838684082
-41.5814666748047
-32.5212860107422
-30.5185089111328
-27.7527694702148
-19.7416610717773
-3.5287024974823
8.86944198608398
5.62685012817383
1.33518481254578
-1.14444410800934
-5.81759071350098
-0.572222054004669
0
-13.5425882339478
-15.0685138702393
-14.4962921142578
-25.4638805389404
-25.5592517852783
-20.3138828277588
-31.8536930084229
-41.4860992431641
-30.2323970794678
-14.0194396972656
-2.5749990940094
13.5425882339478
23.4611034393311
15.7361059188843
9.82314491271973
11.8259220123291
7.15277528762817
8.29721927642822
22.6027698516846
29.9462871551514
29.5648059844971
30.70924949646
28.3249912261963
30.70924949646
31.8536930084229
22.125919342041
24.7009181976318
31.3768424987793
24.7962875366211
16.4036979675293
6.58055353164673
5.1499981880188
18.1203651428223
21.5536975860596
14.4009208679199
15.2592544555664
20.5999927520752
21.4583263397217
19.4555492401123
18.3111057281494
18.787956237793
20.8861045837402
26.3222141265869
27.1805477142334
28.2296199798584
44.251838684082
49.783317565918
32.7120246887207
17.4527721405029
10.3953666687012
8.96481227874756
14.4962921142578
22.6981410980225
26.5129547119141
27.1805477142334
33.5703582763672
36.0499877929688
28.1342506408691
22.9842510223389
16.4990692138672
9.44166374206543
9.15555286407471
7.82036781311035
10.2999963760376
14.7824029922485
11.0629596710205
6.48518323898315
7.91573810577393
12.0166625976563
19.360179901123
29.7555465698242
24.2240657806396
3.147221326828
-2.28888821601868
3.5287024974823
1.62129580974579
-2.5749990940094
-9.25092315673828
-12.588885307312
-4.29166507720947
5.43610954284668
13.7333288192749
19.8370304107666
18.1203651428223
17.5481433868408
26.7990646362305
35.0009155273438
32.5212860107422
24.1286964416504
6.58055353164673
-3.62407302856445
1.81203651428223
-4.67314672470093
1.62129580974579
24.1286964416504
22.2212886810303
14.9731435775757
17.4527721405029
16.6898097991943
14.0194396972656
13.8286991119385
9.82314491271973
0.190740674734116
-11.2537002563477
-24.5101776123047
-36.3360977172852
-39.197208404541
-30.0416564941406
-26.226842880249
-33.9518394470215
-31.3768424987793
-27.0851764678955
-35.5731353759766
-34.7148017883301
-24.891658782959
-30.4231376647949
-29.8509159088135
-14.7824029922485
-20.8861045837402
-37.6712837219238
-38.3388748168945
-30.0416564941406
-27.943510055542
-42.1536903381348
-48.9249839782715
-32.4259147644043
-18.0249938964844
-11.2537002563477
-4.7685170173645
0
4.95925760269165
9.44166374206543
25.3685111999512
42.630542755127
40.5323944091797
38.4342460632324
45.2055397033691
50.9277610778809
43.7749862670898
32.9981384277344
35.0009155273438
29.9462871551514
26.5129547119141
26.8944358825684
14.5916624069214
15.6407356262207
26.5129547119141
28.7064723968506
30.4231376647949
22.5074005126953
9.15555286407471
11.7305517196655
11.8259220123291
2.8611102104187
15.5453653335571
26.8944358825684
11.7305517196655
11.3490705490112
27.8481388092041
32.9027671813965
35.2870254516602
28.5157318115234
9.72777462005615
12.588885307312
22.8888816833496
10.1092557907104
-1.52592539787292
-4.29166507720947
-16.1175880432129
-21.7444381713867
-16.022216796875
-9.63240432739258
0.47685170173645
9.15555286407471
12.3981437683105
11.1583299636841
4.1962947845459
-8.58333015441895
-15.35462474823
-5.34073925018311
0.286111027002335
1.9074068069458
9.44166374206543
2.47962880134583
-7.72499752044678
-7.6296272277832
-5.91296100616455
-7.15277528762817
-15.8314762115479
-24.6055469512939
-30.3277683258057
-39.9601707458496
-44.1564674377441
-39.197208404541
-40.3416519165039
-38.5296173095703
-21.7444381713867
-14.0194396972656
-15.5453653335571
-11.0629596710205
-13.0657367706299
-22.3166599273682
-24.891658782959
-19.8370304107666
-15.2592544555664
-9.9185152053833
-10.4907369613647
-25.177770614624
-40.3416519165039
-47.7805404663086
-50.7370223999023
-46.8268356323242
-40.1509132385254
-39.7694320678711
-39.3879508972168
-30.2323970794678
-24.3194370269775
-21.6490669250488
-8.3925895690918
1.81203651428223
0.572222054004669
-1.04907369613647
-0.190740674734116
-1.71666610240936
-7.43888664245605
-9.44166374206543
-2.67036962509155
0
-9.44166374206543
-15.8314762115479
-23.6518440246582
-26.6083240509033
-8.3925895690918
0.0953703373670578
-1.14444410800934
11.635181427002
15.2592544555664
6.48518323898315
3.8148136138916
13.4472179412842
25.0823993682861
18.6925868988037
7.82036781311035
7.6296272277832
16.2129573822021
24.2240657806396
18.6925868988037
9.44166374206543
8.67870044708252
4.7685170173645
-17.5481433868408
-65.7101669311523
-135.807357788086
-181.966613769531
-193.983276367188
-207.144378662109
-210.482345581055
-191.026794433594
-148.300872802734
-81.7323837280273
25.177770614624
203.234191894531
411.427642822266
640.411804199219
901.4404296875
1080.83203125
1121.55517578125
1095.70983886719
1033.71911621094
893.810852050781
679.990539550781
466.933197021484
278.862884521484
77.5360870361328
-135.807357788086
-327.02490234375
-481.620208740234
-569.933166503906
-573.557250976563
-550.763732910156
-532.45263671875
-494.018371582031
-461.115600585938
-462.546142578125
-474.562805175781
-479.140594482422
-466.456329345703
-433.267456054688
-384.628570556641
-325.308227539063
-271.900848388672
-233.943450927734
-211.912887573242
-205.1416015625
-212.199005126953
-229.079559326172
-239.379547119141
-235.087890625
-215.918441772461
-182.157348632813
-143.723098754883
-109.771263122559
-90.6971969604492
-86.8823776245117
-84.9749755859375
-92.7953414916992
-107.387001037598
-107.673110961914
-96.3240432739258
-77.5360870361328
-54.8379440307617
-35.6685066223145
-18.2157344818115
1.52592539787292
11.2537002563477
-9.72777462005615
-29.6601753234863
-21.839807510376
-12.6842555999756
0.667592406272888
19.360179901123
24.2240657806396
30.995361328125
43.5842437744141
43.5842437744141
41.6768379211426
48.734245300293
44.251838684082
34.4286918640137
48.4481315612793
69.3342361450195
77.7268295288086
80.4925689697266
79.4434967041016
75.4379425048828
70.5740509033203
72.6721954345703
78.5851593017578
73.0536804199219
65.2333145141602
70.6694183349609
79.9203414916992
82.0184936523438
82.0184936523438
89.1712646484375
101.187927246094
101.855522155762
101.283302307129
109.389778137207
101.950889587402
86.3101577758789
74.5796051025391
64.5657196044922
62.5629425048828
63.8981285095215
64.0888671875
67.4268264770508
82.2092361450195
95.6564483642578
90.9833068847656
84.4981231689453
81.9231185913086
71.7184982299805
64.8518295288086
71.2416458129883
79.06201171875
78.7759017944336
75.9147872924805
80.3018264770508
82.4953460693359
72.0046081542969
61.0370178222656
53.7888717651367
44.6333198547363
32.9027671813965
29.5648059844971
44.1564674377441
58.3666496276855
59.1296119689941
58.2712783813477
53.7888717651367
44.6333198547363
39.5786895751953
32.4259147644043
26.9898052215576
31.4722118377686
32.8073959350586
25.6546211242676
27.943510055542
36.2407302856445
35.6685066223145
33.2842483520508
26.4175834655762
15.6407356262207
18.0249938964844
28.6111011505127
37.0036926269531
52.9305381774902
61.323127746582
52.0722045898438
53.3120193481445
51.8814659118652
29.3740653991699
18.9786968231201
21.5536975860596
12.9703664779663
5.1499981880188
8.67870044708252
18.787956237793
25.2731399536133
17.738883972168
6.38981294631958
0.190740674734116
-10.2999963760376
-16.8805503845215
-14.2101802825928
-12.4935140609741
-0.667592406272888
13.256477355957
18.3111057281494
27.2759170532227
24.891658782959
7.15277528762817
-10.5861072540283
-28.6111011505127
-40.4370231628418
-36.3360977172852
-33.9518394470215
-52.7397994995117
-68.2851638793945
-63.8981285095215
-50.1647987365723
-41.2953567504883
-52.7397994995117
-70.9555358886719
-71.7184982299805
-56.4592399597168
-46.0638732910156
-50.9277610778809
-59.7972030639648
-62.0860900878906
-60.274055480957
-56.2685012817383
-55.0286865234375
-63.2305335998535
-65.6147918701172
-62.3722038269043
-67.4268264770508
-56.8407211303711
-36.9083213806152
-33.2842483520508
-29.0879535675049
-24.891658782959
-30.995361328125
-43.1073951721191
-49.9740562438965
-44.4425773620605
-38.4342460632324
-43.2981338500977
-54.0749816894531
-56.6499824523926
-56.1731300354004
-57.6036834716797
-51.4999847412109
-42.3444290161133
-33.8564720153809
-32.2351760864258
-44.251838684082
-42.9166526794434
-19.7416610717773
-5.43610954284668
-0.381481349468231
-1.9074068069458
-13.0657367706299
-16.4990692138672
-15.9268465042114
-9.9185152053833
0.667592406272888
-7.34351634979248
-23.6518440246582
-28.1342506408691
-27.1805477142334
-24.9870281219482
-21.7444381713867
-14.0194396972656
-5.81759071350098
-8.86944198608398
-14.2101802825928
-8.96481227874756
2.47962880134583
7.34351634979248
1.9074068069458
6.58055353164673
16.1175880432129
12.2074031829834
14.2101802825928
18.1203651428223
15.5453653335571
25.0823993682861
28.4203605651855
24.3194370269775
24.2240657806396
13.8286991119385
6.96203470230103
11.0629596710205
9.25092315673828
-4.10092449188232
-25.6546211242676
-34.4286918640137
-28.5157318115234
-24.0333251953125
-17.2620315551758
-11.4444408416748
-8.29721927642822
8.58333015441895
28.2296199798584
36.0499877929688
46.2546157836914
58.2712783813477
55.0286865234375
42.1536903381348
34.4286918640137
29.9462871551514
22.6027698516846
17.9296245574951
16.4036979675293
6.48518323898315
0.667592406272888
10.4907369613647
19.8370304107666
17.1666603088379
13.1611070632935
12.0166625976563
4.10092449188232
-8.77407169342041
-13.256477355957
-14.9731435775757
-18.5018463134766
-13.256477355957
-2.95648050308228
11.7305517196655
22.5074005126953
20.2185115814209
15.4499950408936
13.9240694046021
11.4444408416748
3.33796191215515
8.20184898376465
24.0333251953125
23.3657341003418
17.357400894165
11.1583299636841
7.0574049949646
14.1148099899292
12.9703664779663
10.6814785003662
20.1231422424316
21.5536975860596
20.7907333374023
20.8861045837402
15.5453653335571
24.0333251953125
28.1342506408691
15.6407356262207
19.074068069458
32.1398048400879
36.9083213806152
40.3416519165039
36.2407302856445
29.0879535675049
25.177770614624
9.63240432739258
-2.28888821601868
0.667592406272888
-5.05462789535522
-8.20184898376465
4.29166507720947
17.738883972168
22.0305480957031
12.6842555999756
5.91296100616455
6.6759238243103
9.25092315673828
6.77129411697388
-3.43333220481873
-9.06018257141113
-4.95925760269165
8.77407169342041
20.3138828277588
19.4555492401123
9.72777462005615
7.43888664245605
11.8259220123291
2.76573991775513
6.38981294631958
27.0851764678955
21.6490669250488
7.34351634979248
7.82036781311035
-2.00277709960938
-13.256477355957
-8.48795986175537
-2.8611102104187
-9.15555286407471
-23.6518440246582
-31.0907306671143
-31.4722118377686
-30.1370277404785
-25.8453617095947
-20.8861045837402
-16.6898097991943
-16.9759197235107
-23.6518440246582
-36.0499877929688
-43.4888763427734
-34.3333206176758
-22.3166599273682
-28.8972129821777
-38.148136138916
-33.3796195983887
-30.8999900817871
-27.3712882995605
-22.4120292663574
-25.4638805389404
-34.0472106933594
-50.355541229248
-52.453685760498
-33.761100769043
-22.6027698516846
-16.7851791381836
-4.67314672470093
0.762962698936462
-1.9074068069458
-2.38425850868225
-0.381481349468231
10.6814785003662
22.8888816833496
16.9759197235107
9.72777462005615
16.9759197235107
19.074068069458
5.91296100616455
-1.33518481254578
4.29166507720947
0.47685170173645
-7.34351634979248
-0.858333051204681
3.91018390655518
9.25092315673828
17.6435127258301
5.34073925018311
-8.3925895690918
5.81759071350098
22.5074005126953
18.9786968231201
5.34073925018311
-4.38703584671021
4.67314672470093
27.7527694702148
37.3851737976074
31.9490642547607
25.177770614624
16.4990692138672
4.38703584671021
-11.4444408416748
-16.30832862854
1.23981440067291
16.8805503845215
4.86388731002808
-13.3518476486206
-13.4472179412842
-13.0657367706299
-19.4555492401123
-11.9212923049927
4.48240613937378
7.43888664245605
6.1037015914917
6.96203470230103
0.381481349468231
-9.44166374206543
-19.8370304107666
-31.6629524230957
-49.8786888122559
-61.5138702392578
-48.1620216369629
-27.4666576385498
-12.0166625976563
-10.1092557907104
-19.6462898254395
-23.2703628540039
-21.1722145080566
-15.6407356262207
-6.77129411697388
-4.7685170173645
-11.7305517196655
-15.35462474823
-12.302773475647
-8.29721927642822
2.67036962509155
13.3518476486206
17.4527721405029
28.1342506408691
29.4694347381592
22.0305480957031
20.6953639984131
13.6379585266113
7.53425693511963
7.72499752044678
12.3981437683105
24.9870281219482
32.6166572570801
19.8370304107666
-3.91018390655518
-16.022216796875
-12.302773475647
-5.62685012817383
-1.43055510520935
6.96203470230103
19.360179901123
24.2240657806396
13.7333288192749
10.2999963760376
30.3277683258057
39.3879508972168
29.6601753234863
32.8073959350586
39.4833221435547
30.0416564941406
19.7416610717773
7.15277528762817
-11.3490705490112
-13.6379585266113
-8.29721927642822
-5.91296100616455
1.43055510520935
2.09814739227295
1.62129580974579
13.8286991119385
22.0305480957031
22.2212886810303
22.6027698516846
18.9786968231201
14.1148099899292
12.0166625976563
12.302773475647
22.6027698516846
31.5675830841064
19.7416610717773
5.05462789535522
3.05185079574585
5.91296100616455
7.72499752044678
6.19907188415527
5.53147983551025
-5.62685012817383
-30.4231376647949
-64.9472045898438
-131.038848876953
-195.795303344727
-212.103637695313
-205.713821411133
-205.523086547852
-199.610122680664
-167.661056518555
-110.820335388184
-30.6138782501221
111.583297729492
308.618408203125
523.48779296875
781.273803710938
1013.119140625
1101.14599609375
1087.98486328125
1042.11169433594
937.108947753906
747.894226074219
526.348876953125
322.351745605469
122.550888061523
-85.1657104492188
-283.631378173828
-456.442443847656
-573.557250976563
-599.307189941406
-579.851684570313
-571.745178222656
-543.801696777344
-502.124847412109
-489.726684570313
-491.538726806641
-492.587799072266
-485.530395507813
-454.058197021484
-409.043395996094
-359.927673339844
-299.081390380859
-236.423065185547
-199.896224975586
-188.928649902344
-185.87678527832
-203.997161865234
-236.423065185547
-235.755477905273
-208.002716064453
-188.261047363281
-160.699020385742
-114.539779663086
-83.6397857666016
-85.6425628662109
-105.574966430664
-127.319404602051
-141.815689086914
-140.480514526367
-118.068481445313
-92.5092315673828
-76.296272277832
-56.936092376709
-38.3388748168945
-26.6083240509033
-18.5972156524658
-21.0768451690674
-39.5786895751953
-59.3203506469727
-59.6064605712891
-43.9657249450684
-22.3166599273682
-1.62129580974579
14.7824029922485
31.8536930084229
41.7722091674805
38.0527648925781
31.6629524230957
20.3138828277588
16.6898097991943
36.5268402099609
51.8814659118652
59.4157218933105
74.3888626098633
84.9749755859375
87.6453399658203
83.7351608276367
86.4055252075195
97.2777481079102
91.7462692260742
78.4897918701172
76.296272277832
85.6425628662109
97.5638580322266
97.4684906005859
95.1795959472656
97.849967956543
99.5666351318359
100.52033996582
102.427742004395
111.774040222168
119.880516052246
117.782371520996
110.438850402832
103.76293182373
101.664779663086
94.5120086669922
91.3647842407227
97.7546005249023
90.8879318237305
80.0157165527344
79.3481216430664
81.0647888183594
80.4925689697266
74.5796051025391
74.2934951782227
73.6259002685547
56.6499824523926
48.5435028076172
64.9472045898438
74.7703475952148
76.2009048461914
89.3620071411133
97.9453353881836
94.7981185913086
93.8444137573242
95.5610809326172
102.713859558105
110.343482971191
108.245338439941
96.2286758422852
79.06201171875
70.0971984863281
65.7101669311523
52.3583183288574
38.148136138916
34.4286918640137
36.6222114562988
41.6768379211426
58.3666496276855
71.3370132446289
65.9962768554688
62.4675712585449
60.9416465759277
45.5870208740234
30.3277683258057
30.4231376647949
41.7722091674805
60.274055480957
78.8712692260742
88.6944122314453
87.3592300415039
72.9583129882813
46.1592445373535
21.0768451690674
10.4907369613647
1.43055510520935
-11.0629596710205
-4.86388731002808
12.8749961853027
20.9814739227295
22.125919342041
13.6379585266113
5.81759071350098
-0.858333051204681
-9.25092315673828
-1.52592539787292
8.48795986175537
11.7305517196655
17.9296245574951
18.4064750671387
9.44166374206543
0
-12.4935140609741
-32.1398048400879
-50.5462799072266
-57.9851684570313
-52.6444282531738
-45.6823921203613
-49.3064651489258
-49.0203552246094
-44.1564674377441
-53.5981292724609
-66.2823867797852
-75.7240524291992
-98.9944152832031
-113.395332336426
-97.6592254638672
-86.3101577758789
-87.7407150268555
-88.0268249511719
-90.1249694824219
-87.1684875488281
-86.7870101928711
-95.4657135009766
-108.912925720215
-115.588851928711
-104.62126159668
-100.138854980469
-105.193481445313
-95.5610809326172
-76.1055297851563
-55.887020111084
-51.2138710021973
-64.6610870361328
-71.7184982299805
-76.2009048461914
-86.3101577758789
-81.0647888183594
-60.7509078979492
-41.1046180725098
-25.9407329559326
-17.1666603088379
-10.2999963760376
-9.72777462005615
-20.8861045837402
-31.5675830841064
-34.810173034668
-30.2323970794678
-27.943510055542
-34.810173034668
-33.2842483520508
-23.9379558563232
-19.6462898254395
-16.4036979675293
-9.72777462005615
-3.8148136138916
-1.9074068069458
-1.71666610240936
-2.95648050308228
-10.6814785003662
-15.8314762115479
-16.4990692138672
-23.4611034393311
-23.5564746856689
-14.9731435775757
-12.3981437683105
-7.53425693511963
-1.04907369613647
5.91296100616455
12.302773475647
8.10647869110107
1.52592539787292
0.762962698936462
-0.762962698936462
2.95648050308228
23.6518440246582
46.5407257080078
54.7425765991211
53.3120193481445
55.9823913574219
64.2796096801758
60.274055480957
41.2953567504883
22.3166599273682
7.82036781311035
-2.67036962509155
-4.95925760269165
-5.62685012817383
-4.10092449188232
9.15555286407471
17.2620315551758
17.0712909698486
17.6435127258301
14.4009208679199
6.29444265365601
1.81203651428223
7.0574049949646
0
-12.8749961853027
-13.8286991119385
-17.357400894165
-21.3629570007324
-18.2157344818115
-12.6842555999756
0.286111027002335
20.6953639984131
33.6657295227051
31.4722118377686
22.3166599273682
18.3111057281494
13.8286991119385
-1.14444410800934
-10.204626083374
1.71666610240936
17.738883972168
13.9240694046021
7.0574049949646
11.2537002563477
8.10647869110107
4.95925760269165
4.00555419921875
-8.0111083984375
-19.360179901123
-21.7444381713867
-11.4444408416748
8.67870044708252
17.2620315551758
