Value(bpm)
59.5348837209302
59.4094935360529
59.2855340407846
59.1638905526956
59.0454340762214
58.9310221946282
58.8215002035663
58.7177024773609
58.6204540607733
58.530572480796
58.4488697751078
58.376154736112
58.3132353720107
58.2609215891456
58.2200281028744
58.1913775875828
58.175804080092
58.1741566547584
58.1873033930402
58.2161356752933
58.2615728281686
58.3245671673036
58.4061094821981
58.5072350183891
58.629030021508
58.7726389187571
58.9392722260939
59.1302152843261
59.3468379448478
59.5905946720492
59.8612270350822
60.1546325750958
60.4660864910996
60.7906883237124
61.1233332346262
61.4586908948662
61.7911928908923
62.1150297000304
62.4241583675653
62.7123220217325
62.9730822732351
63.1998653467234
63.3860224697021
63.524904592002
63.6099547979365
63.6376140303698
63.6123634737492
63.5402739414691
63.4275873917542
63.2806323989423
63.1057511466263
62.9092388837633
62.697296236788
62.4759943233031
62.2512522747791
62.0288265470533
61.8143112723286
61.6131488752162
61.4306502270228
61.272023736207
61.1422986498521
61.0429006386921
60.9711080465011
60.9240611611333
60.8989819414656
60.8931528712802
60.9038986261039
60.9285703343967
60.9645322798666
61.0091509460329
61.0597863488228
61.1137856388069
61.1684789821292
61.2211777484187
61.2691750449249
61.3097486385832
61.3405915756726
61.3627373600885
61.3788096895957
61.3914520165248
61.4033141313954
61.41705034886
61.4353199838649
61.4607901298154
61.496140756472
61.5440721597053
61.6073148183191
61.6886417452975
61.7908834627299
61.9169457823257
62.069830638402
62.2526073465661
62.4655204087976
62.7043840501087
62.9645669266565
63.2413209435498
63.5297501917952
63.8247866815624
64.1211734513633
64.4134557808568
64.6959813364058
64.9629101234914
65.2082350973605
65.4258141811065
65.609414248046
65.7527673348283
65.8503209380504
65.9025842853627
65.9133229689953
65.8865002452423
65.8262042678805
65.7366043339972
65.6219116626098
65.4863452029686
65.3341027790572
65.1693377100134
64.9961409071456
64.8185283389778
64.6404336766399
64.4657058819375
64.2981114777177
64.1409610076922
63.9948190538467
63.8590905565009
63.7331945558326
63.6165671074989
63.508659642328
63.408937455071
63.3168783126995
63.2319711738774
63.1537150122557
63.0816177371471
63.0151952059503
62.9539703234203
62.8974722235243
62.8452355302049
62.7968357067214
62.7525695546348
62.7133939922726
62.6802879300354
62.6542292516373
62.6361968766038
62.6271731301975
62.6281464271439
62.640114278892
62.6640866379678
62.701089597317
62.7521694674446
62.8183972597254
62.9008736105744
63.0007341883638
63.1191373340699
63.2560004290119
63.409147976819
63.5761890363629
63.7546993869425
63.9422112901326
64.136205014024
64.3341021974565
64.5332611578151
64.7309742663008
64.924467528657
65.1109025162998
65.287380791741
65.4509509621316
65.5986184747661
65.727479933067
65.8359356515151
65.9232092353261
65.9885693514726
66.0313228249303
66.0508190791085
66.0464544922593
66.0176766242815
65.963988267408
65.8849512740411
65.7801901155245
65.6493951269668
65.4923253953559
65.3088112511483
65.0987563272391
64.8627073784868
64.6039896889459
64.3267005702131
64.034847432784
63.7323288475259
63.4229209724002
63.110268864464
62.7978823161662
62.4891358297931
62.1872723408546
61.8954103167709
61.616553888127
61.3536057130514
61.1093823284884
60.8866318033998
60.6880525890267
60.5156042823806
60.3692992300592
60.2488762390865
60.1541402529786
60.0849613520844
60.0412741674642
60.0230777027695
60.0304355634109
60.06347659712
60.1223959549345
60.207456586737
60.3189911908803
60.4574046432255
60.6231769372378
60.8168666737599
61.0390640665705
61.2881123182734
61.5590949287542
61.8467177893332
62.1455077347564
62.4497850175605
62.7536452868663
63.0509520784353
63.3353409423081
63.6002363680937
63.838882598588
64.0443892324764
64.2097921916517
64.328130159146
64.3925359800928
64.3965597210439
64.3398877693758
64.2288449437108
64.0702828969166
63.8711569531161
63.6384337210115
63.3790135783995
63.0996685970407
62.8069958534423
62.5073855907738
62.2070033612993
61.9117850791221
61.627443835377
61.3594873551417
61.1132450899298
60.8939041261767
60.7061578018672
60.5504157342274
60.4245900292218
60.3266768886078
60.254775517306
60.2070716199416
60.1818225977785
60.1773442281024
60.1919986478287
60.2241834968707
60.2723221057361
60.3348546368174
60.4102301106029
60.496899267087
60.5933082294205
60.6978929516007
60.8093695232041
60.928169486666
61.055364135939
61.1920488922164
61.3393456660297
61.4984065390558
61.6704179441657
61.8566053859684
62.0582387518224
62.2766382723131
62.5131812007617
62.7693092937154
63.0465371889126
63.3464617943398
63.6707728222197
64.0205637256712
64.39197738299
64.7787955513226
65.1744974545523
65.5722386428024
65.96483447289
66.3447585474941
66.7041580549642
67.0348879274031
67.3285655281506
67.5766471591737
67.7705270199867
67.9016583427728
67.9616952850406
67.9434930481242
67.8494693197298
67.6880217612087
67.4679091533662
67.1980148796218
66.8872104367878
66.5442421309827
66.1776417336018
65.7956607836385
65.4062274051831
65.0169239601787
64.6349835549896
64.267303332234
63.9204725694838
63.6008138376102
63.3141556362423
63.0613389376908
62.8391750584302
62.6445141244348
62.4743497181885
62.3257944280807
62.196058849948
62.0824336673277
61.9822745167478
61.8929894092674
61.8120285319453
61.7368762947715
61.6650455211729
61.594073704475
61.5215212693492
61.4449717868185
61.3627573932386
61.276712322504
61.1896987160464
61.1045472046512
61.0240572115906
60.9510000472693
60.8881245125853
60.8381649600428
60.8038517878335
60.7879243773437
60.7931465289889
60.8223245054559
60.8783278563686
60.9641132757405
61.0827518357253
61.2374368932768
61.4287224536257
61.6517811728703
61.9011027535426
62.1710610075303
62.4558681245757
62.7495386502369
63.0458639092513
63.3383978712882
63.6204556382511
63.8851258195438
64.1252980346686
64.3337066207083
64.5029913070364
64.6257751378952
64.6948961451841
64.7085124765538
64.6716093490474
64.58982779188
64.4689558630498
64.3148547732803
64.1333947800007
63.9304016132965
63.7116137560769
63.4826505384992
63.2489907286718
63.0159611082004
62.7887344079865
62.5723359396575
62.3716582825779
62.1914834670235
62.0354520503111
61.9025385833949
61.7905147001267
61.6972262080146
61.6205795203804
61.5585297869029
61.5090706096294
61.4702252285947
61.4400390885775
61.4165737212112
61.3979018952098
61.3821040022379
61.3672656572332
61.3514764999407
61.3328301891597
61.3094472894511
61.2809757634788
61.249555847435
61.2175508890808
61.187314687571
61.1611919590457
61.1415206018154
61.1306357474678
61.130875594389
61.1445890360852
61.1741451183759
61.2219443872656
61.2904322235313
61.382114301512
61.4995743593237
61.6454945272316
61.8221106985488
62.0268159580728
62.2544259964293
62.4996310029299
62.7569797650353
63.0208515601802
63.2854373688997
63.5447312134077
63.7925325442192
64.0224606363035
64.2279819016913
64.4024508634232
64.5391652543633
64.6314352966293
64.6726666838593
64.6578696859435
64.5898230753505
64.4740191560874
64.316104366527
64.121801215625
63.8968409683221
63.646906354602
63.3775846904022
63.0943314174913
62.8024437673463
62.5070440325939
62.2130717852729
61.9252843072065
61.648264485386
61.386435465124
61.1440736867921
60.9240433313965
60.7264261161083
60.5509949907264
60.3975691656359
60.2660135251587
60.1562382776419
60.0681988406089
60.0018959615834
59.9573760775061
59.9347319180361
59.9341033605062
59.9556785469128
59.9996952761272
60.0664426875509
60.1562632557713
60.2695454705987
60.4058584064526
60.5632404665371
60.7395681970045
60.9327018252639
61.1404717760985
61.3606665819959
61.591022208274
61.82921284906
62.0728432821285
62.3194428988132
62.5664615492169
62.8112673620584
63.0511467118323
63.2833065124663
63.5048806566003
63.7135987931178
63.9088339782585
64.0902288502753
64.2574402093566
64.41014024343
64.5480177293868
64.6707792023984
64.7781500859579
64.8698757753174
64.945722667096
65.0054791280078
65.0489563959119
65.0759894067044
65.086437540967
65.0801937734442
65.0574946377826
65.0190069705264
64.9654445892323
64.8975384702041
64.8160335328624
64.7216855443318
64.6152581618182
64.4975201276732
64.3692426294106
64.2311968343861
64.0841516064146
63.9288714093037
63.7661144001517
63.5966307133079
63.4211726227668
63.2415335545154
63.0613360806112
62.884313737365
62.7141169886811
62.5543196155242
62.4084291330326
62.2799010430251
62.1721567899683
62.0886053651314
62.0326685963902
62.0078102706541
62.0175693641846
62.0655978065647
62.1557033820549
62.291898585022
62.477218291447
62.707699331011
62.9767936219241
63.2778620797933
63.6040983782811
63.9484621582366
64.303625970876
64.6619372281707
65.0153968992072
65.3556570234917
65.6740392772613
65.9615767856822
66.2090810784642
66.4072354989887
66.5469014839502
66.6249479775781
66.6454649861482
66.6132632023867
66.5334005168875
66.4111065516528
66.2517132440697
66.0605927715945
65.8431036944226
65.604545814923
65.3501239234852
65.0849203295908
64.8138758680781
64.541778923189
64.2732619234637
64.0127789110365
63.763956400859
63.5295759039677
63.312311691118
63.1147831666793
62.9395713309607
62.7892371824027
62.66634209134
62.5734702450805
62.513253339637
62.4883977784662
62.5017147356695
62.5561535538816
62.6548390803054
62.8011137043329
62.9985654649618
63.2477655478975
63.5424072102772
63.8752164589553
64.2387355210346
64.625234806031
65.0266409071121
65.4344821844031
65.8398541756698
66.2334076193073
66.6053622041113
66.9455492183387
67.2434859880038
67.4884843039656
67.6697939636357
67.779554605887
67.8203552134168
67.7975345102088
67.7167956169203
67.5841046566455
67.4055959632576
67.1874860686821
66.9359980221654
66.6572970054339
66.3574376820606
66.0423232764974
65.7176760277816
65.3890184066288
65.0616643182033
64.7407143140279
64.4302137730928
64.1322607131638
63.8486542139841
63.581138518969
63.3314126367375
63.1011406776181
62.8919629080318
62.7055075304801
62.5434032228759
62.4072924985171
62.2988459776164
62.2197776936608
62.1718615938481
62.1569494335584
62.1769903116628
62.2335979759135
62.3249462184067
62.4476107567667
62.5982020865487
62.7733421007229
62.9696344949821
63.18363872209
63.4118474358011
63.6506674782516
63.8964045635826
64.1452518948897
64.39328302024
64.6364492843381
64.8705822625154
65.0914015902371
65.2952766981736
65.4812556682633
65.6490263505607
65.7983053912872
65.9288394244182
66.0404061474829
66.1328152731304
66.2059093489008
66.2595644386285
66.2936906599708
66.3082325736954
66.3031694215568
66.2785152108313
66.2343186448421
66.1707322936141
66.089322855723
65.9929417558025
65.8844785974905
65.7668018017778
65.6427495716306
65.5151233872774
65.3866839704265
65.2601496371807
65.1381969498826
65.0234635770116
64.9185532769604
64.8260429354927
64.74849160744
64.6884515404404
64.6483787568694
64.6296463110277
64.6329904440143
64.6591823276787
64.7090430505162
64.7834494331188
64.8833403726062
65.0097237932189
65.1636842917603
65.3463915800859
65.5591098427684
65.8032081469164
66.0801720634868
66.3916166860703
66.739270166551
67.1221716480209
67.5342522285673
67.9686539472318
68.4181835753186
68.8752656884904
69.3319105175503
69.7796988493172
70.2097865361103
70.6129312878994
70.9795443158755
71.2997690191873
71.5635882127274
71.7609603529222
71.8840051561554
71.9359213358557
71.9239151673006
71.8555536321707
71.7386362239797
71.5810825621968
71.3908358704561
71.1757836817855
70.9436963346236
70.7021831780467
70.4586659264217
70.2203682924069
69.9943208732106
69.7873755403702
69.6043615741095
69.4453157839081
69.3095862350754
69.196574854613
69.1057338820024
69.0365626540533
68.9886046904735
68.9614450506844
68.954707935772
68.9680545124095
69.0011809381672
69.0538165698922
69.1257223388305
69.2166775721399
69.3254270044016
69.4488243261087
69.5835008876726
69.7260476265867
69.8730053493895
70.0208583206531
70.1660312888295
70.3048900995704
70.4337460533336
70.5488641544535
70.6464753721897
70.7227929895328
70.7740330521466
70.7967388131748
70.7904101048771
70.7562431461321
70.6955150359099
70.6095561431438
70.4997406357866
70.3674772880917
70.2142006541276
70.0413626826549
69.8504248354694
69.6428507584596
69.4200995422315
69.1836195974517
68.9348431592326
68.6752807850402
68.4071887766145
68.1331290366907
67.855592616678
67.5769948527458
67.2996745227089
67.0258946866044
66.7578450736427
66.4976458849647
66.2473528922969
66.008963726522
65.7844252668313
65.5756420600754
65.384485720871
65.2128052017664
65.0620275576662
64.9322300075382
64.8232450236547
64.7349447790249
64.6672406683291
64.6200830149643
64.5934609621728
64.587402547846
64.6019749642267
64.6372850053773
64.6934797069776
64.7707471847785
64.8693176799006
64.9894648211533
65.131483524887
65.2940530370027
65.4731243322465
65.6643292348294
65.863210483837
66.0652073915749
66.2656475179643
66.4597447412728
66.6426041400623
66.8092340968084
66.9545659855354
67.0734817097419
67.160849209712
67.2115658588588
67.2206094629806
67.184682989983
67.1064415244515
66.989990706128
66.8395218144256
66.6592679111852
66.4534649167386
66.2263179841307
65.981973348752
65.7244956697658
65.4578507483664
65.1858934068582
64.9123602409865
64.6408669139027
64.3749096409025
64.1178704761217
63.8728292485644
63.642129351247
63.4279243377779
63.2323269225125
63.0574216967001
62.905279093968
62.7779706354955
62.6775855267041
62.6062487228246
62.5661406313434
62.5595186765039
62.588741016599
62.6562927811897
62.7648152857409
62.9171387895421
63.1154571604502
63.3560343802268
63.6324900581567
63.9383253718419
64.2668619039444
64.6111823140687
64.9640841817237
65.3180483211879
65.6652232602743
65.9974278382636
66.3061739817671
66.5827116235653
66.8180974001023
67.0032881649997
67.1296140394939
67.1967392354798
67.2128175882138
67.186634396993
67.127131260499
67.0433059320712
66.9441356055662
66.8385243025566
66.7352743087146
66.6430811546359
66.5705514521756
66.5262429703951
66.5187266526681
66.5566708312221
66.648946577364
66.8013965604006
67.0100209254415
67.2690585211034
67.5727951976253
67.9154768728474
68.2912318588075
68.6940020541817
69.1174831544564
69.5550745262972
69.9998398373044
70.4444799202527
70.8813196664205
71.3023109621368
71.6995951362043
72.0716297191216
72.4213112239538
72.7517990908751
73.0664215517433
73.3686606275254
73.6621397799764
73.9506146409697
74.2379672070634
74.5282038620876
74.8254575798692
75.1339946656778
75.4582264216329
75.8016598072944
76.1627484577084
76.5383182043467
76.9250751034534
77.3195926407623
77.7183012767975
78.1174809568648
78.5132569379934
78.9015993156308
79.2783266500283
79.639114092932
79.9795063962121
80.2953578781096
80.5844968187647
80.8453753316632
81.0764753739723
81.2763183229311
81.4434749753561
81.5765757507373
81.6743209913966
81.7354912433728
81.7589573934354
81.7436905312692
81.6887768307522
81.5947752833952
81.4654734356444
81.3051489812521
81.118093476833
80.9085828099291
80.6808522319162
80.4390760013911
80.1873515853044
79.9296882876947
79.670000119224
79.4121026838232
79.1597135110235
78.9148508103707
78.6741878872275
78.4333887061761
78.1882227566966
77.934566641083
77.6684100199653
77.3858655981128
77.0831828032517
76.7567647661992
76.4031881549106
76.0192253516996
75.6018683960601
75.1484208592301
74.661074755987
74.1495249476983
73.6237331832321
73.093165801289
72.5667782315611
72.0530230468757
71.5598783528988
71.0948935674212
70.665250072262
70.2778347704401
69.9393252157821
69.6562856823754
69.4352743029872
69.2826917454296
69.1979651096657
69.1730886524605
69.2000247106976
69.270969605891
69.378244943803
69.514207521397
69.6711765220717
69.8413774498309
70.0169028563825
70.189690364611
70.3515187869525
70.4940232683133
70.6087303352346
70.68821390767
70.7315090375355
70.7400858442024
70.7155245381713
70.6594970245734
70.5737518091421
70.4600992163658
70.3203971069703
70.1565372562712
69.9704325283167
69.7640049539958
69.5391747951775
69.2978506521443
69.041920648581
68.7733355265784
68.4944040134644
68.2074857543591
67.9148746248363
67.6187949462536
67.3213992835378
67.0247677067301
66.7309083985088
66.4417594916432
66.1591920253846
65.8850139176186
65.6209748596923
65.3687720527755
65.130056718055
64.9064399589208
64.6991620046695
64.5086675307301
64.3353013032917
64.1794226445545
64.0414078317269
63.9216525964801
63.820574743088
63.738616905421
63.6762494651764
63.6339736562412
63.6123248829766
63.6118762835218
63.6332425730396
63.6770842062346
63.7441104195566
63.8340066613422
63.9435122440692
64.0688462795949
64.2061941817195
64.3516906033982
64.5014068387264
64.6513428389568
64.797424045781
64.9355032757659
65.0613678951427
65.1707525017514
65.2593572786397
65.3228720998601
65.3570063526717
65.3576254678222
65.3238705995574
65.2587302779648
65.1654798083549
65.0474368946446
64.9079353319598
64.7503019828283
64.5778371788069
64.3937985993415
64.2013886041638
64.0037449353326
63.8039346601141
63.604951195685
63.4097142401291
63.2210724301554
63.0418047266944
62.873988930415
62.7183123461256
62.5752876874992
62.4454306680593
62.3292623813621
62.2273117796254
62.1401182625864
62.0682343903813
62.0122287364308
61.9726888987267
61.9502246905881
61.9454715349436
61.9590940895617
61.9917901344614
62.0442947570748
62.1171871886097
62.2093652363613
62.318858178686
62.4436897917064
62.5818749291259
62.7314100217128
62.8902647896908
63.0563751809516
63.2276375691982
63.4019042642797
63.5769804019666
63.750622291957
63.9205373106547
64.0843854287665
64.2397824625451
64.3844756816647
64.5173990545781
64.6380112759977
64.7457805403132
64.8401843613495
64.9207115338946
64.9868641402708
65.0381595907285
65.0741326854279
65.0943376848309
65.0983503744799
65.0857701093944
65.0562218227171
65.0093579827733
64.9448604978532
64.8629956905971
64.7660648834807
64.6568219374559
64.5380011634967
64.4123083113932
64.282413906263
64.150948877855
64.020502408877
63.8936219178681
63.7728150890675
63.6605538657577
63.5592803341375
63.4714144414423
63.3993635144265
63.3455335722679
63.3119840508017
63.2987095464513
63.3049860794249
63.3301251989627
63.3734708303635
63.4343953638806
63.5122959963907
63.6065912949532
63.7167179551134
63.8421277301092
63.982284510089
64.136661533087
64.3047387119027
64.4860000632133
64.6799312194944
64.8857358497241
65.1015759350192
65.3253346320318
65.5548400696282
65.7878601956556
66.0220990285063
66.2551944217071
66.4847174600254
66.7081736114685
66.9230057603639
67.1265992417358
67.3162889857173
67.4893688621039
67.6431032888282
67.7749717415578
67.8839458020373
67.9696226707311
68.0316463428962
68.0697082957294
68.0835494157366
68.072961687409
68.037789625094
67.9779314322228
67.8933398745972
67.7840228572065
67.650043697003
67.4915210871621
67.3086287515401
67.1016896584185
66.8727201498573
66.6251210651131
66.3622809429414
66.0875152005395
65.8040538227596
65.5150324920374
65.2234869597445
64.9323504334909
64.6444537422472
64.3625280403358
64.0892098206323
63.8270480250858
63.5785130654204
63.3460075973782
63.1318540177557
62.937212564994
62.7616951708603
62.6048380875339
62.4662156540635
62.3454381772944
62.242150012848
62.1560278289093
62.0867790375242
62.034140379831
61.9978766531853
61.9777795695017
61.9736667353614
61.9853807455304
62.0127883825228
62.0557799157388
62.1139279776346
62.1850131405954
62.2662132888881
62.3546877920843
62.4475698020284
62.5419607455826
62.6349274506627
62.7235019834509
62.8046842810531
62.8754476593902
62.9327472601871
62.973531473041
62.9947563284489
62.9934028054316
62.9664969336092
62.9114096351454
62.8289392972616
62.7221562568569
62.5941918401812
62.4481763688015
62.2872201794525
62.1143978251068
61.9327354535707
61.7452013017184
61.5546991990058
61.364064942777
61.1760653892897
60.9934000973106
60.818705364389
60.6545605083586
60.5034962671583
60.3678398568584
60.2486019103274
60.1461914036446
60.0610337409617
59.9935770919223
59.9442952401473
59.9136906130354
59.9022975196624
59.9106856268475
59.939463707226
59.9892836975245
60.0608451102726
60.1548998480332
60.2722574760338
60.4137910170217
60.5804433414439
60.772551864435
60.9872018180184
61.2204343226973
61.4681984850645
61.7263278872832
61.990521975076
62.2563329395966
62.5191585869401
62.7742417579692
63.0166768939711
63.2414243337307
63.4433328679256
63.6171709607838
63.7576668716252
63.8595576676746
63.9186779783619
63.9364704531667
63.9163539112588
63.8618829264921
63.7767067708314
63.6645327745986
63.5290934829813
63.3741179674738
63.203307504537
63.0203157056718
62.8287330760688
62.6320758943034
62.433779243241
62.2371939815241
62.0455874242158
61.862133092172
61.6893959491649
61.5292082155825
61.3833308031093
61.253506726614
61.1414702028141
61.04895669428
60.9777139370984
60.9295140162728
60.9061665816684
60.9095333296678
60.9415439125637
61.004213480196
61.0996621079063
61.2301364233687
61.3980338146425
61.6052348387666
61.8483066189471
62.1212046388242
62.417734317107
62.7315086363088
63.0559022494473
63.3840181669977
63.7086683460794
64.0223697712621
64.3173577573237
64.5856181896887
64.818940216799
65.0089904911709
65.1474094011433
65.2259294087627
65.2393214661258
65.1920279662049
65.0907433819782
64.9423719986459
64.7539231118242
64.5324198284906
64.2848227666016
64.0179692101343
63.7385276659006
63.4529673005484
63.1675414117276
62.8882838983121
62.6210176268898
62.3713736289215
62.1448201884687
61.9464612900024
61.7776699266125
61.6370117090607
61.5230749030374
61.4345358862743
61.3701484716913
61.328734239101
61.3091737418319
61.3103984741919
61.3313835023484
61.3711406754636
61.4287123462178
61.5031655405346
61.5935865256617
61.6990757340134
61.8187429440186
61.9513897985487
62.0947690109022
62.2463851241333
62.4037000038022
62.5641267899673
62.7250258930064
62.8837031396377
63.0374101869002
63.183347325567
63.3186687897066
63.4404906750509
63.5459015447632
63.6319757665582
63.6957895796709
63.7344398340249
63.7458642671139
63.7312586200781
63.6926798293175
63.6322322428372
63.5520526577445
63.4542965972626
63.3411259420903
63.2146979952178
63.0771560267944
62.9306213169463
62.7771866899369
62.6189115129329
62.4578181169091
62.2958895857693
62.1350688523815
61.9772068395374
61.823081209485
61.6725044783565
61.5252579834334
61.3811276726153
61.2399038726431
61.1013810749648
60.9653577383705
60.8316361075895
60.7000220471004
60.5703248894586
60.4423572974939
60.3159351397737
60.190877378767
60.0670059711764
59.9441457799395
59.8221678279517
59.7019377837865
59.5852962162653
59.4740984580432
59.3701740682805
59.2753309071906
59.1913602833483
59.1200431541176
59.0631573741865
59.022486004377
58.9998267127771
58.9970023230242
59.0158725906701
59.0583473185112
59.1264009563463
59.2220888708255
59.3475364402812
59.5029391083892
59.6852031046079
59.8909145561099
60.1166172842468
60.3587859708544
60.6138030310857
60.8779393394817
61.1473390661172
61.4180089732877
61.6858125979974
61.9464697979568
62.195562164413
62.4285447987539
62.6407649060588
62.8274876016305
62.9849822133212
63.1133777185083
63.2137717711786
63.2873564998035
63.3354076858698
63.3592738832817
63.3603656368188
63.3401449439743
63.3001150888242
63.2418109597167
63.1667899451322
63.0766234845888
62.97288933444
62.8571645922375
62.7310195083375
62.5961207667071
62.4551627941309
62.3113818802192
62.1679638963193
62.0280368188022
61.894672985735
61.7708944002116
61.6596809496278
61.5639814390823
61.4867273770651
61.4308495022145
61.399297101235
61.3950602407036
61.4211951207961
61.4808528591482
61.5773095502453
61.7121262829844
61.8818058332506
62.0819936119926
62.3083119839669
62.5563179882492
62.8214668924397
63.0990816824
63.3843287981547
63.6722006040477
63.9575052241998
64.2348644768904
64.4987206956345
64.7433532207901
64.9629052732451
65.1515002732811
65.3067865142863
65.4314500397133
65.5286832583664
65.6017948366994
65.654183399745
65.689314152519
65.7106987652807
65.7218787738224
65.7264126657593
65.7278667580399
65.729809921209
65.7358121732764
65.7494471508323
65.7742984674928
65.8135046855516
65.8665758263988
65.9313046508353
66.0054700446754
66.0868400177634
66.1731659827144
66.2621785283166
66.3515847147062
66.4390669275373
66.5222833341315
66.5988699858129
66.6664446070547
66.7226121034731
66.764971806897
66.7911635133992
66.8002302780746
66.793014275653
66.7704972215818
66.7336801458949
66.6835789941939
66.6212204846331
66.5476382444695
66.4638692448173
66.3709505475807
66.2699163741888
66.1617955017799
66.047608988904
65.9283682296697
65.805073332559
65.6789537984006
65.5529334653062
65.4306298261646
65.3156101086219
65.2113945428596
65.1214663777767
65.0492855639705
64.998306061135
64.9719967973107
64.9738663935125
65.007491870967
65.0765516819861
65.1848635532756
65.3364278078885
65.5354696143671
65.7834984783543
66.0746122173729
66.4016580148988
66.7573037103873
67.1339601495895
67.5237186058455
67.9183046822789
68.3090506747543
68.6868887977164
69.0423679101653
69.3656963775467
69.6468134131022
69.8754906082464
70.0416640253628
70.1417009620895
70.17972598646
70.1606546692193
70.0896871942842
69.9722281210943
69.8138118457069
69.62003524364
69.3964985443152
69.1487550823461
68.8822702122982
68.602389372136
68.3143150419311
68.0230921694044
67.7336014019152
67.4505492980236
67.1784679166721
66.9217456618124
66.684648218873
66.471342655682
66.285926391406
66.1324608979954
66.0150101655069
65.9376841526967
65.9046876612647
65.9203753227076
65.98931368096
66.1163517061895
66.3067015051492
66.5646261292543
66.8848200170725
67.2576957958754
67.6734496981032
68.1219265130943
68.5924935323498
69.0739429209408
69.5544263469016
70.0214269198156
70.4617742904793
70.8617090042302
71.2070017154397
71.4831314944442
71.6757719686667
71.78012470672
71.8038468311772
71.7559715547699
71.6459497964505
71.4834758636684
71.2783353183293
71.0402781182359
70.7789185826984
70.5036624515498
70.2236603338544
69.9477861857511
69.6846391016225
69.4425666200361
69.2293595868509
69.0466285095831
68.8909105904998
68.7587059867082
68.646617323294
68.5513282871061
68.4695858559197
68.3981859067704
68.3339620140656
68.2737772999866
68.2145192382429
68.1530973385177
68.0864436536647
68.0115160554103
67.9253866615633
67.8277541890174
67.7213692878125
67.6091309700685
67.4939048627652
67.3785196235042
67.265765777876
67.1583968974253
67.0591330377243
66.9706663645101
66.8956689117273
66.8368024382774
66.7967303801032
66.7781319309783
66.7837180789515
66.815020142011
66.869542506623
66.9439759848587
67.0350211645697
67.1393701424164
67.2536914908322
67.3746184466281
67.4987403651983
67.6225975274475
67.7426794163098
67.8554265953494
67.9572363224456
68.0444720158988
68.1134766574402
68.1614303664548
68.1892279334559
68.1988187473638
68.1921858585548
68.1713359290023
68.1382902910649
68.0950771479286
68.0437249564498
67.9862570153317
67.9246872666006
67.8610173063852
67.797234592084
67.7353118271237
67.6772075016113
67.6245459476007
67.5764215059483
67.5307461855083
67.4854371410835
67.438422855754
67.3876435308859
67.3310527359899
67.2666202968845
67.1923363949049
67.106216841158
67.0063094782299
66.8907016475573
66.7575286441869
66.6049830622988
66.4313573894775
66.2368208390259
66.0242788658742
65.7968234204501
65.5574913767543
65.3092531087239
65.055003975206
64.7975585731826
64.5396475941272
64.2839171044013
64.0329300662779
63.7891699202797
63.5550460608588
63.3329010549033
63.125019475194
62.9336377321857
62.7601439000513
62.6034725989885
62.46214441173
62.3347271823656
62.2198294141137
62.1160944374112
62.0221952864828
61.9368302333512
61.8587189374119
61.7865991764196
61.7192241312005
61.6553602017248
61.5937853364656
61.5332878603073
61.4726657886993
61.410797720181
61.3484703564326
61.2885203918498
61.2338656322078
61.1874049892766
61.1520249263967
61.1306086149756
61.126047806189
61.1412574639844
61.179193258481
61.2428720839719
61.3353958445238
61.4599788450025
61.6199792396069
61.8189351283376
62.0606060606061
62.3471532520085
62.6734321004721
63.0323046503681
63.4163855089276
63.8179664324518
64.228957014253
64.6408434818053
65.0446681953071
65.4310328450299
65.7901285145518
66.1117956451218
66.3856164344611
66.6010412714802
66.7475494099282
66.8155471245313
66.8054485660512
66.7250950250762
66.5828810426483
66.3874393605998
66.147496027285
65.8717467739511
65.5687563194868
65.2468810563795
64.9142146146911
64.5785551090715
64.2473924382303
63.9279138032218
63.6270256084421
63.3513900733885
63.1073382363131
62.8967912057123
62.7166938448713
62.5638572395709
62.4352233514246
62.3278403012568
62.2388411485284
62.1654258150851
62.1048458830203
62.0543920628582
62.0113841818987
61.9731635851041
61.9370878735439
61.9005279289337
61.860867187755
61.8155031351608
61.7622467952404
61.7010256906573
61.6324654109183
61.5571922585957
61.4758314243765
61.389005729457
61.2973344975086
61.2014325563758
61.1019093687783
60.9993682905127
60.8944059539883
60.7876117743809
60.679567575252
60.5708473301448
60.4620170164383
60.3536345776031
60.2464427800791
60.1419423708481
60.0418051420654
59.9476818277593
59.861205067974
59.7839932437615
59.7176551666588
59.663795616109
59.6240217299646
59.599950266803
59.5932157744134
59.6054797166978
59.6384406316934
59.6938454168964
59.7735018651552
59.8792926058562
60.0122332728438
60.1691981141625
60.3458863932758
60.5379353848209
60.7408937834121
60.9502011821927
61.1611739691888
61.3689980706924
61.5687290451267
61.755300060753
61.9235382698166
62.0681900137681
62.183955153308
62.2655306093993
62.3076629264765
62.3054914893867
62.259244470251
62.1734964116908
62.0530667342972
61.9028306674882
61.7276699869181
61.5324313216668
61.3218922685002
61.1007353051381
60.8735293014169
60.644718287147
60.4186170461445
60.1994130632913
59.9911743504226
59.7978627119942
59.6233520778053
59.4713802691098
59.3434131920794
59.2383191473095
59.1548834417188
59.0919520671233
59.0484237497468
59.0232427015047
59.0153919885127
59.023887444936
59.0477720712452
59.0861108654668
59.1379860443676
59.2024926188732
59.2787342945731
59.3658196740201
59.4628587428215
59.568962940078
59.6834720623198
59.806105905922
59.9366210533795
60.0747749670472
60.2203252621918
60.3730289982919
60.532641987198
60.698918117022
60.8716086908667
61.0504617797523
61.2352215893285
61.4256278402013
61.6214151619334
61.822312501012
62.0280425433125
62.2381163865754
62.4507055435982
62.6634021466344
62.8737308620749
63.0791505278931
63.2770565442215
63.4647854414066
63.6396217478244
63.798807260986
63.9395527977341
64.0590524621513
64.1545004230168
64.2231101364913
64.2621358849204
64.2688964305141
64.2415990191203
64.1827909389164
64.0964928727895
63.9867622022067
63.8576604779361
63.7132268722087
63.5574568402923
63.394285978281
63.2275789660394
63.0611234145403
62.898628394288
62.7437274043109
62.599985547187
62.4709107024999
62.3599685370369
62.2704624727688
62.2025109381223
62.1530944145717
62.1191106915905
62.0974971513465
62.0852170843016
62.0792490815466
62.0765794204888
62.0741973980893
62.0690935910052
62.0582610350651
62.0386993176597
62.0074215659126
61.9614642910437
61.8979000154349
61.8138525641506
61.7077651371898
61.5836193024176
61.4468671718482
61.3028875897906
61.1569693290706
61.0143037384436
60.8799863931704
60.7590273256286
60.6563694580263
60.5769149616906
60.5255594232041
60.5072339054186
60.5269552528769
60.5898853124527
60.7014001324581
60.8671554339412
61.0893542452971
61.361596780838
61.6762208326946
62.025412218616
62.4010987845231
62.7948626251905
63.1978719857222
63.6008352303767
63.9939799970205
64.3670611410577
64.7094012373849
65.0099671651533
65.2574855593603
65.4405986028192
65.5484752737344
65.5789251433966
65.5379290193176
65.4322156234721
65.2688390937937
65.0550505621325
64.7981825879037
64.5055487287443
64.1843595671318
63.8416556680889
63.4842572499154
63.1187298210211
62.7513646702258
62.3881728834588
62.0348914781585
61.6970002763826
61.3790318159683
61.0822324635323
60.8069767356732
60.553654140077
60.3226734173493
60.1144668644699
59.9294948021279
59.7682502277891
59.6312637008348
59.5191085113142
59.4324061899273
59.3718324239789
59.3381234524246
59.3320830230211
59.3545900063006
59.4066067749787
59.4887129862798
59.598195039766
59.7309049588568
59.8826728431244
60.0492822063322
60.2264451565125
60.4097833543817
60.5948149924178
60.7769481374952
60.9514808449498
61.1136084771834
61.2584386404475
61.3810140842041
61.4763437840827
61.5394422492047
61.5653908332317
61.5517385553053
61.5011737951796
61.417140333133
61.3031624478714
61.1628093880471
60.9996635822293
60.8172929036944
60.6192271648824
60.4089388931241
60.1898283366823
59.9652125692337
59.7383185014656
59.5122795693848
59.2901358485754
59.0748373399799
58.8692501837104
58.6757664932305
58.4946197403882
58.3253570762297
58.1675465800094
58.0207761398895
57.8846520023392
57.7587974247475
57.6428514220702
57.536467599247
57.4393130619455
57.3510673989177
57.2714217299109
57.2000778136595
57.1367472110133
57.0811504987289
57.0330165298829
56.9920817684916
56.9582427984639
56.9319098509516
56.9136024422662
56.9038452064017
56.9031694361038
56.9121147370043
56.9312308025716
56.9610793190708
57.0022360113336
57.0552928419204
57.1208603782427
57.1995703444473
57.2920783773705
57.3990670087065
57.5212488987546
57.6593703507728
57.8141669007653
57.9848873923929
58.168976295327
58.3637248267155
58.5663609114903
58.7740395726909
58.9838358769693
59.1927406205076
59.3976589668399
59.5954122630641
59.7827432629186
59.9563249723144
60.112773303327
60.2486636747608
60.3605516300422
60.4449974559398
60.4987892996414
60.52217653995
60.5183858033563
60.4908130520441
60.4429036370263
60.3781273223556
60.2999571268752
60.2118521290658
60.1172442888862
60.0195292677095
59.922061174176
59.8281511299014
59.741069533818
59.664051906526
59.6003082153371
59.5530356158175
59.5253836393665
59.5189213650848
59.5333709003043
59.5683898629204
59.6236773420236
59.698971706029
59.7940486367791
59.9087193686901
60.0428291144146
60.1962556605954
60.3689081191307
60.5607258209905
60.7716773410488
61.0017596436498
61.2509973397335
61.519442047319
61.8067619798251
62.1099717956983
62.4249173229947
62.7472774765862
63.072551067043
63.3960469485708
63.7128807750029
64.0179791084479
64.3060916364455
64.5718122126109
64.8096093337667
65.0138664956104
65.1789326235644
65.2991824539436
65.3690924594573
65.3857667834569
65.352745412586
65.2747512361359
65.1566618537846
65.0034472706777
64.8201141144927
64.6116571325814
64.3830184037262
64.1390544170236
63.8845109373443
63.6240053958754
63.3620164151107
63.1028799974625
62.8507918708904
62.6098154882069
62.3836261938611
62.1739078112702
61.9815006527213
61.8072426465409
61.6519781487297
61.5165636655493
61.4018738523977
61.3088078317397
61.238295881173
61.1913065519699
61.1688542889011
61.1720076340893
61.201898111423
61.2597299040789
61.3467904564931
61.4644553400827
61.6124958062911
61.7867859166765
61.9826106378292
62.1951800970586
62.4195984004303
62.6508395919202
62.8837311612433
63.1129456505189
63.3330010035325
63.5382703385301
63.723001797514
63.8813490229327
64.0074126286443
64.0952927609891
64.1391700504082
64.1363283129864
64.0905213326026
64.0064612049821
63.8889603719232
63.7428787642835
63.573077835232
63.3843819332657
63.1815471996788
62.9692379558991
62.7520103757302
62.5343031162143
62.3204345063012
62.1146058609731
61.9209104953099
61.7433480534814
61.5856972745467
61.449927108159
61.3368467742189
61.2472782817602
61.1820843466158
61.1421755948319
61.1285183046712
61.1421427803861
61.1841524654895
61.255733920352
61.3581678091885
61.492841065545
61.66126043413
61.8650676213024
62.1060563280767
62.3861699349501
62.7049090337571
63.0566939823139
63.4351742267596
63.8337379233474
64.2454563906494
64.6630414891985
65.0788177368376
65.4847113490634
65.8722586400768
66.2326362900163
66.5567158294172
66.8351442656482
67.0584520376747
67.2171884115
67.3044379166922
67.3240024588606
67.2829578850421
67.1886994261888
67.0488177754095
66.8709894982434
66.6628837870011
66.4320867158928
66.1860433574356
65.9320174895858
65.6770681668327
65.4280421432774
65.1915810085879
64.9741419109792
64.7820244430301
64.6188540945438
64.4817889684952
64.3670973651836
64.2711490054265
64.1903919556679
64.1213339074879
64.0605275344403
64.0045597280447
63.9500445736176
63.8936199672685
63.8319477989893
63.7617176341716
63.6796538176971
63.5825259016131
63.4671623024171
63.3319804743066
63.1809489138938
63.0192345029884
62.8519167306847
62.683975266339
62.5202856879232
62.3656229531946
62.2246722022796
62.1020465300644
62.0023114606268
61.9300159905095
61.8897302414949
61.8860899777747
61.9238485012758
62.0079367505823
62.1431704594491
62.3283288320854
62.556959400159
62.8224306717924
63.1180117188664
63.4367953743498
63.7716349374966
64.1150951971296
64.4594191335993
64.7965120901821
65.1179454892484
65.4149822721672
65.6786261231948
65.8996961543616
66.0689281152278
66.1796347591681
66.2345786158104
66.2389401493573
66.1981515826063
66.1178184893546
66.0036487621415
65.8613902779226
65.6967781267295
65.5154918599915
65.323122871231
65.1251517506589
64.9269352593466
64.733702446263
64.5505593777229
64.3824996988636
64.2327975900666
64.1002064083181
63.9827604167424
63.8785436896383
63.7856816675306
63.7023339624862
63.6266883347966
63.55695577889
63.4913666698963
63.4281679329661
63.3656212054835
63.3020019678741
63.2355996219418
63.1647184966651
63.0876797602413
63.0033566859012
62.9134570141889
62.820601414109
62.7273821344777
62.636361150399
62.5500710178814
62.4710177824821
62.4016858856567
62.3445450259571
62.3020589521357
62.2766961914448
62.27094274904
62.28731685372
62.3283858719102
62.396785566857
62.4950778867075
62.6226510989164
62.7759206653134
62.951182501245
63.1446959972737
63.3526589131313
63.5711865191929
63.7962951327939
64.0238902951933
64.2497599127275
64.4695727402935
64.6788826133772
64.8731388324014
65.0477030659356
65.197873063264
65.3193839302056
65.4113311910801
65.47433497108
65.5091057632253
65.516432123935
65.4971737947872
65.4522545838747
65.3826550997538
65.2894054272264
65.1735778290583
65.0362795514475
64.878645803869
64.701832976071
64.507012146733
64.295362929831
64.0682666811303
63.8282494458245
63.5782007747401
63.3209384963472
63.059201420209
62.7956451806234
62.5328404634731
62.2732734355372
62.0193481959514
61.7733910772042
61.5376566368889
61.3143352003902
61.105561837919
60.913426686152
60.7399865547395
60.5872777731763
60.4566971239901
60.3473612201238
60.2579205647712
60.1870805669928
60.1335934917871
60.0962511614109
60.0738783283103
60.0653266533186
60.0694692343017
60.085195640477
60.111407416423
60.1470140275329
60.1909292254746
60.2420678182332
60.2993428346041
60.361663419556
60.4281808671509
60.4987287601772
60.5732586999485
60.6517231976875
60.7340756005461
60.82027001903
60.9102612557105
61.0040047351136
61.1014564346812
61.2025728167063
61.3073107611479
61.4156274992371
61.5274805477907
61.6428276441522
61.7616266816865
61.8837968660375
62.0086595237552
62.1350561051593
62.2617966275756
62.3876715900121
62.5114519770999
62.6318897446061
62.7477188060772
62.8576565390873
62.960405827584
63.0546576539054
63.1390942501247
63.2123928134585
63.2732297845265
63.3202856803012
63.3522879459164
63.3691596300937
63.3722349131635
63.3629474399507
63.3427448230148
63.3130833375933
63.2754232585888
63.2312248591296
63.1819450819217
63.1290348875507
63.0739372781155
63.0180859901306
62.9629048474955
62.9098077634943
62.8601993802072
62.8154765510355
62.7771168359017
62.7468128787506
62.7262901528255
62.7172777244765
62.7215141449424
62.7407543282011
62.7767774554235
62.8313959642175
62.9064657014795
63.0038973427389
63.1256692090105
63.2738416451532
63.4505731626258
63.6581385956538
63.8989470430732
64.1737160352005
64.4781129863889
64.8068156876535
65.1543253273605
65.5149256649549
65.8826509462501
66.2512635429211
66.6142425283977
66.9647845622825
67.2958185271413
67.6000353234651
67.869934058331
68.0978855402213
68.2762139715004
68.3996106442006
68.4706492363993
68.4937748299712
68.4736599977799
68.4151424439468
68.3231676514718
68.2027375787747
68.0588661381995
67.8965419061582
67.7206982672684
67.5361909904227
67.3477830765477
67.1601366062489
66.9778112488874
66.8050430900841
66.6438099416063
66.4948453279913
66.3588670103756
66.2365935691623
66.1287475305227
66.0360586581499
65.9592674248628
65.8991286820133
65.856415548294
65.8319235435592
65.8264749977238
65.8409237697879
65.8761603176514
65.9331150339212
66.0119088741585
66.1105349206563
66.2266606798212
66.3579496591883
66.5020494665379
66.6565815134547
66.8191323287699
66.9872465161715
67.1584214146167
67.3301035398643
67.4996869001485
67.6645132882775
67.8218746556713
67.9690176768341
68.1033811690053
68.2232207631194
68.3269789371474
68.4131021399892
68.4800482060243
68.5262944223043
68.5503461965941
68.5507462596132
68.5260843195797
68.4750070719006
68.396228452023
68.2885400055576
68.1508212373192
67.9820497904248
67.7819305602897
67.5535328227194
67.3010000163251
67.0284224218943
66.7398114714156
66.4390799306111
66.1300270860214
65.8163286750867
65.5015312418244
65.189050568903
64.8821738263251
64.5840650845193
64.2977738624024
64.0262464161751
63.7723395198676
63.538726542534
63.3273255178603
63.1397613879259
62.9776630144888
62.8426778077468
62.736486589466
62.6608195323324
62.6174733515022
62.608329967361
62.6353769082816
62.700729780621
62.8066572027657
62.9556086838094
63.1502460293705
63.3934789822089
63.6877914495793
64.0289841484419
64.4088925460419
64.8190343741219
65.2505511960142
65.694128198449
66.139937213454
66.5776064506899
66.9962210559344
67.3843589067852
67.7301659088066
68.0214743555494
68.2459665684155
68.3913839788643
68.446908521315
68.4144871493725
68.3041495876151
68.1264824987677
67.8923034704435
67.6124706677568
67.2977260857657
66.9585739938803
66.6051943436058
66.2473895674588
65.8945623304358
65.5557213682211
65.2395124996743
64.9542721698448
64.7081014035117
64.5079343368746
64.3541318886354
64.2446436820588
64.1776214472166
64.1514019865202
64.1644863793842
64.2155215356193
64.3032837294764
64.4266638022399
64.5846537671428
64.7763345881012
65.0008649348975
65.2574707432142
65.5454354293451
65.8640775822144
66.2111594241686
66.5812678244311
66.9684126077755
67.3663342639718
67.7684730644722
68.1679497362192
68.5575592589517
68.929779495962
69.2767963939961
69.5905473676276
69.8627841890636
70.0851562126483
70.2493140605584
70.3476052524263
70.3814305080928
70.3594298975938
70.2906999801378
70.1844790833636
70.0500377177631
69.896592983846
69.7332475581768
69.5689530397545
69.4124969066163
69.2725120691364
69.1575079950626
69.0759226019255
69.036194548133
69.0459926488039
69.1038545021324
69.2028026054044
69.3358609828928
69.4960591572962
69.6763691839573
69.8696565110675
70.0686448336362
70.2658954746364
70.4538020755295
70.6246015011333
70.7704018469111
70.8832282652554
70.9550961608208
70.9817669182007
70.9684482231997
70.9219305511522
70.8490759779901
70.7567609498603
70.651832235665
70.5410762595218
70.43120170775
70.3288351117216
70.2405290219735
70.1727824056082
70.13207301276
70.1249016647021
70.1576167056363
70.2304906285757
70.3371633922225
70.4709662080582
70.6252002053589
70.7930902343961
70.9677512436774
71.1421675678865
71.3091856878674
71.4615211443639
71.5917802940904
71.6924974794232
71.7561879320627
71.7754178815179
71.745324630362
71.6686139230106
71.5495403555789
71.3924648744105
71.2018072374729
70.9820033462966
70.7374679024694
70.4725626414626
70.1915702205347
69.8986736903608
69.597941363424
69.2933168058505
68.9886136217164
68.6875137326271
68.3928997166051
68.1057152048098
67.8265601885955
67.5560161976865
67.2946481044542
67.0430059879051
66.8016270535504
66.5710376067615
66.3517550786475
66.1442901049157
65.9491486596079
65.7668342470527
65.5978501568442
65.4427017881782
65.3018960217494
65.1758518006245
65.0648875313519
64.9693296796068
64.889520976874
64.8258222491728
64.7786143473426
64.7483001927095
64.7353069534484
64.7400883686374
64.7631272389266
64.8049381049295
64.8660701369485
64.9471102625084
65.0486865614597
65.171202318206
65.3121832471097
65.4673528032391
65.6323471531012
65.802723738672
65.9739503644944
66.141400315098
66.3003538299535
66.4460062761915
66.5734833335095
66.6778634374903
66.7542076140632
66.797596677628
66.8031755591896
66.7662497880925
66.6854779258447
66.5648966711443
66.4091189333943
66.22279830367
66.010584674804
65.7770863465285
65.5268387929814
65.2642800709078
64.9937326879088
64.7193916315626
64.4453181805175
64.1754390746363
63.9135506089984
63.6633272317599
63.4283298699053
63.2109356889222
63.0109704404126
62.8279354712272
62.6613656482899
62.510827243835
62.3759159969441
62.2562553351739
62.1514947417725
62.0613082554895
61.9853930913162
61.9234683716788
61.8752739586548
61.8405693787173
61.8191328323446
61.8107602815736
61.8152201566132
61.8317598472101
61.8592833164224
61.8966967091634
61.9429110187532
61.9968387627737
62.0573910451067
62.1234749978632
62.193991600989
62.2678338808599
62.3438854921527
62.4210196897081
62.4980986989755
62.5739734949239
62.6474840000021
62.7174614138242
62.7828226525843
62.8426211016275
62.8959176751882
62.9417707711694
62.9792383269807
63.0073801577887
63.0252605719699
63.0319512554814
63.0265344134861
63.00810615393
62.9757800939058
62.9286911656224
62.8659995947002
62.7868950194066
62.6906007307662
62.5769270282032
62.4477088778037
62.3052294440506
62.1517516662657
61.9895098335508
61.8207028523998
61.647489165583
61.4719832637319
61.2962537190432
61.1223226633419
60.9521666300262
60.7877186807207
60.6308717423729
60.4834830886591
60.3473799105518
60.2243657033985
60.1158633978055
60.0221928267616
59.9434830708247
59.8798828940708
59.8315616480636
59.7987102602842
59.7815423148695
59.7802952343581
59.7952315721061
59.8266404261219
59.8748389862976
59.9401742284104
60.0230247698463
60.1238029037958
60.2429568307154
60.3809691133711
60.537359232789
60.7093336837924
60.8937276311809
61.0873130612703
61.2867865282197
61.4887602333835
61.6897566495584
61.8862069377606
62.0744534237027
62.2507564021891
62.4113055177746
62.5522359269061
62.6696493784313
62.7596402545824
62.8183264932022
62.842816073244
62.8352528393595
62.7995113062178
62.7395326093945
62.6592908359224
62.5627651643088
62.4539170045616
62.3366722250938
62.2149084460386
62.0924472984908
61.9730514963948
61.860426541217
61.7582268776262
61.6700663394278
61.5995327673793
61.5501765188143
61.5234470735673
61.5173679227836
61.529686786185
61.5581836661618
61.600658330698
61.6549194654713
61.7187754255055
61.7900265472327
61.8664590073005
61.9458402352497
62.0259159034024
62.1044085289192
62.1790177298713
62.2474221791216
62.3072832965699
62.3567978339199
62.3970676210742
62.4301709639829
62.4582017557874
62.4832647716539
62.5074729659659
62.5329461872045
62.5618113249669
62.5962039019874
62.6382711265356
62.6901764272649
62.7541055035776
62.8322739400558
62.9269364537568
63.0403978686191
63.1746745002976
63.3280433711016
63.4964443634477
63.6757192110939
63.8616265800316
64.0498296310356
64.2358892156643
64.4152630502028
64.5833112378514
64.7353084993877
64.8664634225617
64.9719449470242
65.0469161621512
65.0865753091067
65.0862036479099
65.042394929104
64.9575843803598
64.8360426954666
64.6821145472133
64.5001733239526
64.2945818118854
64.0696587961821
63.8296517013761
63.5787152229644
63.3208957687741
63.0601214304317
62.8001971405245
62.5448046369724
62.297506849264
62.0617563378818
61.8408868195318
61.6375047616097
61.4534134559776
61.2903576225969
61.1500799833521
61.0343346268398
60.9449014194193
60.8836015813451
60.8523145859027
60.8529965837849
60.8877006059559
60.9585988578727
61.0680074885673
61.2184143028331
61.4125099875451
61.6532235490617
61.94264387724
62.2765302921491
62.6482047047518
63.0507757054908
63.4770571025106
63.919496758951
64.370120548645
64.8204937007048
65.2617023619235
65.6843585945903
66.0786321860783
66.4343125052141
66.7409031264035
66.9877509920609
67.164690523378
67.270160977921
67.3101849982521
67.2914514580148
67.2209667057302
67.1059401821157
66.9536826151386
66.7715187878262
66.5667160479966
66.3464290168745
66.1176603808836
65.8872372286102
65.6618021220279
65.4478179584393
65.2515856734855
65.0783635299529
64.927503441876
64.7961111663222
64.68136834866
64.5805227086145
64.4908750632003
64.4097688195413
64.3345818012123
64.2627203052118
64.1916153115451
64.1187207843488
64.0415140130399
63.9574979445008
63.8642054531458
63.7592054851905
63.6405482015982
63.5097488259037
63.3699221776303
63.2241493168837
63.0754609726533
62.9268336196115
62.7811884452861
62.6413930740712
62.5102659170317
62.3905830292782
62.2850873789486
62.1965004628276
62.1275362429338
62.0809174259005
62.0593941630149
62.0657394306033
62.1009825962141
62.1632538119836
62.2504645628999
62.3605653610344
62.4915294990235
62.6413382608649
62.8079674798458
62.9893753731656
63.1834916184349
63.388207669354
63.6013683368598
63.8207646880443
64.044128338141
64.2691272306351
64.4933747879264
64.7148617486885
64.9320962199134
65.1435865490955
65.3478067870952
65.5431993896329
65.7281786976826
65.9011352257818
66.0604407797562
66.2044544160149
66.331529243393
66.4400200555257
66.5282917670463
66.5947286106683
66.6377440347072
66.656159325323
66.6503183289292
66.6209858308833
66.5689746802773
66.4951402719341
66.4003750187161
66.2856028685928
66.1517739166507
65.999859157494
65.8308454184066
65.6457305083687
65.4455186126582
65.2312159574329
65.003826763486
64.7643507820504
64.5140957944814
64.255074286002
63.9893501051777
63.7189293895556
63.4457576818374
63.1717183300079
62.8986320771361
62.628257745496
62.3622939215173
62.1023815524289
61.8501073719016
61.6070080801458
61.3745752134784
61.1542606490609
60.9474827021476
60.7556044729927
60.5789150898023
60.416373594171
60.2668908848581
60.1294138855123
60.002921252297
59.8864195292781
59.7789397149746
59.6795342090083
59.5872741125637
59.5012468604763
59.4205541662885
59.3443102646154
59.2716404376972
59.2016798151268
59.1335724374633
59.066472594778
59.0003505956036
58.9372136332472
58.8793682040439
58.8291047661796
58.7887028078196
58.7604376692324
58.7465891199731
58.749451717341
58.7713470033863
58.8146376351587
58.8817435874429
58.9751606200269
59.0974812642084
59.2514186579161
59.4398336484187
59.6657653519374
59.9307927495355
60.2310685079959
60.5615215785032
60.9169285051757
61.2918601291833
61.6806363244267
62.0772896243471
62.4755389408347
62.8687748614214
63.2500582216223
63.6121337610969
63.947460656486
64.2482615496145
64.5065913280725
64.7144476383923
64.8674740132492
64.9691898329378
65.0244024456921
65.0381696183771
65.0157305766338
64.9624434203931
64.8837301419016
64.7850300896537
64.6717623771258
64.5492974436759
64.422937744589
64.2979073814703
64.1793503828577
64.0723373054558
63.9818686505321
63.9110214660191
63.8588878938891
63.8240917617388
63.8052923127866
63.8011772625705
63.8104565151118
63.83185648745
63.8641150022153
63.9059767173362
63.9561890702658
64.0134987213673
64.0766484874444
64.1443747618905
64.2154054226101
64.2884662858002
64.3630028498635
64.4397620194899
64.5196335004181
64.603516458425
64.6923205331818
64.7869671154328
64.8883908970267
64.9975417050767
65.1153866336432
65.2429124888624
65.3811285664201
65.5310697837566
65.6938001934321
65.8704169087785
66.0619825660417
66.2689002190905
66.4912042770057
66.7289416695752
66.9821759337744
67.250987060627
67.5354713844466
67.8357415129287
68.1519262967671
68.4841708376602
68.8326365337536
69.1975011617235
69.5789589948692
69.9772209567198
70.3915588392979
70.8173440747141
71.2487416977207
71.6796258386776
72.1035709592377
72.5138541856176
72.9034701218163
73.2651594874229
73.5914527757888
73.8747298502364
74.1072959748313
74.2814742058318
74.3897152221469
74.4276775638347
74.4003388123305
74.3147065662051
74.1780213825276
73.9976520636675
73.7810038777123
73.5354410585326
73.2682242433227
72.9864629286837
72.6970825753369
72.4068056695771
72.1221458514766
71.8494141350167
71.5943949814327
71.3594438751759
71.145049791557
70.9516974998519
70.779891691322
70.6301606529184
70.5030601087965
70.3991772610615
70.3191350648716
70.26359677726
70.2332708239032
70.2289160336856
70.2513472974203
70.3014414046859
70.3786190092349
70.4772831495635
70.5907651293623
70.7123343916677
70.8351762613114
70.9523825510474
71.0569554611442
71.1418252269128
71.1998818819018
71.224021300376
71.2072053583907
71.1425356112281
71.0233393374459
70.8436265046843
70.6049625893932
70.315711136058
69.9844718397853
69.6197250384715
69.229746536719
68.8225437389323
68.4058121336609
67.9869106690615
67.5728542661003
67.1703216056103
66.7856763669505
66.4250002591565
66.0941364426553
65.7987422686491
65.5430520747998
65.3250517004717
65.141029798627
64.9874587222619
64.8609608678335
64.7582793251058
64.6762526621228
64.611793412538
64.5618699355642
64.5234914027879
64.493695734059
64.4695403588164
64.4480957210372
64.4264414765083
64.4016653781468
64.3718417083102
64.3386084767862
64.3044067579912
64.271667694301
64.2428126941195
64.22025545791
64.206405816872
64.2036753782338
64.2144849861075
64.2412740275842
64.2865116404348
64.3527099118327
64.4424391975906
64.5583457394794
64.7031632527942
64.8775916252049
65.077414837336
65.2976622442273
65.5332654453252
65.7790287821248
66.0296074579707
66.2794937952104
66.5230122735338
66.7543240676567
66.9674418137976
67.1562552729964
67.3145684158748
67.4361482204956
67.5147851487254
67.5460336841654
67.5329493082205
67.4807746240915
67.3948685822906
67.2806492100494
67.1435445183316
66.9889520340138
66.8222071628854
66.6485603479316
66.4731628065128
66.3010605094317
66.1371960017908
65.9864176556977
65.8534959834357
65.7430894478439
65.6572443644186
65.594451988306
65.5530009178042
65.5312317410125
65.5275267525686
65.5403006791603
65.5679923238088
65.6090570581056
65.6619601082878
65.7251705956134
65.7971563042496
65.8763791610013
65.9612914208381
66.050332560405
66.1421641627662
66.2369647047952
66.3355234064735
66.4386413002222
66.54713075644
66.6618167194823
66.783538160407
66.9131497569444
67.0515238128779
67.1995524310475
67.3581499565486
67.5282557094268
67.7108370293223
67.9068926581433
68.1171374175082
68.3392098722825
68.5689423463236
68.8020388941015
69.0340863948025
69.2605520947488
69.4767869939339
69.6780354750478
69.8594515414905
70.0161219608925
70.1430964993511
70.2354252770949
70.2882030787696
70.2966205640449
70.2577377119578
70.1744949355116
70.0511545961343
69.8920692906356
69.7016361471321
69.4842561963721
69.2442992032544
68.9860741487902
68.7138053854803
68.4316143520218
68.1435066273159
67.853364028145
67.564941407649
67.2818677900845
67.007524572068
66.7441964218503
66.4936373803372
66.2575537513784
66.0376147608326
65.8354611304284
65.6527143603699
65.4909867253442
65.3518920092251
65.2370570258817
65.1481339974519
65.0868138877215
65.0548408174965
65.0540277218809
65.0862734132167
65.1523570615211
65.2486948864091
65.3707288224159
65.5138986302301
65.6736083859609
65.8451992182821
66.0239283513348
66.2049546563379
66.3833310239954
66.5540039406815
66.7118206802938
66.8515445059733
66.9678782068586
67.055496170582
67.1095219070373
67.1293698178496
67.1169272747423
67.0742018953809
67.0032768007152
66.9062927386033
66.785431166949
66.6428984836941
66.4809115500896
66.3016846142537
66.1074177051686
65.9002865337631
65.6824339081527
65.4559626447834
65.2229299363057
64.9853578289908
64.7452735821426
64.5046623851649
64.2654520270041
64.0295136776684
63.7986637705736
63.5746669013543
63.3592396657455
63.1540553681652
62.9607495434013
62.7809262460975
62.6161650763709
62.4680289247876
62.3380724360661
62.2278512083437
62.13885946571
62.0713560763955
62.0245738166821
61.997757987321
61.9901957172646
62.0012115286171
62.0301632316765
62.0764381101989
62.1394493618283
62.2186327628302
62.3134435299567
62.4233533555139
62.5478475945842
62.6864225859321
62.838583090435
63.0038246848126
63.1805785121984
63.365490946882
63.55497100759
63.7453429308493
63.9328423689535
64.1136169257479
64.2837313012483
64.4391773046655
64.575888959087
64.6897628577004
64.7766838394772
64.8325559312096
64.8533383537015
64.8350862156316
64.7741740600978
64.6712605369111
64.531242411616
64.3592518998764
64.1604244019868
63.9398533890118
63.7025536192858
63.453432667823
63.1972705393935
62.9387069815016
62.6822360137874
62.4322071408524
62.1928327104241
61.9682009120255
61.7622939771128
61.5790112351009
61.4215684282759
61.2898483030228
61.1827015009565
61.0990511591238
61.0378855900383
60.9982509882157
60.9792447695788
60.9800094635099
60.9997270881141
61.0376139485279
61.0929158061252
61.164903373433
61.2528680956616
61.3561181851153
61.4739748795124
61.6057629920039
61.7503973496699
61.9061018401926
62.071011418404
62.2432282486153
62.4208162817691
62.6017969484449
62.7841460278157
62.9657917632317
63.1446143027034
63.3184465468131
63.4850764870759
63.6422511140686
63.7876819663081
63.9190523775001
64.0340386643815
64.1311666967423
64.2103841125417
64.2718002742753
64.3155560102814
64.3418227022648
64.3508012534195
64.3427209465057
64.3178382018911
64.2764352460854
64.2188187016902
64.1453181099488
64.0562843972134
63.9520882966577
63.8331187364544
63.6997838266506
63.5528222488681
63.3935896048828
63.2235020530257
63.0439603920369
62.8563458745022
62.6620166714866
62.4623049727882
62.2585147016009
62.0519198179799
61.843763182294
61.6352559477393
61.4275774498863
61.2218755610319
61.0192674777393
60.8208409112642
60.6276635793439
60.4410249392795
60.2624748138565
60.0935465681835
59.9357450593943
59.7905522358293
59.6594334109567
59.5438442050082
59.4452381612546
59.3650750591031
59.3048299629356
59.26600306408
59.2501303938799
59.2587955089704
59.2936422761999
59.3563889149298
59.4488249287839
59.5711590247131
59.7206658317639
59.8943256282262
60.0891059071473
60.3019370973969
60.5296911829785
60.7691632429813
61.017056023185
61.2699677280602
61.524383288076
61.776669410359
62.02307375858
62.2597286276356
62.4826594769581
62.6877986596702
62.8717064699882
63.0340075938994
63.1752241596492
63.2959356885777
63.3967748840841
63.4784232909596
63.5416068541074
63.587091427357
63.615678280659
63.6281996509454
63.6255143784672
63.6085036665811
63.5780669988789
63.5351182433133
63.4805819686991
63.4154088339751
63.3406743039227
63.2575012209347
63.1670086251114
63.0703089234405
62.9685055830102
62.8626912252647
62.7539461151433
62.6433370364929
62.5319165432964
62.4207225749867
62.3107784233879
62.2030930386229
62.098661661594
61.9984667713732
61.9034716550407
61.8142028047299
61.7305413483788
61.652319367635
61.5793732275691
61.5115433060885
61.4486737367434
61.390612164106
61.337209510964
61.2883197566314
61.2437997257326
61.2035088868675
61.1673091606098
61.1350647363375
61.1066418974312
61.0819088544181
61.0608160698027
61.0444074833658
61.0345134166282
61.0329826758669
61.0416696684161
61.0624400518445
61.0971775467357
61.1477919565241
61.216228457316
61.3044782438409
61.4145906451684
61.5486868563164
61.708975470325
61.8977700410385
62.1175089613511
62.3707647347267
62.6580193469295
62.9750217460507
63.3167932513574
63.6781794013522
64.0538091472452
64.4380617598578
64.8250423808062
65.2085673831435
65.5821608837105
65.9390638520489
66.2722572682694
66.5745006724088
66.8383871987871
67.0564157826537
67.2225066401554
67.338292120108
67.408182214399
67.4368297886179
67.4290681999928
67.3898554687805
67.3242245176818
67.2372402602479
67.1339640398515
67.0194256779589
66.8986031915419
66.7764100883783
66.6576900467023
66.5472187310799
66.4496045531572
66.36653152238
66.2965638518631
66.2381377104704
66.1897130282978
66.1497685092556
66.1167973941979
66.089303945224
66.0658006293551
66.0448059858965
66.0248431665275
66.0044391405694
65.9821245600166
65.9564342797942
65.925908528354
65.88952608039
65.8485592262348
65.805030769957
65.7609543924808
65.7183332385624
65.6791602090388
65.6454194640374
65.6190891232237
65.6021451545345
65.596566451212
65.6043411083221
65.6274739243806
65.667995171378
65.727970697637
65.8094778815029
65.9121528015123
66.0315530078338
66.1628175059242
66.3010230443432
66.4411696634575
66.5781735713546
66.7068676538646
66.8220099489705
66.9183003889653
66.9904060327214
67.0329948725088
67.0407781039531
67.0085604958745
66.9312981947085
66.8057939257276
66.6362289134306
66.4288370338775
66.1898518915577
65.9254445143811
65.6416730271774
65.3444441876821
65.0394863870617
64.7323334763504
64.4283186305123
64.132577394263
63.8500590573779
63.585545570718
63.3436773271896
63.1289852856552
62.9454736997947
62.7931833201135
62.6702150742453
62.5747628100836
62.5051145148976
62.459638168161
62.4367689798689
62.4349978367009
62.4528608087051
62.4889295950686
62.5418028098275
62.6100980277222
62.6924445273354
62.7874766835896
62.8938279749442
63.0101224131665
63.1348996579644
63.266609235168
63.4036757367859
63.5444987383006
63.6874503236519
63.8308734078525
63.9730808943082
64.1123557069821
64.246951738787
64.3750957568317
64.4949903022207
64.6048176168455
64.7027446218643
64.7869289622571
64.855693032829
64.9091699032566
64.9486176445832
64.9753358387169
64.990644544064
64.9958793706199
64.9923870559504
64.9815215681108
64.9646407544694
64.9431035491376
64.9182677463614
64.8914883428325
64.8641164484708
64.8374987628258
64.8129776128369
64.7919364699932
64.776018287705
64.7669596515483
64.766499041861
64.7763808572587
64.7983605185235
64.8342105457977
64.8857276459074
64.9547408619798
65.0431208556509
65.152790413475
65.2857362941619
65.4440225626676
65.6298055918355
65.8453251464478
66.0905943359061
66.3614626985284
66.6532539269754
66.9611582177247
67.2802028467143
67.6052293263284
67.9308777662234
68.2515791959068
68.561556698353
68.8548362415269
69.1252680674029
69.3665593944604
69.5723189993174
69.7363276270779
69.8573270779407
69.9391479639717
69.9860168298771
70.0022981861498
69.9924534233821
69.9610046359773
69.9125038525781
69.8515079945718
69.7825597340282
69.7101743023404
69.638832212746
69.5729778044083
69.5170234923987
69.4749370656158
69.4461257457804
69.4272366319105
69.4148951805178
69.4057369304571
69.3964027838932
69.3835375484649
69.3637917269257
69.3338265398864
69.2903221535025
69.229989057237
69.1495824976049
69.0459198228267
68.9159005318011
68.757126199498
68.5724861231568
68.3675233504503
68.1477205699574
67.9184510118172
67.6849605284488
67.4523582011984
67.2256149650064
67.009569714954
66.8089423798886
66.6283535130655
66.4723500525096
66.3454370405924
66.2521152610421
66.1969008456092
66.1814839024493
66.2020239435788
66.2541450333095
66.3335428833722
66.4359461962593
66.5570837785043
66.6926571665472
66.8383186728186
66.9896548944791
67.1421758333127
67.2913098523642
67.4324047414433
67.5607351771206
67.6715170488102
67.7609542633559
67.8286599323304
67.8749944056356
67.90036153538
67.9052060278051
67.890010658387
67.855293377617
67.8016043348013
67.7295228466877
67.6396543368872
67.5326272709255
67.4090901103793
67.2697083079648
67.1151613636909
66.9462794177217
66.7651052011652
66.5742737802759
66.3763784549918
66.1739595418557
65.9695004079039
65.7654254620519
65.5640999933631
65.3678317434718
65.1788741038849
64.9994308372627
64.8316622345033
64.6776926360226
64.5396192656697
64.4195223489935
64.3192117809719
64.2388079843378
64.1777938233368
64.1356891663396
64.1120498620124
64.1064652536387
64.1185558948543
64.1479714460715
64.1943887330472
64.2575099509556
64.3370609989886
64.4327899319765
64.5444655168016
64.6718758825048
64.8148272378117
64.9725589299892
65.1421761749492
65.3202468704794
65.5032697880084
65.6876668091466
65.8697789134146
66.0458661400084
66.2121117582057
66.3646308735448
66.4994836681782
66.6126934219688
66.7002693846234
66.7582344679312
66.7826576016318
66.7700692654766
66.721688410624
66.6418673332896
66.535069139903
66.4057747974079
66.2584505143982
66.0975211877143
65.9273499487489
65.7522237129612
65.5763445404365
65.4038265538878
65.2386981312576
65.0849090903919
64.9463426103202
64.8268316848857
64.7294987950751
64.6530954202982
64.594696986857
64.551428425969
64.520453823693
64.4989643984641
64.4841690279187
64.4732872477952
64.4635446759817
64.4521708358861
64.4363993655588
64.4134706025671
64.380636529602
64.335168052283
64.2743645588077
64.1963284223844
64.103242472015
63.9986177909862
63.8859369848106
63.7686429240083
63.6501321507004
63.5337519940581
63.4228012655423
63.3205344008485
63.2301689269072
63.1548961581555
63.0978950657663
63.0623493161699
63.0514675410856
63.0685069811435
63.1164559845371
63.1946776769634
63.3003339379631
63.4305908317188
63.5826268932816
63.7536116828932
63.940686807007
64.1409493535812
64.3514377571723
64.5691201688782
64.7908854574108
65.0135370101158
65.2337895357122
65.4482690926043
65.6535166729234
65.8464728074721
66.0256147033879
66.1897382467664
66.3376385224616
66.4681151127988
66.5799778079123
66.6720526984646
66.7431886132103
66.7922638553653
66.8181931832019
66.8199349719195
66.7964984858685
66.7469511828668
66.6704259658987
66.5663483011861
66.4368659220256
66.2859047607202
66.1174013685806
65.9352488151261
65.7432790834565
65.5452501532337
65.3448376083275
65.1456305566331
64.9511316223299
64.7647607640027
64.5898626834526
64.4297176176369
64.2875553481805
64.1665723179172
64.069825984083
63.9990305464241
63.9551183943424
63.9390703042917
63.951935947336
63.9948433176704
64.0690090656467
64.17574988718
64.3164951463947
64.4928009382433
64.7063658336995
64.9590485933754
65.2528881877743
65.5901265260532
65.9732319769733
66.4031714960005
66.8761705659094
67.3874891650122
67.9321645736627
68.504946666275
69.1002385415162
69.7120434769026
70.3339196255599
70.9589442896047
71.5796899889153
72.1882148697201
72.7760702294534
73.3343280775
73.855366370125
74.337700751569
74.78143358572
75.1868537273253
75.5544312605307
75.884810644933
76.1788024401613
76.4373737995128
76.6616379370512
76.8528427808025
77.0123590274267
77.1416678113658
77.2424016916184
77.3171012788187
77.369028932165
77.401526861951
77.417981737464
77.4218091378514
77.4164408967863
77.405315431357
77.3918711044175
77.3795426393345
77.3717605870203
77.3719538374591
77.383546954413
77.4079210180467
77.4417169261381
77.4809022767803
77.5214320747374
77.559245196952
77.5902650948491
77.6104047746779
77.6155760846489
77.6017033061284
77.5647409956513
77.5006959554724
77.4056531239547
77.2765672719781
77.1164801761888
76.9312679565603
76.726772926154
76.5087541961049
76.2828641003144
76.054633370604
75.8294646644563
75.6126339864232
75.4092995339414
75.2245175334493
75.0632647083807
74.9304671327692
74.8297128086661
74.758824799262
74.7141256733142
74.6920153090569
74.6889475314231
74.7014103756227
74.7259098237072
74.7589568888528
74.7970579800762
74.8367085245351
74.8743898560465
74.9065693971371
74.9297064585103
74.9411761867387
74.9406815296809
74.928297422576
74.9041100635768
74.8682166506575
74.8207250947488
74.7617537104738
74.6914308859375
74.6098947330875
74.5172927202212
74.4137812882606
74.2995254524485
74.1746990161766
74.0395887233217
73.8947088568845
73.740603069688
73.577814524562
73.4068846819492
73.228352168453
73.0427517275587
72.8506132531126
72.6524609055475
72.4488123103014
72.240177837383
72.0270599606047
71.8099526946182
71.5895591462251
71.3679618676383
71.1477421386355
70.9314194887455
70.7214526518759
70.5202436065669
70.3301432054607
70.1534583058914
69.9924603325071
69.8493952253935
69.7264947531047
69.6259891992869
69.550121464396
69.5011626330144
69.4804336106014
69.4856914458943
69.5139274201412
69.5621728790893
69.6274807654899
69.7069097677527
69.797510986299
69.8963170715793
70.0003338309821
70.1065343363935
70.2118555900618
70.3131978234671
70.4074265116821
70.491416595519
70.5635010888511
70.6239053914062
70.6729922962509
70.7111380168476
70.7387309699558
70.7561705712879
70.7638660502655
70.7622352897685
70.7517036962895
70.7327031054122
70.7056707270324
70.6710481342372
70.6292802992593
70.5808712978473
70.5267279102607
70.467928002182
70.405545227444
70.3406470966243
70.2742940722054
70.2075389889779
70.1414267942097
70.0769946015907
70.0152720528586
69.9572819812866
69.9040413718715
69.8565626140742
69.815855028382
69.7828484936122
69.7582146072345
69.7425750170535
69.7365568729519
69.7407945103035
69.7559312624725
69.7826214103646
69.821532278523
69.8733464889608
69.9387643857995
70.0185066458828
70.1133170928728
70.2239657349717
70.351208960637
70.4942140301878
70.650073445241
70.8157060637195
70.9879808336739
71.1637091195569
71.3396397688735
71.5124570555628
71.6787816511054
71.8351747778323
71.9781456901329
72.1041626071079
72.2096671837487
72.2910940532424
72.3459778371536
72.3748993525254
72.3790131360724
72.3595269610325
72.3176937537101
72.2548037065726
72.1721766642325
72.0711548487919
71.9530959809398
71.8193668431108
71.671337321185
71.5103749518094
71.3378399936163
71.1550410236492
70.9627914189699
70.7615805234509
70.5518905638061
70.334201386167
70.1089894792972
69.8767270650479
69.6378812564642
69.3929132834814
69.1422777857258
68.886422171543
68.6257860420317
68.3608006785514
68.0918885919029
67.8195305464128
67.5455294527879
67.2728522127155
67.0044164832921
66.7430473573403
66.4914830924734
66.2523830119905
66.028337411228
65.8218793357621
65.6354981358713
65.4716547444287
65.3327986727546
65.2213867711461
65.1399038584494
65.0908853892499
65.076364868943
65.0939396006211
65.1391556388627
65.2076000822683
65.2948790023177
65.3965887599464
65.5082932269211
65.6255068925062
65.7436839494488
65.8582135338876
65.9644213403629
66.0575778436657
66.1329133313483
66.185639881997
66.211002671752
66.2063174197331
66.1725842445303
66.1112494317461
66.0238203871885
65.9118537387804
65.7769438506192
65.6207118691968
65.4447954020649
65.2508389094917
65.0404848704038
64.8153657656144
64.5770969043458
64.3272701046333
64.0674482245276
63.7991627173398
63.5241700325152
63.2446821441835
62.9628982521964
62.6809436637428
62.4008697706804
62.124655415884
61.8542095235427
61.5913748758811
61.3379329292071
61.0956095749819
60.8660817663009
60.6509849464322
60.4519212336281
60.2704683351645
60.1081891834501
59.9666397398337
59.8470732175874
59.7501663200667
59.6765658799447
59.626963984531
59.6021038376483
59.6027860999061
59.629875786362
59.684309812032
59.7671052892473
59.8793686968983
60.0223060606696
60.1972343061069
60.4055939735668
60.6489635167681
60.9290754460372
61.2476359081437
61.6025248551109
61.9878780601646
62.3974564118381
62.8247181106141
63.2627671115999
63.7043145184581
64.141655002254
64.5666606755216
64.9707950654141
65.3451498529747
65.6805068262806
65.9674269827679
66.1963678695205
66.3578297133803
66.4457969750908
66.4655224670501
66.4249639862008
66.332398791495
66.1962849713005
66.0251416241475
65.8274500190693
65.6115767567294
65.3857190185743
65.1578712948882
64.9358125275892
64.7271123776553
64.5391553087416
64.3791813434061
64.2543393209625
64.1693376553589
64.1222784070476
64.1102669950136
64.1305342765791
64.1804075199572
64.2572844259268
64.3586098148423
64.4818546874949
64.6244974474346
64.7840071409732
64.9578286311474
65.1433696748377
65.3379899188373
65.5389918714201
65.7436734075055
65.9506413471807
66.1598521354899
66.3713215199954
66.5850654544054
66.801100099107
67.0194418216818
67.2401071974014
67.4631130097013
67.6884762506319
67.9162141212828
68.1463440321803
68.3788836036539
68.6138506661719
68.8511947981399
69.0894887979331
69.3259893536836
69.5578302087413
69.7820708956608
69.9957012678534
70.1956486855793
70.3787879867368
70.5419543428766
70.6819590595478
70.7956083271728
70.8797248642799
70.9311723198448
70.9468822170901
70.9247062708764
70.8659053670971
70.772667864503
70.6472648685479
70.4920295854072
70.3093377332028
70.101589230644
69.8711913350408
69.6205433549341
69.3520230187407
69.0679745407827
68.7706983905928
68.4624427408441
68.1453965438533
67.8219500045464
67.495811755536
67.1710123024148
66.8514302865539
66.5407977592727
66.2427098972559
65.9606384579005
65.6979486310422
65.4579190173376
65.2437645484157
65.0586622585369
64.9057799216926
64.7883076827098
64.7094929380229
64.6726784766978
64.6794404003327
64.7251960737857
64.8041748803056
64.9106642958608
65.0389555781197
65.1832995732017
65.3378724530121
65.4967514893315
65.6539011919262
65.8031702854692
65.9383000690972
66.0529446858176
66.1407037189861
66.1951673232014
66.2102466450767
66.1847223464644
66.1215545930786
66.0239442594909
65.8951703905445
65.7385585304706
65.5574519987831
65.3551863971552
65.1350675205172
64.9003527467163
64.6542358943168
64.399835468543
64.1401861612041
63.8782334312015
63.6168309669559
63.3587373860852
63.1065151703012
62.8625207724795
62.6290329239715
62.4082676587405
62.2023874251367
62.0135115568129
61.84372804765
61.6951066087386
61.5697130216922
61.4696248421468
61.3969485508094
61.3538382977476
61.3425164400126
61.3652961348429
61.4246063227966
61.5222507190212
61.6547105697634
61.8161442647328
62.0006659785522
62.2023037497919
62.4149590476832
62.6323775793873
62.8481319642203
63.055617104423
63.2480591865361
63.4185392393481
63.5600320385595
63.6654608710993
63.7277682445257
63.7400020487298
63.6962467496683
63.5981020522938
63.4511274214176
63.2610579432381
63.0336934944427
62.774828420392
62.4901917518582
62.1853983182318
61.8659107083137
61.5370117086708
61.2037866150712
60.8711146602863
60.5436687234504
60.2259224720792
59.9221641270475
59.6365161230504
59.3727427825015
59.1315784090615
58.9116766311116
58.7117206165882
58.5304617762308
58.3667119958508
58.2193366428698
58.0872482591705
57.9694008651574
57.8647848109319
57.7724221199413
57.6913622786197
57.6206784325844
57.5594639560773
57.5068293666519
57.4618995617426
57.4238113577791
57.3918631899679
57.3661659904461
57.347100168748
57.3350496788705
57.3304027737399
57.3335529879165
57.3449001838852
57.3648516662253
57.3938233686296
57.4322411194881
57.4805419925714
57.5391757502575
57.6086063877521
57.6893137878728
57.7817954972217
57.8865686359708
58.0041569426223
58.1342672499154
58.2753424433373
58.4257006005297
58.5836328341381
58.7473980224971
58.915218495257
59.0852767208743
59.2557130531087
59.4246246015153
59.5900652961136
59.7500472186152
59.9025432714546
60.0454912510102
60.1767993824789
60.2943533605734
60.3961106145819
60.4827302334985
60.5580958422792
60.6263303001208
60.6916017648337
60.7581168607831
60.8301196007559
60.9118962038454
61.0077859632093
61.1221983648679
61.2596367437554
61.4247288892773
61.6222651846397
61.8572450897032
62.1349330671027
62.4609248780703
62.8385266605911
63.2623141485002
63.7248131731116
64.2182009192688
64.7342065360702
65.264028668498
65.7982728469104
66.3269125986391
66.8392788818571
67.3240828964477
67.7694773868708
68.1631610920163
68.4925298941977
68.7448789686729
68.9117705124865
68.9977406044835
69.0103346497395
68.957613297687
68.8479905552124
68.6900864087327
68.4925977776184
68.2641902690602
68.0134119905434
67.7486296625196
67.4779864933221
67.2093807389925
66.9504635625621
66.7086547092258
66.490781861568
66.2993167578772
66.1341671466297
65.9952617445305
65.8825876165884
65.7961907593565
65.7361770226318
65.7027133829941
65.6960295865754
65.7164201827926
65.7642469755561
65.8399419237709
65.9440105288898
66.0770357539943
66.2396756544733
66.4309469891972
66.6458932098327
66.878909205784
67.1242607473458
67.376056613994
67.6282304023271
67.8745327425945
68.1085347606481
68.3236436500442
68.5131311546663
68.6701755935698
68.7879177770105
68.8595307607808
68.8783338587984
68.8416023529274
68.7541387501833
68.6217669506212
68.4504165652218
68.246052466971
68.0146142650556
67.7619662307446
67.4938578079612
67.2158945219675
66.9335188594724
66.6520005310317
66.3764354363413
66.1117526271791
65.8627285926913
65.6337696320142
65.4263200412482
65.2399310773236
65.0741645083239
64.9286249065116
64.8029576444514
64.6968471121616
64.6100151388344
64.5422196047542
64.4932532309339
64.4629425356866
64.4511469489039
64.4577580762292
64.4826991066273
64.5259243580715
64.5872536389737
64.6652344510328
64.757810615584
64.8629195903912
64.9784872337809
65.1024202344633
65.2325998340243
65.3668768658145
65.5030681495429
65.6389542930417
65.7722789611979
65.900749676678
66.0220402174681
66.1337946720639
66.2336371326478
66.3195319429934
66.3900766369178
66.4439436773242
66.4798213389585
66.4964204246492
66.4924813972832
66.4667818699934
66.4181443863955
66.3454444122834
66.2476184502923
66.1236721799731
65.9726885178575
65.7938354857457
65.5863737709566
65.3498932977961
65.0871726360381
64.803190377068
64.5028642379244
64.1909750108278
63.8721481615592
63.5508426782522
63.2313466082847
62.9177786845201
62.614095444834
62.3241032841956
62.0514749405041
61.7997699987099
61.5724590983743
61.3729516449621
61.2046269534451
61.0700228462159
60.9676604419912
60.8949572315028
60.8494440849059
60.8287428393809
60.8305461775927
60.8525997492151
60.8926863025709
60.9486116498783
61.0181923377412
61.0992449357792
61.1895768916598
61.2869789309765
61.3892190058179
61.494037816704
61.5991553043262
61.7027833998236
61.8039014097776
61.9015416497558
61.9947254536589
62.0824643712128
62.1637616881287
62.2376142743962
62.303014763944
62.3589540662067
62.4044242069847
62.4384214923789
62.4599499855656
62.4680252817717
62.4616785620845
62.4399609017393
62.4024087621468
62.3506062881405
62.2867023129484
62.2128443459336
62.1311710607225
62.0438062921007
61.9528545190439
61.8603978117228
61.7684942096481
61.6791774916858
61.5944582962859
61.5163265517267
61.4467551812585
61.387705056563
61.3411311847656
61.308979447897
61.2924577351301
61.2915676242137
61.3062208691339
61.3363528078628
61.381922006596
61.4429099927821
61.5193210746845
61.6111822458335
61.7185431733223
61.8414762694834
61.9800768470543
62.1344633585185
62.3047777208797
62.4911857277232
62.6938775510204
62.9124363262858
63.1439051823561
63.3846105618549
63.6307716581905
63.8784904443299
64.1237462048485
64.3623949532698
64.5901741382177
64.8027130364197
64.9955491940845
65.1641512068224
65.3039480190233
65.4103647747223
65.4788650636793
65.5050557054881
65.487832270238
65.4310004529031
65.3388842398191
65.2158841558501
65.0664336492459
64.8949611783144
64.7058583130604
64.5034539694913
64.2919947325061
64.0756310972126
63.8584093680844
63.6442688989103
63.4370443312922
63.2404724922742
63.0582024522638
62.8929560572359
62.7450649452332
62.6144775090892
62.5011684358311
62.4051388816364
62.3264167500862
62.26505707675
62.2211425239534
62.19478399045
62.1861213416574
62.1953242671262
62.2225932730196
62.268160818592
62.3322926069945
62.4152890422215
62.5173822521833
62.6379268527731
62.7758263255179
62.9299884758338
63.0993230133334
63.2827356499528
63.4791225552698
63.6873651551076
63.9063252676289
64.1348405788
64.3717204663873
64.6157421885818
64.8656474599218
65.1201394433828
65.3778801400859
65.6372252240617
65.8955971298781
66.1501531518951
66.3979647551656
66.6360214067204
66.8612371929169
67.0704603915664
67.2604861383838
67.42807228527
67.5699584924339
67.6828885272444
67.7636356605175
67.8090309570057
67.8159941533966
67.7824817635435
67.7114438459209
67.6075338184048
67.4754560127151
67.3199230947012
67.1456209701317
66.9571803438861
66.759154931066
66.5560061745194
66.3520942190632
66.1516748268802
65.9589018884493
65.7778351855949
65.6124530942833
65.4666563170957
65.3426576743837
65.2394872256565
65.1558606092753
65.0905416458637
65.0423353295808
65.0100814453376
64.992648749159
64.9889296591653
64.9978354136113
65.0182916602911
65.0492344485474
65.0896066012546
65.1383544495805
65.1944249181481
65.256764316837
65.3243420234598
65.3961467473147
65.4711609822122
65.5483588819487
65.6267053843998
65.705155655441
65.7826548603348
65.858138270784
65.9305317159677
65.9987523855359
66.0617099917145
66.1183082963479
66.16744700687
66.2080240423269
66.2389201624102
66.2589543016282
66.2669376140245
66.2616924601122
66.2420568880699
66.2068894803045
66.1550745327419
66.0855275273102
65.9972008510651
65.8890897084321
65.7602381663015
65.6097452653938
65.436771125635
65.2405429684473
65.0203763518534
64.7770467535002
64.513811492309
64.2341255561876
63.9413653898417
63.6388149431606
63.3296554298067
63.0169585742997
62.703683093645
62.3926741427507
62.0866654495397
61.7882838737288
61.5000561407548
61.2244175274542
60.9637223073129
60.7202557991271
60.4962273174486
60.293162724004
60.1118263621547
59.9529591056908
59.8173288168482
59.7057370462074
59.6190261157539
59.5580866602076
59.5238657131391
59.5173754376481
59.539702616899
59.592019038116
59.6755929253476
59.7918016021982
59.9421455967453
60.128264438199
60.3518205319396
60.6115419044657
60.9030901395958
61.2219077947959
61.5633024842194
61.9224040911613
62.2941284162259
62.6731479251832
63.0538705038818
63.4304273309206
63.7966711297995
64.1461861449754
64.472311181806
64.7681769386003
65.0267586205003
65.2416069597095
65.4120795447148
65.540712115657
65.6302822147249
65.6837493507717
65.7042203919992
65.6949165271333
65.6591424001199
65.6002579068266
65.5216530269199
65.4267259549389
65.3188646954366
65.2014322007263
65.0777550580143
64.9511156764332
64.8244834140606
64.6996245005144
64.5779615617296
64.4608963061728
64.3498113365658
64.2460725325688
64.151031996053
64.0660315465733
63.9924067604579
63.9314915536472
63.8846233160523
63.8531486138153
63.8384294855279
63.8418503693349
63.8648257100915
63.9084157522353
63.9718263626901
64.0537210343799
64.1527823521014
64.2677045291697
64.3971864098883
64.5399250162368
64.69460961287
64.8599162753321
65.0345029562706
65.2170050535166
65.4060314922041
65.6001613406828
65.7979409867806
65.9978819069782
66.1984590661528
