Value(μV)
16.30832862854
30.2323970794678
27.0851764678955
16.022216796875
9.63240432739258
6.38981294631958
13.6379585266113
18.787956237793
12.0166625976563
14.7824029922485
26.1314735412598
31.1861019134521
34.2379531860352
34.810173034668
37.8620262145996
39.7694320678711
31.0907306671143
25.177770614624
26.4175834655762
24.7009181976318
18.5972156524658
12.4935140609741
10.3953666687012
15.5453653335571
22.0305480957031
18.9786968231201
17.5481433868408
21.0768451690674
13.3518476486206
7.53425693511963
12.4935140609741
11.4444408416748
9.15555286407471
18.4064750671387
23.6518440246582
15.4499950408936
21.2675857543945
34.4286918640137
28.6111011505127
21.3629570007324
13.6379585266113
2.95648050308228
8.67870044708252
11.0629596710205
5.24536848068237
14.8777732849121
17.2620315551758
3.24259161949158
8.10647869110107
23.1749935150146
22.7935104370117
18.787956237793
16.022216796875
16.4990692138672
27.5620288848877
34.1425819396973
24.6055469512939
15.1638841629028
16.2129573822021
23.4611034393311
32.7120246887207
33.4749908447266
34.810173034668
41.7722091674805
36.431468963623
29.1833248138428
24.2240657806396
17.4527721405029
23.1749935150146
29.278694152832
31.3768424987793
30.8046188354492
18.5972156524658
15.35462474823
16.5944385528564
8.96481227874756
6.1037015914917
2.28888821601868
-4.38703584671021
-3.62407302856445
0
-0.190740674734116
2.1935179233551
8.67870044708252
6.86666440963745
2.76573991775513
10.1092557907104
16.4990692138672
8.96481227874756
0.190740674734116
2.1935179233551
5.53147983551025
0.190740674734116
-7.24814605712891
-11.3490705490112
-10.1092557907104
-1.52592539787292
4.86388731002808
2.5749990940094
-3.71944332122803
-9.537034034729
-18.5018463134766
-21.0768451690674
-13.256477355957
-14.3055505752563
-20.5046234130859
-17.8342533111572
-9.72777462005615
-3.91018390655518
1.43055510520935
7.24814605712891
1.04907369613647
-12.6842555999756
-18.5972156524658
-22.3166599273682
-25.2731399536133
-17.9296245574951
-14.2101802825928
-19.4555492401123
-18.3111057281494
-16.4990692138672
-23.1749935150146
-26.0361022949219
-22.2212886810303
-20.5046234130859
-12.4935140609741
-2.47962880134583
-4.29166507720947
-2.67036962509155
6.58055353164673
8.20184898376465
1.23981440067291
-1.33518481254578
2.38425850868225
4.38703584671021
4.1962947845459
-0.9537034034729
-6.86666440963745
-9.9185152053833
-13.9240694046021
-17.738883972168
-16.4990692138672
-9.72777462005615
-5.1499981880188
-4.7685170173645
-1.9074068069458
5.53147983551025
16.4036979675293
28.4203605651855
34.7148017883301
29.8509159088135
20.5999927520752
13.4472179412842
8.86944198608398
6.58055353164673
3.5287024974823
0.190740674734116
-2.8611102104187
-12.9703664779663
-26.0361022949219
-30.70924949646
-31.5675830841064
-26.4175834655762
-20.2185115814209
-23.1749935150146
-30.5185089111328
-27.4666576385498
-26.7990646362305
-33.3796195983887
-33.1888771057129
-40.1509132385254
-48.9249839782715
-32.4259147644043
-20.409252166748
-27.3712882995605
-25.2731399536133
-23.4611034393311
-24.4148063659668
-22.8888816833496
-27.657398223877
-32.5212860107422
-35.0009155273438
-30.4231376647949
-26.7036952972412
-29.8509159088135
-19.4555492401123
-9.82314491271973
-15.6407356262207
-15.6407356262207
-12.9703664779663
-17.6435127258301
-17.8342533111572
-22.4120292663574
-30.6138782501221
-23.6518440246582
-13.7333288192749
-11.0629596710205
-11.5398111343384
-13.8286991119385
-8.20184898376465
-3.147221326828
-6.86666440963745
-12.1120328903198
-18.0249938964844
-18.787956237793
-20.9814739227295
-28.8018417358398
-37.3851737976074
-50.2601699829102
-72.7675704956055
-101.092559814453
-104.716636657715
-70.4786834716797
-16.30832862854
49.0203552246094
127.128662109375
235.087890625
390.827667236328
564.592407226563
691.434936523438
742.934936523438
730.155334472656
659.009033203125
554.101684570313
432.409118652344
244.243438720703
-21.6490669250488
-264.557312011719
-419.534118652344
-512.7109375
-571.745178222656
-597.685913085938
-576.227600097656
-535.218322753906
-500.408172607422
-444.902648925781
-388.920257568359
-369.083221435547
-364.791564941406
-365.077667236328
-356.208221435547
-317.583221435547
-263.222137451172
-201.422164916992
-142.960144042969
-96.4194107055664
-46.9222068786621
18.0249938964844
79.6342315673828
100.615707397461
85.3564529418945
65.7101669311523
53.6935005187988
51.7860946655273
55.9823913574219
67.4268264770508
88.5990447998047
99.8527450561523
100.615707397461
102.999969482422
87.9314498901367
65.2333145141602
65.4240493774414
73.9120101928711
80.3971939086914
94.702751159668
109.389778137207
115.111999511719
110.343482971191
101.092559814453
92.4138565063477
88.7897872924805
87.7407150268555
80.8740463256836
80.3018264770508
88.5036773681641
92.1277465820313
94.416633605957
100.138854980469
101.474044799805
98.7083053588867
95.6564483642578
89.3620071411133
85.0703430175781
80.3018264770508
69.4296035766602
63.8981285095215
63.7073860168457
59.3203506469727
60.6555366516113
61.4184989929199
49.3064651489258
44.9194297790527
52.1675758361816
46.5407257080078
33.5703582763672
31.0907306671143
39.3879508972168
49.5925750732422
46.0638732910156
39.6740608215332
48.8296127319336
55.0286865234375
51.404613494873
42.2490615844727
28.3249912261963
27.8481388092041
32.5212860107422
24.5101776123047
13.4472179412842
9.63240432739258
8.48795986175537
7.24814605712891
19.1694374084473
31.3768424987793
22.0305480957031
13.256477355957
10.8722190856934
1.43055510520935
0
5.62685012817383
4.86388731002808
11.5398111343384
24.0333251953125
23.3657341003418
10.6814785003662
-2.38425850868225
-1.23981440067291
6.38981294631958
-4.86388731002808
-12.2074031829834
-4.57777643203735
-4.57777643203735
-2.8611102104187
-4.29166507720947
-14.0194396972656
-13.9240694046021
-12.8749961853027
-16.30832862854
-14.7824029922485
-10.5861072540283
0
10.2999963760376
6.00833129882813
-2.00277709960938
-9.06018257141113
-14.9731435775757
-15.0685138702393
-20.7907333374023
-35.0962867736816
-45.6823921203613
-43.9657249450684
-34.4286918640137
-33.6657295227051
-38.9110984802246
-38.7203598022461
-42.9166526794434
-45.0148010253906
-40.8185043334961
-47.3036880493164
-60.3694267272949
-66.0916442871094
-62.2768325805664
-55.6009063720703
-51.404613494873
-50.4509086608887
-54.2657241821289
-54.9333152770996
-53.9796104431152
-60.1786842346191
-63.8027572631836
-63.6120147705078
-65.6147918701172
-65.3286819458008
-60.6555366516113
-52.2629470825195
-50.355541229248
-56.4592399597168
-52.5490570068359
-48.4481315612793
-56.2685012817383
-60.274055480957
-55.9823913574219
-44.4425773620605
-32.5212860107422
-25.5592517852783
-19.6462898254395
-25.3685111999512
-37.3851737976074
-37.8620262145996
-27.4666576385498
-20.409252166748
-25.4638805389404
-23.5564746856689
-13.5425882339478
-17.5481433868408
-23.8425846099854
-20.5046234130859
-17.2620315551758
-16.4990692138672
-18.6925868988037
-22.5074005126953
-22.7935104370117
-18.2157344818115
-12.7796258926392
-6.29444265365601
-1.81203651428223
-4.57777643203735
-2.09814739227295
1.52592539787292
-3.33796191215515
-2.67036962509155
0.858333051204681
-2.5749990940094
-3.62407302856445
-4.10092449188232
-3.91018390655518
-2.95648050308228
-8.77407169342041
-10.204626083374
-0.762962698936462
0
-4.86388731002808
-0.47685170173645
1.9074068069458
5.34073925018311
14.3055505752563
15.5453653335571
12.302773475647
8.48795986175537
9.537034034729
23.6518440246582
32.4259147644043
32.9981384277344
38.148136138916
33.8564720153809
25.0823993682861
23.7472152709961
25.177770614624
28.4203605651855
25.2731399536133
21.5536975860596
26.5129547119141
25.7499923706055
24.7962875366211
30.0416564941406
25.9407329559326
18.2157344818115
19.9324016571045
21.9351787567139
19.5509204864502
19.7416610717773
19.6462898254395
16.2129573822021
16.7851791381836
13.6379585266113
6.1037015914917
14.3055505752563
24.891658782959
26.8944358825684
32.1398048400879
31.1861019134521
22.2212886810303
14.3055505752563
10.0138854980469
13.8286991119385
16.022216796875
12.8749961853027
13.9240694046021
18.3111057281494
22.5074005126953
23.4611034393311
26.7990646362305
34.2379531860352
31.8536930084229
20.5999927520752
16.022216796875
20.3138828277588
21.3629570007324
22.125919342041
28.0388793945313
29.6601753234863
25.5592517852783
21.3629570007324
18.8833274841309
19.5509204864502
22.5074005126953
18.4064750671387
7.53425693511963
6.19907188415527
15.6407356262207
21.4583263397217
19.9324016571045
21.3629570007324
21.5536975860596
17.5481433868408
16.8805503845215
13.9240694046021
13.8286991119385
16.5944385528564
14.2101802825928
12.9703664779663
8.96481227874756
5.05462789535522
9.06018257141113
12.6842555999756
12.8749961853027
10.0138854980469
1.81203651428223
-8.48795986175537
-17.0712909698486
-19.4555492401123
-8.67870044708252
2.95648050308228
7.34351634979248
9.63240432739258
7.82036781311035
2.5749990940094
-3.43333220481873
-8.67870044708252
-8.0111083984375
-0.190740674734116
5.62685012817383
2.8611102104187
0.572222054004669
2.67036962509155
0.762962698936462
-6.1037015914917
-7.43888664245605
-4.86388731002808
-8.3925895690918
-10.6814785003662
-9.82314491271973
-11.7305517196655
-7.34351634979248
2.09814739227295
9.06018257141113
10.8722190856934
13.7333288192749
21.4583263397217
19.6462898254395
8.58333015441895
1.23981440067291
-4.7685170173645
-7.24814605712891
-11.635181427002
-22.9842510223389
-24.0333251953125
-15.2592544555664
-12.1120328903198
-11.0629596710205
-2.67036962509155
10.9675893783569
25.6546211242676
38.0527648925781
42.0583190917969
36.2407302856445
28.9925842285156
25.2731399536133
20.0277709960938
13.1611070632935
11.7305517196655
11.1583299636841
8.67870044708252
14.7824029922485
20.3138828277588
10.0138854980469
0.9537034034729
-2.47962880134583
-7.43888664245605
-5.24536848068237
-10.5861072540283
-23.2703628540039
-30.5185089111328
-41.2953567504883
-44.9194297790527
-33.9518394470215
-27.943510055542
-30.4231376647949
-34.5240631103516
-42.9166526794434
-43.8703575134277
-37.7666549682617
-45.300910949707
-55.0286865234375
-50.4509086608887
-47.3036880493164
-54.3610954284668
-58.9388694763184
-53.7888717651367
-41.2953567504883
-32.2351760864258
-32.8073959350586
-29.0879535675049
-29.6601753234863
-39.5786895751953
-36.1453590393066
-31.6629524230957
-34.5240631103516
-30.3277683258057
-27.2759170532227
-27.943510055542
-26.1314735412598
-22.2212886810303
-20.7907333374023
-19.5509204864502
-15.0685138702393
-18.4064750671387
-27.943510055542
-34.0472106933594
-36.8129501342773
-41.2953567504883
-50.1647987365723
-55.6962776184082
-75.9147872924805
-118.44995880127
-141.720321655273
-132.087921142578
-105.86107635498
-56.4592399597168
15.35462474823
111.1064453125
253.112884521484
436.414672851563
614.852600097656
739.501586914063
785.946960449219
764.774780273438
687.238647460938
569.170166015625
417.149871826172
199.419387817383
-69.9064559936523
-300.702667236328
-448.908203125
-549.333129882813
-601.500732421875
-599.116455078125
-580.519287109375
-534.932250976563
-456.251708984375
-403.893402099609
-374.233215332031
-338.660064697266
-316.820281982422
-298.127685546875
-270.184173583984
-238.902694702148
-197.225860595703
-153.546249389648
-101.187927246094
-16.6898097991943
65.6147918701172
103.095336914063
107.387001037598
94.3212661743164
68.7620162963867
39.864803314209
24.5101776123047
32.2351760864258
51.0231323242188
65.7101669311523
73.9120101928711
82.4953460693359
86.9777526855469
82.3046035766602
74.1027526855469
56.8407211303711
38.148136138916
35.6685066223145
45.8731346130371
62.0860900878906
75.0564575195313
80.778678894043
81.7323837280273
70.6694183349609
50.0694274902344
36.6222114562988
34.6194343566895
43.4888763427734
54.0749816894531
55.7916488647461
59.7972030639648
68.2851638793945
72.6721954345703
72.4814605712891
71.3370132446289
65.9009017944336
51.0231323242188
43.9657249450684
49.0203552246094
50.0694274902344
54.7425765991211
61.7046089172363
54.2657241821289
49.783317565918
52.5490570068359
45.3962821960449
41.7722091674805
49.3064651489258
46.7314682006836
35.0009155273438
36.9083213806152
48.3527641296387
57.6990547180176
59.0342407226563
55.4101676940918
57.9851684570313
58.7481307983398
52.8351669311523
45.0148010253906
37.8620262145996
38.8157272338867
36.5268402099609
28.2296199798584
30.2323970794678
33.1888771057129
33.6657295227051
37.0036926269531
32.04443359375
22.8888816833496
23.1749935150146
23.3657341003418
13.0657367706299
6.00833129882813
10.2999963760376
15.9268465042114
16.2129573822021
16.2129573822021
14.7824029922485
13.1611070632935
15.4499950408936
6.19907188415527
-10.1092557907104
-13.1611070632935
-14.8777732849121
-18.4064750671387
-14.9731435775757
-11.5398111343384
-11.0629596710205
-11.1583299636841
-11.635181427002
-20.3138828277588
-32.3305435180664
-30.8046188354492
-29.9462871551514
-34.6194343566895
-32.3305435180664
-23.1749935150146
-11.635181427002
-8.0111083984375
-7.43888664245605
-4.48240613937378
-8.77407169342041
-17.357400894165
-26.1314735412598
-25.9407329559326
-16.4036979675293
-7.6296272277832
0.286111027002335
2.1935179233551
-5.43610954284668
-19.7416610717773
-37.0036926269531
-45.7777633666992
-54.0749816894531
-65.4240493774414
-62.5629425048828
-52.8351669311523
-50.7370223999023
-55.6009063720703
-63.7073860168457
-71.7184982299805
-78.6805267333984
-86.0240478515625
-90.0296020507813
-90.0296020507813
-88.0268249511719
-75.1518249511719
-56.1731300354004
-52.1675758361816
-51.7860946655273
-47.5897979736328
-57.0314636230469
-64.1842422485352
-61.4184989929199
-64.3749771118164
-58.0805358886719
-42.9166526794434
-37.2898025512695
-32.2351760864258
-21.9351787567139
-19.360179901123
-24.3194370269775
-33.2842483520508
-39.5786895751953
-32.04443359375
-20.5999927520752
-19.7416610717773
-25.5592517852783
-24.7009181976318
-12.9703664779663
-4.7685170173645
-9.72777462005615
-15.8314762115479
-7.43888664245605
7.43888664245605
10.2999963760376
8.10647869110107
15.35462474823
19.7416610717773
18.3111057281494
22.125919342041
19.7416610717773
12.3981437683105
10.4907369613647
3.33796191215515
-0.572222054004669
4.86388731002808
4.48240613937378
-2.28888821601868
-0.858333051204681
5.62685012817383
8.48795986175537
17.6435127258301
28.7064723968506
24.0333251953125
13.7333288192749
14.4962921142578
16.2129573822021
14.5916624069214
20.3138828277588
23.8425846099854
24.3194370269775
33.1888771057129
34.3333206176758
26.226842880249
26.7036952972412
34.0472106933594
43.1073951721191
44.0610961914063
35.0962867736816
34.6194343566895
40.913875579834
44.6333198547363
43.1073951721191
33.761100769043
31.5675830841064
36.0499877929688
32.5212860107422
27.0851764678955
26.7990646362305
31.7583236694336
34.1425819396973
31.8536930084229
32.04443359375
29.8509159088135
25.9407329559326
25.177770614624
22.9842510223389
18.5018463134766
14.0194396972656
15.7361059188843
19.6462898254395
14.4009208679199
7.43888664245605
14.9731435775757
25.3685111999512
22.5074005126953
20.409252166748
19.7416610717773
10.6814785003662
5.05462789535522
6.77129411697388
12.8749961853027
19.1694374084473
18.1203651428223
15.4499950408936
15.2592544555664
20.2185115814209
25.5592517852783
21.4583263397217
21.5536975860596
26.7990646362305
21.839807510376
22.9842510223389
32.7120246887207
27.2759170532227
16.8805503845215
16.7851791381836
10.7768487930298
1.23981440067291
5.7222204208374
9.25092315673828
9.44166374206543
14.2101802825928
10.7768487930298
6.38981294631958
7.43888664245605
11.3490705490112
18.9786968231201
14.0194396972656
0.762962698936462
-5.05462789535522
-9.34629344940186
-14.2101802825928
-14.687032699585
-13.256477355957
-11.1583299636841
-5.24536848068237
-0.858333051204681
-1.62129580974579
-7.24814605712891
-9.06018257141113
-7.0574049949646
-11.5398111343384
-13.8286991119385
-4.38703584671021
4.48240613937378
4.48240613937378
2.76573991775513
3.05185079574585
2.5749990940094
5.05462789535522
11.1583299636841
13.3518476486206
8.20184898376465
5.81759071350098
9.82314491271973
13.0657367706299
9.63240432739258
0.286111027002335
-11.4444408416748
-16.022216796875
-11.635181427002
-12.1120328903198
-14.4009208679199
-9.537034034729
-7.53425693511963
-14.2101802825928
-21.3629570007324
-17.1666603088379
-11.2537002563477
-17.6435127258301
-21.5536975860596
-20.5999927520752
-21.7444381713867
-11.5398111343384
0.9537034034729
1.62129580974579
1.23981440067291
1.81203651428223
-0.286111027002335
3.71944332122803
9.06018257141113
0.381481349468231
-11.5398111343384
-11.5398111343384
-7.72499752044678
-2.76573991775513
-8.48795986175537
-25.8453617095947
-22.3166599273682
-4.57777643203735
4.1962947845459
9.72777462005615
10.2999963760376
4.00555419921875
2.76573991775513
5.43610954284668
3.5287024974823
0.190740674734116
-11.3490705490112
-32.9027671813965
-42.0583190917969
-36.0499877929688
-35.5731353759766
-30.995361328125
-7.43888664245605
15.5453653335571
29.3740653991699
40.0555419921875
41.5814666748047
34.2379531860352
19.2648086547852
7.53425693511963
11.1583299636841
11.0629596710205
-3.71944332122803
-14.4009208679199
-11.1583299636841
-5.7222204208374
-2.09814739227295
2.5749990940094
-2.8611102104187
-14.1148099899292
-20.409252166748
-33.4749908447266
-43.9657249450684
-45.1101722717285
-53.8842430114746
-60.3694267272949
-55.1240577697754
-56.7453536987305
-64.6610870361328
-62.6583137512207
-57.3175735473633
-59.701831817627
-58.7481307983398
-53.9796104431152
-54.4564628601074
-54.9333152770996
-55.1240577697754
-52.453685760498
-43.2027626037598
-34.6194343566895
-30.3277683258057
-26.7990646362305
-20.1231422424316
-16.2129573822021
-20.0277709960938
-23.4611034393311
-21.2675857543945
-17.2620315551758
-15.35462474823
-12.2074031829834
-2.5749990940094
11.8259220123291
12.9703664779663
8.10647869110107
15.4499950408936
19.4555492401123
15.7361059188843
10.1092557907104
-0.9537034034729
-12.9703664779663
-18.2157344818115
-19.7416610717773
-26.1314735412598
-33.6657295227051
-42.3444290161133
-67.5222015380859
-103.953666687012
-119.59440612793
-106.814781188965
-75.5333099365234
-25.0823993682861
40.1509132385254
139.908294677734
290.688781738281
467.696136474609
642.223876953125
764.583984375
796.723815917969
761.627563476563
668.832214355469
528.542419433594
352.679504394531
99.5666351318359
-197.416610717773
-414.765594482422
-540.940551757813
-644.035888671875
-716.612731933594
-718.424743652344
-665.494201660156
-590.628540039063
-502.029479980469
-416.005432128906
-331.316558837891
-251.586959838867
-212.294372558594
-191.408279418945
-160.889770507813
-146.488845825195
-104.430519104004
-5.81759071350098
68.6666412353516
95.9425582885742
112.727745056152
111.201812744141
96.4194107055664
83.4490509033203
64.3749771118164
41.962947845459
31.9490642547607
39.2925796508789
55.6962776184082
79.5388641357422
101.569412231445
102.713859558105
96.2286758422852
86.7870101928711
61.0370178222656
48.8296127319336
59.1296119689941
61.99072265625
67.0453491210938
82.3046035766602
88.1221923828125
87.4546051025391
94.5120086669922
90.4110794067383
70.2879409790039
63.8027572631836
66.1870193481445
63.039794921875
61.4184989929199
65.137939453125
72.5768280029297
79.9203414916992
78.5851593017578
68.0944213867188
64.9472045898438
70.4786834716797
66.9499816894531
60.0833129882813
59.9879455566406
63.1351661682129
67.5222015380859
65.5194244384766
59.701831817627
60.5601654052734
56.7453536987305
46.5407257080078
43.0120239257813
39.1018409729004
30.8046188354492
22.8888816833496
17.4527721405029
18.8833274841309
26.9898052215576
38.8157272338867
38.5296173095703
28.8018417358398
30.8046188354492
35.2870254516602
31.4722118377686
25.7499923706055
15.9268465042114
6.29444265365601
2.76573991775513
0.572222054004669
1.33518481254578
6.1037015914917
10.2999963760376
16.8805503845215
18.3111057281494
11.5398111343384
9.537034034729
11.1583299636841
6.86666440963745
0.286111027002335
3.62407302856445
18.1203651428223
21.6490669250488
6.29444265365601
-7.6296272277832
-13.6379585266113
-18.4064750671387
-24.7009181976318
-28.0388793945313
-24.0333251953125
-19.360179901123
-10.8722190856934
2.00277709960938
8.29721927642822
7.91573810577393
4.38703584671021
-1.43055510520935
-5.05462789535522
-3.91018390655518
-1.52592539787292
-1.9074068069458
-2.1935179233551
2.47962880134583
10.4907369613647
10.5861072540283
-1.14444410800934
-13.256477355957
-20.1231422424316
-23.9379558563232
-24.2240657806396
-27.943510055542
-33.1888771057129
-25.8453617095947
-20.5046234130859
-28.7064723968506
-35.9546165466309
-44.5379486083984
-59.0342407226563
-63.6120147705078
-61.2277565002441
-67.3314590454102
-75.247200012207
-76.2009048461914
-77.0592346191406
-80.3971939086914
-78.7759017944336
-77.0592346191406
-83.2583084106445
-86.7870101928711
-90.1249694824219
-97.4684906005859
-89.6481170654297
-73.5305328369141
-69.4296035766602
-70.6694183349609
-70.0971984863281
-67.903678894043
-67.2360916137695
-66.5684967041016
-64.1842422485352
-63.039794921875
-65.2333145141602
-63.5166473388672
-54.3610954284668
-46.3499870300293
-41.962947845459
-45.2055397033691
-52.7397994995117
-52.453685760498
-52.9305381774902
-49.9740562438965
-36.6222114562988
-31.8536930084229
-33.3796195983887
-23.5564746856689
-15.5453653335571
-20.2185115814209
-25.7499923706055
-31.1861019134521
-30.4231376647949
-20.5046234130859
-11.9212923049927
-8.77407169342041
-11.4444408416748
-9.537034034729
3.24259161949158
16.022216796875
17.2620315551758
11.8259220123291
15.1638841629028
22.6981410980225
25.4638805389404
31.5675830841064
39.7694320678711
42.1536903381348
37.6712837219238
25.9407329559326
17.2620315551758
19.9324016571045
29.5648059844971
31.3768424987793
20.5999927520752
18.3111057281494
29.3740653991699
33.761100769043
31.7583236694336
28.3249912261963
28.4203605651855
40.0555419921875
43.0120239257813
39.5786895751953
41.1046180725098
36.3360977172852
37.3851737976074
46.5407257080078
39.4833221435547
29.8509159088135
32.9981384277344
32.4259147644043
30.995361328125
30.70924949646
29.7555465698242
35.9546165466309
41.0092468261719
45.8731346130371
46.9222068786621
36.7175827026367
41.7722091674805
58.1759071350098
60.1786842346191
58.3666496276855
55.6962776184082
46.5407257080078
39.1018409729004
37.6712837219238
37.1944313049316
34.9055442810059
38.4342460632324
48.9249839782715
55.9823913574219
54.4564628601074
50.1647987365723
47.3990592956543
43.7749862670898
43.8703575134277
47.5897979736328
44.8240585327148
43.8703575134277
44.9194297790527
39.7694320678711
42.5351715087891
42.0583190917969
33.1888771057129
32.9027671813965
29.8509159088135
22.125919342041
25.5592517852783
29.4694347381592
22.6027698516846
17.8342533111572
19.8370304107666
14.9731435775757
2.09814739227295
-0.286111027002335
0.858333051204681
-6.38981294631958
-7.53425693511963
-7.91573810577393
-18.5018463134766
-21.7444381713867
-14.1148099899292
-10.1092557907104
-10.0138854980469
-7.15277528762817
-6.1037015914917
-4.38703584671021
1.04907369613647
-0.286111027002335
-3.33796191215515
-0.47685170173645
4.67314672470093
5.62685012817383
1.43055510520935
2.8611102104187
2.1935179233551
-8.96481227874756
-14.3055505752563
-16.4036979675293
-25.2731399536133
-24.891658782959
-15.0685138702393
-15.9268465042114
-26.5129547119141
-26.7990646362305
-17.5481433868408
-17.0712909698486
-18.9786968231201
-13.0657367706299
-6.96203470230103
-6.96203470230103
-6.19907188415527
-4.1962947845459
-4.48240613937378
-1.43055510520935
2.09814739227295
1.62129580974579
-2.5749990940094
-9.72777462005615
-20.9814739227295
-25.3685111999512
-22.125919342041
-22.8888816833496
-15.4499950408936
-6.19907188415527
-8.0111083984375
-5.43610954284668
-3.71944332122803
-5.81759071350098
0.190740674734116
3.43333220481873
-2.09814739227295
-7.24814605712891
-15.1638841629028
-24.1286964416504
-24.4148063659668
-19.4555492401123
-20.5046234130859
-27.2759170532227
-29.1833248138428
-22.6981410980225
-13.1611070632935
-6.58055353164673
-5.43610954284668
-4.38703584671021
-2.5749990940094
-6.86666440963745
-13.256477355957
-18.3111057281494
-22.3166599273682
-20.5999927520752
-13.8286991119385
-9.72777462005615
-7.15277528762817
-4.67314672470093
-5.34073925018311
-8.86944198608398
-11.7305517196655
-14.4962921142578
-19.5509204864502
-17.738883972168
-12.1120328903198
-16.022216796875
-8.96481227874756
7.34351634979248
2.76573991775513
-7.43888664245605
-7.72499752044678
-4.57777643203735
1.33518481254578
5.91296100616455
10.2999963760376
14.4009208679199
13.3518476486206
4.00555419921875
-11.4444408416748
-17.357400894165
-16.5944385528564
-25.9407329559326
-31.5675830841064
-20.1231422424316
-16.2129573822021
-25.2731399536133
-20.0277709960938
-2.00277709960938
15.2592544555664
31.2814712524414
39.0064697265625
37.099063873291
33.4749908447266
28.5157318115234
21.6490669250488
10.6814785003662
0.9537034034729
2.5749990940094
4.1962947845459
0.762962698936462
3.33796191215515
1.14444410800934
-9.82314491271973
-14.3055505752563
-16.2129573822021
-25.4638805389404
-38.5296173095703
-45.6823921203613
-49.8786888122559
-51.4999847412109
-46.0638732910156
-43.3935050964355
-40.3416519165039
-34.4286918640137
-33.1888771057129
-32.1398048400879
-39.5786895751953
-44.3472061157227
-36.6222114562988
-36.9083213806152
-36.5268402099609
-30.8999900817871
-30.1370277404785
-29.6601753234863
-32.7120246887207
-36.6222114562988
-32.7120246887207
-24.7009181976318
-18.9786968231201
-16.8805503845215
-14.3055505752563
-10.9675893783569
-9.34629344940186
-5.91296100616455
-0.667592406272888
5.62685012817383
18.6925868988037
27.943510055542
21.9351787567139
14.3055505752563
15.5453653335571
21.0768451690674
21.5536975860596
15.6407356262207
13.1611070632935
10.204626083374
-5.91296100616455
-25.6546211242676
-36.3360977172852
-54.8379440307617
-91.5555267333984
-122.550888061523
-126.937919616699
-107.482376098633
-66.9499816894531
-10.4907369613647
63.6120147705078
187.021240234375
358.020263671875
543.229431152344
704.786804199219
788.23583984375
786.423828125
716.708129882813
588.816467285156
439.180419921875
238.235107421875
-45.2055397033691
-312.528594970703
-493.636871337891
-621.528503417969
-721.953491210938
-761.150695800781
-714.133117675781
-629.635009765625
-545.518371582031
-461.687805175781
-376.903594970703
-286.015655517578
-221.068450927734
-198.370300292969
-176.435134887695
-152.974029541016
-129.036071777344
-57.3175735473633
35.0962867736816
88.0268249511719
116.733299255371
131.992553710938
119.880516052246
97.6592254638672
78.2990493774414
58.5573883056641
46.9222068786621
46.8268356323242
57.2222023010254
82.876823425293
111.392555236816
133.423110961914
143.436996459961
131.229583740234
110.057373046875
91.269416809082
77.1546020507813
69.9064559936523
65.9009017944336
72.4814605712891
84.1166381835938
86.2147903442383
84.5934906005859
84.8796005249023
80.3018264770508
68.7620162963867
62.4675712585449
59.3203506469727
48.4481315612793
47.7805404663086
57.5083160400391
55.6009063720703
53.3120193481445
56.4592399597168
46.8268356323242
31.6629524230957
28.2296199798584
30.6138782501221
28.3249912261963
21.9351787567139
24.6055469512939
34.4286918640137
30.0416564941406
27.4666576385498
39.3879508972168
44.1564674377441
38.4342460632324
33.1888771057129
34.5240631103516
33.2842483520508
25.9407329559326
28.6111011505127
37.3851737976074
38.9110984802246
37.5759124755859
42.2490615844727
52.453685760498
48.4481315612793
35.4777679443359
32.1398048400879
22.2212886810303
9.15555286407471
9.72777462005615
13.0657367706299
18.2157344818115
34.0472106933594
44.4425773620605
37.2898025512695
23.8425846099854
9.44166374206543
-2.09814739227295
-7.15277528762817
-4.38703584671021
1.23981440067291
3.8148136138916
9.25092315673828
14.9731435775757
13.8286991119385
12.0166625976563
10.5861072540283
4.57777643203735
-2.5749990940094
-4.00555419921875
-1.62129580974579
2.67036962509155
7.0574049949646
4.7685170173645
3.8148136138916
11.5398111343384
16.1175880432129
9.82314491271973
-1.71666610240936
-13.8286991119385
-26.6083240509033
-27.657398223877
-13.7333288192749
-2.76573991775513
-0.667592406272888
3.43333220481873
11.7305517196655
8.86944198608398
-6.00833129882813
-19.8370304107666
-34.1425819396973
-35.8592491149902
-23.2703628540039
-22.3166599273682
-26.3222141265869
-25.5592517852783
-36.9083213806152
-52.7397994995117
-56.1731300354004
-51.4999847412109
-51.8814659118652
-57.3175735473633
-62.9444236755371
-64.8518295288086
-61.7046089172363
-61.6092376708984
-63.039794921875
-61.5138702392578
-66.6638641357422
-81.0647888183594
-91.3647842407227
-91.9370040893555
-88.4083023071289
-82.9721984863281
-78.2990493774414
-73.1490478515625
-68.9527587890625
-68.9527587890625
-68.0944213867188
-69.6203460693359
-76.6777496337891
-74.4842376708984
-63.5166473388672
-61.6092376708984
-61.0370178222656
-53.5027618408203
-49.6879463195801
-49.2110939025879
-48.1620216369629
-49.2110939025879
-49.783317565918
-46.3499870300293
-42.3444290161133
-38.5296173095703
-31.4722118377686
-23.8425846099854
-20.7907333374023
-16.2129573822021
-7.6296272277832
-7.91573810577393
-11.7305517196655
-9.25092315673828
-9.34629344940186
-7.72499752044678
-1.43055510520935
-4.29166507720947
-6.19907188415527
3.5287024974823
5.81759071350098
3.05185079574585
9.82314491271973
10.3953666687012
3.05185079574585
5.34073925018311
11.635181427002
15.0685138702393
24.0333251953125
32.6166572570801
28.6111011505127
24.9870281219482
25.9407329559326
26.7036952972412
30.995361328125
30.8999900817871
27.7527694702148
28.5157318115234
31.3768424987793
34.0472106933594
31.7583236694336
33.2842483520508
37.4805450439453
34.1425819396973
35.6685066223145
44.4425773620605
49.1157264709473
51.1185035705566
47.8759117126465
32.04443359375
20.1231422424316
22.9842510223389
29.5648059844971
32.3305435180664
30.6138782501221
29.7555465698242
26.7036952972412
25.6546211242676
32.3305435180664
32.9981384277344
30.995361328125
32.8073959350586
29.3740653991699
27.3712882995605
29.1833248138428
30.3277683258057
32.4259147644043
31.6629524230957
27.0851764678955
24.1286964416504
27.2759170532227
33.3796195983887
33.3796195983887
31.2814712524414
29.9462871551514
26.4175834655762
18.787956237793
6.86666440963745
2.8611102104187
6.77129411697388
8.58333015441895
9.537034034729
12.7796258926392
17.1666603088379
22.5074005126953
25.6546211242676
20.8861045837402
17.738883972168
18.5972156524658
17.0712909698486
16.9759197235107
12.7796258926392
11.635181427002
21.4583263397217
30.0416564941406
33.8564720153809
30.8046188354492
25.6546211242676
24.2240657806396
23.6518440246582
26.7036952972412
25.4638805389404
23.9379558563232
24.7962875366211
16.5944385528564
10.6814785003662
11.7305517196655
12.3981437683105
10.4907369613647
6.38981294631958
4.67314672470093
1.14444410800934
-1.04907369613647
8.3925895690918
19.9324016571045
15.5453653335571
-1.43055510520935
-15.1638841629028
-18.3111057281494
-19.9324016571045
-19.6462898254395
-16.022216796875
-14.8777732849121
-12.8749961853027
-6.6759238243103
0.47685170173645
-3.71944332122803
-14.1148099899292
-13.5425882339478
-9.537034034729
-6.29444265365601
-4.95925760269165
-4.57777643203735
-0.381481349468231
-4.7685170173645
-10.7768487930298
-2.95648050308228
4.10092449188232
5.43610954284668
8.67870044708252
10.3953666687012
7.91573810577393
6.1037015914917
6.6759238243103
0.47685170173645
-8.67870044708252
-10.5861072540283
-9.82314491271973
-13.0657367706299
-11.8259220123291
-6.19907188415527
-5.53147983551025
-3.62407302856445
-4.00555419921875
-3.5287024974823
4.7685170173645
1.43055510520935
-7.72499752044678
-5.81759071350098
-5.43610954284668
-7.34351634979248
-5.7222204208374
-7.34351634979248
-8.10647869110107
-6.6759238243103
-4.00555419921875
2.76573991775513
4.86388731002808
1.04907369613647
-2.1935179233551
-7.72499752044678
-11.0629596710205
-12.2074031829834
-18.9786968231201
-22.4120292663574
-20.5999927520752
-21.9351787567139
-19.2648086547852
-12.9703664779663
-16.1175880432129
-22.2212886810303
-19.1694374084473
-18.787956237793
-30.1370277404785
-39.9601707458496
-39.1018409729004
-39.6740608215332
-40.4370231628418
-28.1342506408691
-20.6953639984131
-24.0333251953125
-21.839807510376
-22.4120292663574
-27.2759170532227
-23.4611034393311
-18.2157344818115
-17.6435127258301
-10.8722190856934
-3.62407302856445
-6.38981294631958
-12.6842555999756
-18.5018463134766
-20.1231422424316
-17.4527721405029
-15.2592544555664
-10.7768487930298
-8.29721927642822
-6.19907188415527
2.8611102104187
6.19907188415527
0
-3.5287024974823
-4.48240613937378
-7.43888664245605
-10.8722190856934
-9.06018257141113
-4.00555419921875
-3.43333220481873
-1.52592539787292
7.34351634979248
10.7768487930298
5.81759071350098
0.0953703373670578
-4.67314672470093
-8.67870044708252
-10.9675893783569
-6.48518323898315
3.147221326828
12.2074031829834
21.5536975860596
35.0009155273438
45.6823921203613
50.355541229248
51.8814659118652
46.3499870300293
32.5212860107422
16.4990692138672
13.256477355957
21.5536975860596
16.2129573822021
3.33796191215515
-4.48240613937378
-8.10647869110107
-0.858333051204681
3.62407302856445
-6.38981294631958
-12.8749961853027
-14.1148099899292
-24.9870281219482
-39.6740608215332
-48.066650390625
-55.6009063720703
-63.8027572631836
-64.756462097168
-56.5546112060547
-40.3416519165039
-30.8999900817871
-33.8564720153809
-30.4231376647949
-23.4611034393311
-21.3629570007324
-17.1666603088379
-17.357400894165
-26.3222141265869
-33.9518394470215
-28.1342506408691
-11.0629596710205
-7.72499752044678
-17.4527721405029
-15.7361059188843
-10.2999963760376
-10.7768487930298
-12.2074031829834
-11.0629596710205
-6.29444265365601
1.52592539787292
12.588885307312
13.256477355957
3.33796191215515
3.24259161949158
4.48240613937378
1.33518481254578
7.53425693511963
10.9675893783569
6.19907188415527
8.29721927642822
4.1962947845459
-5.34073925018311
-10.0138854980469
-18.2157344818115
-27.657398223877
-41.6768379211426
-66.7592391967773
-92.986083984375
-109.771263122559
-108.340705871582
-77.8221969604492
-18.2157344818115
58.8434982299805
168.519393920898
324.449890136719
499.072998046875
667.020141601563
797.486755371094
849.177490234375
813.699768066406
708.506225585938
562.208129882813
375.282287597656
114.25366973877
-161.175872802734
-359.546173095703
-500.789642333984
-611.037780761719
-668.73681640625
-665.017395019531
-610.465515136719
-532.834106445313
-457.968383789063
-395.023956298828
-338.469329833984
-280.579528808594
-240.047149658203
-227.839736938477
-214.678634643555
-189.596237182617
-166.230499267578
-116.44718170166
-26.8944358825684
46.5407257080078
76.2009048461914
86.6916351318359
82.2092361450195
59.5110931396484
36.6222114562988
21.5536975860596
17.6435127258301
26.8944358825684
37.099063873291
47.9712791442871
60.8462753295898
60.4647941589355
51.7860946655273
46.4453544616699
37.099063873291
27.657398223877
26.0361022949219
31.1861019134521
50.355541229248
68.7620162963867
69.5249786376953
73.6259002685547
78.2036819458008
68.6666412353516
62.6583137512207
60.6555366516113
58.3666496276855
63.6120147705078
64.5657196044922
59.2249794006348
59.9879455566406
61.8953514099121
63.8981285095215
63.8027572631836
56.5546112060547
49.5925750732422
46.8268356323242
47.6851692199707
49.1157264709473
50.5462799072266
54.7425765991211
56.8407211303711
55.7916488647461
61.2277565002441
65.2333145141602
59.5110931396484
55.887020111084
50.832389831543
37.0036926269531
28.2296199798584
28.8018417358398
24.0333251953125
13.4472179412842
9.25092315673828
14.0194396972656
20.2185115814209
21.7444381713867
20.7907333374023
16.1175880432129
9.15555286407471
5.53147983551025
1.23981440067291
5.1499981880188
12.1120328903198
7.34351634979248
10.2999963760376
18.6925868988037
10.0138854980469
-1.62129580974579
-8.96481227874756
-12.9703664779663
-5.53147983551025
2.5749990940094
7.6296272277832
16.5944385528564
23.5564746856689
25.177770614624
18.787956237793
3.71944332122803
-4.1962947845459
-4.7685170173645
-12.302773475647
-25.4638805389404
-26.6083240509033
-9.63240432739258
-1.33518481254578
-9.9185152053833
-13.3518476486206
-8.67870044708252
-6.19907188415527
-6.1037015914917
-8.67870044708252
-17.357400894165
-24.6055469512939
-17.9296245574951
-2.00277709960938
11.0629596710205
13.7333288192749
3.147221326828
-9.72777462005615
-13.0657367706299
-10.0138854980469
-9.06018257141113
-13.8286991119385
-18.787956237793
-18.9786968231201
-13.3518476486206
-4.86388731002808
-3.62407302856445
-12.7796258926392
-28.3249912261963
-39.7694320678711
-41.3907279968262
-42.4398002624512
-45.1101722717285
-39.7694320678711
-32.5212860107422
-34.2379531860352
-34.0472106933594
-32.1398048400879
-41.962947845459
-51.6907234191895
-58.652759552002
-67.7129440307617
-64.4703521728516
-54.7425765991211
-54.5518341064453
-57.3175735473633
-53.7888717651367
-50.2601699829102
-51.8814659118652
-58.652759552002
-69.2388687133789
-71.2416458129883
-68.4759063720703
-70.7647933959961
-69.7157211303711
-64.0888671875
-59.3203506469727
-58.2712783813477
-59.4157218933105
-57.0314636230469
-52.9305381774902
-49.1157264709473
-44.4425773620605
-40.7231369018555
-26.6083240509033
-8.0111083984375
-2.38425850868225
5.1499981880188
20.2185115814209
26.9898052215576
22.9842510223389
10.0138854980469
-4.38703584671021
-5.53147983551025
-0.667592406272888
-8.10647869110107
-11.0629596710205
2.5749990940094
3.91018390655518
-2.67036962509155
2.1935179233551
1.62129580974579
-1.43055510520935
3.5287024974823
13.0657367706299
26.226842880249
29.1833248138428
24.7009181976318
23.7472152709961
23.5564746856689
25.8453617095947
28.7064723968506
27.943510055542
32.1398048400879
40.3416519165039
32.4259147644043
19.4555492401123
16.2129573822021
10.3953666687012
9.82314491271973
18.5972156524658
19.8370304107666
10.9675893783569
7.53425693511963
8.29721927642822
6.38981294631958
14.4009208679199
29.4694347381592
32.2351760864258
22.6981410980225
16.8805503845215
16.7851791381836
18.1203651428223
25.177770614624
29.6601753234863
26.7990646362305
23.4611034393311
19.5509204864502
20.5046234130859
25.8453617095947
29.6601753234863
33.9518394470215
35.8592491149902
33.5703582763672
30.1370277404785
23.9379558563232
17.357400894165
11.9212923049927
13.5425882339478
22.8888816833496
24.891658782959
25.4638805389404
28.2296199798584
22.6027698516846
22.6027698516846
25.7499923706055
20.2185115814209
16.5944385528564
16.022216796875
17.0712909698486
26.1314735412598
35.9546165466309
37.9573936462402
34.5240631103516
34.1425819396973
35.2870254516602
25.9407329559326
13.1611070632935
10.6814785003662
15.0685138702393
14.8777732849121
10.2999963760376
12.7796258926392
20.5046234130859
24.3194370269775
20.3138828277588
13.0657367706299
8.77407169342041
7.91573810577393
15.5453653335571
22.3166599273682
18.4064750671387
20.9814739227295
26.6083240509033
24.0333251953125
23.0796222686768
16.9759197235107
7.82036781311035
9.63240432739258
8.20184898376465
3.91018390655518
6.58055353164673
2.95648050308228
-1.71666610240936
1.43055510520935
3.5287024974823
9.15555286407471
7.43888664245605
-9.25092315673828
-16.6898097991943
-17.738883972168
-21.5536975860596
-19.6462898254395
-15.4499950408936
-14.5916624069214
-10.0138854980469
-7.43888664245605
-17.357400894165
-20.1231422424316
-10.8722190856934
-8.20184898376465
-7.6296272277832
-3.43333220481873
-3.24259161949158
-4.48240613937378
2.00277709960938
9.25092315673828
8.29721927642822
5.91296100616455
5.81759071350098
6.58055353164673
11.1583299636841
11.3490705490112
5.91296100616455
7.43888664245605
6.77129411697388
3.5287024974823
5.24536848068237
2.38425850868225
-0.0953703373670578
-1.81203651428223
-5.34073925018311
-2.8611102104187
-4.10092449188232
-13.4472179412842
-16.4036979675293
-9.72777462005615
-9.72777462005615
-25.6546211242676
-32.9027671813965
-22.9842510223389
-24.1286964416504
-35.2870254516602
-39.1018409729004
-36.2407302856445
-28.8972129821777
-21.6490669250488
-20.6953639984131
-19.8370304107666
-20.1231422424316
-24.7962875366211
-22.6027698516846
-13.8286991119385
-7.34351634979248
0
3.33796191215515
-4.57777643203735
-7.72499752044678
-0.572222054004669
5.7222204208374
8.67870044708252
3.147221326828
-6.6759238243103
-6.96203470230103
0.47685170173645
-0.572222054004669
-4.86388731002808
-3.5287024974823
-4.86388731002808
-4.57777643203735
-5.05462789535522
-10.7768487930298
-11.9212923049927
-8.77407169342041
-0.762962698936462
11.7305517196655
13.1611070632935
3.147221326828
-2.38425850868225
-1.71666610240936
-4.38703584671021
-9.9185152053833
-8.96481227874756
-9.44166374206543
-19.1694374084473
-20.3138828277588
-9.63240432739258
-12.7796258926392
-22.2212886810303
-16.5944385528564
-12.588885307312
-13.4472179412842
-5.91296100616455
1.04907369613647
-0.381481349468231
-4.86388731002808
-2.76573991775513
1.43055510520935
-7.24814605712891
-16.5944385528564
-8.10647869110107
-1.33518481254578
-1.23981440067291
7.34351634979248
8.77407169342041
5.91296100616455
18.3111057281494
23.2703628540039
18.1203651428223
21.3629570007324
19.8370304107666
14.687032699585
11.7305517196655
0.381481349468231
-12.6842555999756
-19.7416610717773
-23.4611034393311
-23.0796222686768
-16.4990692138672
-15.35462474823
-19.9324016571045
-17.0712909698486
-19.7416610717773
-31.9490642547607
-37.099063873291
-39.9601707458496
-48.2573928833008
-50.4509086608887
-47.4944305419922
-42.5351715087891
-32.04443359375
-22.8888816833496
-19.6462898254395
-20.8861045837402
-24.7009181976318
-23.3657341003418
-21.839807510376
-23.2703628540039
-22.6981410980225
-28.1342506408691
-33.9518394470215
-29.5648059844971
-16.9759197235107
0.858333051204681
8.58333015441895
1.71666610240936
-4.95925760269165
-9.15555286407471
-8.48795986175537
-4.00555419921875
-5.05462789535522
-1.71666610240936
9.44166374206543
12.0166625976563
5.91296100616455
5.34073925018311
9.44166374206543
7.34351634979248
4.1962947845459
1.04907369613647
-7.34351634979248
-10.7768487930298
-19.2648086547852
-35.7638778686523
-37.7666549682617
-39.0064697265625
-57.8897972106934
-88.0268249511719
-112.727745056152
-107.482376098633
-80.2064590454102
-36.431468963623
29.3740653991699
109.866630554199
241.38232421875
431.169311523438
607.604431152344
723.479370117188
777.077514648438
770.401611328125
705.835876464844
601.691467285156
455.870239257813
234.420288085938
-37.5759124755859
-266.655456542969
-413.335052490234
-516.430419921875
-585.573913574219
-590.247009277344
-558.870178222656
-526.825744628906
-461.210968017578
-391.209136962891
-362.598022460938
-337.324890136719
-321.398040771484
-315.675811767578
-280.102691650391
-241.954559326172
-213.057342529297
-171.475875854492
-126.937919616699
-69.3342361450195
6.1037015914917
60.3694267272949
70.9555358886719
56.2685012817383
34.810173034668
14.0194396972656
5.91296100616455
11.4444408416748
28.7064723968506
49.4972076416016
59.3203506469727
69.1434936523438
82.1138610839844
78.8712692260742
60.6555366516113
46.3499870300293
43.5842437744141
45.6823921203613
58.5573883056641
80.8740463256836
92.8907089233398
96.13330078125
96.9916381835938
91.6508941650391
84.7842330932617
79.9203414916992
74.1027526855469
66.9499816894531
66.0916442871094
69.6203460693359
68.0944213867188
73.8166427612305
91.269416809082
98.8036727905273
88.7897872924805
81.3508987426758
80.5879364013672
72.8629379272461
62.9444236755371
59.1296119689941
62.1814613342285
65.9009017944336
67.4268264770508
69.1434936523438
65.137939453125
59.2249794006348
57.6036834716797
55.219425201416
48.6388740539551
46.9222068786621
59.6064605712891
71.0509033203125
63.039794921875
47.6851692199707
41.962947845459
37.3851737976074
33.3796195983887
40.6277656555176
42.4398002624512
25.5592517852783
10.8722190856934
6.86666440963745
5.34073925018311
4.1962947845459
1.43055510520935
3.62407302856445
8.0111083984375
4.10092449188232
0.381481349468231
-2.5749990940094
-10.6814785003662
-10.6814785003662
-8.58333015441895
-15.35462474823
-17.738883972168
-13.5425882339478
-2.76573991775513
10.204626083374
10.6814785003662
12.3981437683105
15.2592544555664
5.1499981880188
-1.04907369613647
8.48795986175537
17.738883972168
12.2074031829834
3.05185079574585
-1.14444410800934
5.24536848068237
6.58055353164673
-11.9212923049927
-18.4064750671387
-11.4444408416748
-14.0194396972656
-12.588885307312
-4.95925760269165
-3.147221326828
-5.7222204208374
-7.43888664245605
-9.15555286407471
-16.30832862854
-27.3712882995605
-32.9981384277344
-31.0907306671143
-26.3222141265869
-18.4064750671387
-5.24536848068237
5.24536848068237
7.72499752044678
-0.858333051204681
-19.9324016571045
-28.6111011505127
-28.8018417358398
-33.9518394470215
-38.2435073852539
-45.9685020446777
-50.2601699829102
-45.1101722717285
-45.7777633666992
-53.8842430114746
-57.1268348693848
-54.3610954284668
-57.8897972106934
-68.8573837280273
-70.0971984863281
-66.4731292724609
-68.7620162963867
-67.903678894043
-66.4731292724609
-65.9009017944336
-63.7073860168457
-72.0046081542969
-87.7407150268555
-90.4110794067383
-81.0647888183594
-80.3971939086914
-82.5907135009766
-72.0999755859375
-63.039794921875
-61.6092376708984
-54.9333152770996
-49.5925750732422
-51.7860946655273
-54.9333152770996
-57.8897972106934
-55.6962776184082
-43.2981338500977
-32.1398048400879
-29.8509159088135
-25.4638805389404
-18.2157344818115
-20.6953639984131
-25.7499923706055
-21.4583263397217
-16.5944385528564
-16.4036979675293
-15.0685138702393
-10.5861072540283
-6.1037015914917
2.95648050308228
15.1638841629028
15.5453653335571
7.34351634979248
4.38703584671021
-0.47685170173645
-10.4907369613647
-8.3925895690918
10.5861072540283
27.943510055542
29.1833248138428
20.7907333374023
14.8777732849121
11.4444408416748
10.1092557907104
16.8805503845215
21.5536975860596
16.9759197235107
18.6925868988037
28.5157318115234
30.6138782501221
29.6601753234863
31.5675830841064
32.5212860107422
35.8592491149902
35.0962867736816
26.8944358825684
20.8861045837402
19.6462898254395
20.409252166748
16.6898097991943
11.8259220123291
9.537034034729
5.53147983551025
5.43610954284668
10.5861072540283
12.4935140609741
8.67870044708252
9.82314491271973
21.839807510376
27.4666576385498
20.5046234130859
15.8314762115479
19.7416610717773
26.3222141265869
29.9462871551514
33.2842483520508
42.3444290161133
48.3527641296387
39.0064697265625
28.9925842285156
35.5731353759766
45.9685020446777
47.4944305419922
44.8240585327148
38.0527648925781
32.2351760864258
29.8509159088135
27.943510055542
34.5240631103516
41.2953567504883
38.3388748168945
37.8620262145996
41.1999855041504
37.1944313049316
32.3305435180664
35.4777679443359
39.0064697265625
39.9601707458496
32.9981384277344
22.7935104370117
24.0333251953125
22.3166599273682
16.9759197235107
20.3138828277588
20.9814739227295
24.1286964416504
31.4722118377686
29.3740653991699
20.2185115814209
9.15555286407471
-0.286111027002335
-5.7222204208374
-6.29444265365601
1.43055510520935
10.0138854980469
10.0138854980469
5.62685012817383
2.28888821601868
3.24259161949158
8.86944198608398
8.29721927642822
1.71666610240936
-3.71944332122803
-3.43333220481873
6.96203470230103
15.6407356262207
10.0138854980469
4.38703584671021
6.86666440963745
3.147221326828
-2.1935179233551
-4.29166507720947
-10.7768487930298
-11.3490705490112
-4.10092449188232
-2.00277709960938
-5.62685012817383
-7.72499752044678
-8.58333015441895
-6.29444265365601
-5.43610954284668
-10.9675893783569
-9.06018257141113
-9.15555286407471
-15.2592544555664
-10.5861072540283
-2.8611102104187
2.1935179233551
-4.38703584671021
-15.1638841629028
-11.7305517196655
-12.0166625976563
-13.6379585266113
-3.24259161949158
3.71944332122803
1.81203651428223
0.286111027002335
7.91573810577393
16.8805503845215
17.4527721405029
9.63240432739258
2.5749990940094
2.67036962509155
1.23981440067291
2.38425850868225
9.06018257141113
10.2999963760376
7.34351634979248
1.04907369613647
-9.63240432739258
-19.9324016571045
-19.9324016571045
-4.57777643203735
0.572222054004669
-14.687032699585
-20.8861045837402
-13.8286991119385
-11.8259220123291
-3.24259161949158
8.67870044708252
4.86388731002808
-1.23981440067291
-2.28888821601868
-5.34073925018311
-8.3925895690918
-9.25092315673828
-10.4907369613647
-5.05462789535522
3.43333220481873
-3.91018390655518
-10.8722190856934
-2.38425850868225
2.00277709960938
-0.667592406272888
-3.24259161949158
-0.858333051204681
5.05462789535522
3.5287024974823
-4.38703584671021
-9.537034034729
-10.4907369613647
-9.25092315673828
-14.0194396972656
-19.360179901123
-15.6407356262207
-11.7305517196655
-14.5916624069214
-17.738883972168
-18.2157344818115
-14.687032699585
-8.96481227874756
-11.0629596710205
-12.7796258926392
-1.52592539787292
16.4990692138672
31.3768424987793
33.0935096740723
29.4694347381592
30.0416564941406
23.1749935150146
16.6898097991943
13.6379585266113
2.1935179233551
-7.0574049949646
-10.3953666687012
-7.82036781311035
2.38425850868225
6.86666440963745
-0.381481349468231
-2.67036962509155
-0.572222054004669
-11.1583299636841
-18.2157344818115
-18.8833274841309
-34.5240631103516
-51.9768333435059
-59.0342407226563
-59.3203506469727
-51.3092422485352
-41.3907279968262
-33.2842483520508
-27.1805477142334
-26.5129547119141
-28.3249912261963
-27.8481388092041
-27.5620288848877
-33.5703582763672
-38.8157272338867
-33.6657295227051
-25.177770614624
-28.8018417358398
-38.5296173095703
-33.9518394470215
-25.9407329559326
-31.9490642547607
-37.3851737976074
-37.2898025512695
-39.3879508972168
-33.761100769043
-25.7499923706055
-24.9870281219482
-22.3166599273682
-22.0305480957031
-22.6027698516846
-12.2074031829834
-2.8611102104187
-4.67314672470093
-6.96203470230103
-8.20184898376465
-19.1694374084473
-29.0879535675049
-29.0879535675049
-30.8046188354492
-30.995361328125
-33.0935096740723
-61.7046089172363
-105.002746582031
-123.9814453125
-118.259223937988
-98.6129302978516
-48.4481315612793
19.9324016571045
103.667556762695
247.009185791016
434.125793457031
606.269226074219
734.351623535156
787.949768066406
757.622009277344
683.042358398438
582.045166015625
423.348937988281
189.500869750977
-79.1573791503906
-304.803619384766
-453.199859619141
-546.948913574219
-595.873901367188
-609.988708496094
-603.598876953125
-559.347045898438
-483.909118652344
-425.733184814453
-384.151733398438
-347.911010742188
-334.082305908203
-310.716552734375
-274.857330322266
-253.780471801758
-220.591598510742
-179.773086547852
-130.943481445313
-38.0527648925781
56.7453536987305
92.6045989990234
89.7434921264648
83.0675659179688
64.6610870361328
34.0472106933594
21.2675857543945
33.9518394470215
50.5462799072266
68.1897964477539
87.3592300415039
93.0814514160156
90.220344543457
91.269416809082
86.0240478515625
72.1953506469727
62.7536849975586
68.5712738037109
78.9666442871094
87.4546051025391
100.424964904785
100.997192382813
96.6101531982422
102.237007141113
94.3212661743164
77.4407196044922
68.7620162963867
63.8027572631836
61.7046089172363
63.7073860168457
75.7240524291992
83.4490509033203
74.1027526855469
64.3749771118164
59.701831817627
60.274055480957
63.6120147705078
62.4675712585449
57.0314636230469
53.4073905944824
62.2768325805664
77.9175643920898
81.3508987426758
76.7731246948242
73.4351654052734
69.7157211303711
66.4731292724609
60.7509078979492
55.6009063720703
52.5490570068359
44.7286911010742
41.0092468261719
43.0120239257813
41.4860992431641
45.300910949707
55.3147964477539
59.3203506469727
55.887020111084
46.1592445373535
35.7638778686523
27.657398223877
25.177770614624
32.04443359375
34.4286918640137
29.6601753234863
31.3768424987793
32.9027671813965
31.3768424987793
31.5675830841064
18.5018463134766
7.72499752044678
11.8259220123291
6.38981294631958
-6.38981294631958
-6.1037015914917
1.33518481254578
3.24259161949158
4.1962947845459
7.91573810577393
7.24814605712891
0.667592406272888
-4.29166507720947
-10.4907369613647
-17.2620315551758
-9.63240432739258
2.38425850868225
8.48795986175537
11.8259220123291
9.72777462005615
8.29721927642822
9.82314491271973
6.38981294631958
-2.47962880134583
-13.5425882339478
-20.2185115814209
-17.0712909698486
-9.72777462005615
-3.24259161949158
1.43055510520935
-6.19907188415527
-18.8833274841309
-22.6027698516846
-27.8481388092041
-30.70924949646
-20.9814739227295
-15.9268465042114
-24.3194370269775
-29.9462871551514
-29.278694152832
-37.5759124755859
-54.8379440307617
-66.5684967041016
-72.0046081542969
-70.7647933959961
-61.0370178222656
-54.0749816894531
-56.0777587890625
-62.8490524291992
-65.4240493774414
-63.1351661682129
-63.5166473388672
-67.2360916137695
-75.0564575195313
-83.8305282592773
-82.4953460693359
-74.9610900878906
-63.6120147705078
-48.8296127319336
-48.4481315612793
-56.5546112060547
-53.3120193481445
-51.2138710021973
-60.7509078979492
-68.6666412353516
-72.2907180786133
-74.3888626098633
-62.0860900878906
-44.4425773620605
-39.5786895751953
-33.5703582763672
-28.9925842285156
-35.0962867736816
-39.9601707458496
-43.0120239257813
-42.3444290161133
-33.9518394470215
-26.7990646362305
-24.9870281219482
-23.8425846099854
-15.9268465042114
-5.81759071350098
-10.9675893783569
-20.0277709960938
-20.5999927520752
-22.2212886810303
-21.2675857543945
-18.3111057281494
-15.6407356262207
-11.635181427002
-2.09814739227295
8.67870044708252
6.86666440963745
4.57777643203735
9.82314491271973
9.537034034729
4.7685170173645
5.81759071350098
8.58333015441895
9.06018257141113
13.8286991119385
21.3629570007324
21.839807510376
18.0249938964844
21.2675857543945
27.657398223877
29.3740653991699
28.2296199798584
24.5101776123047
18.6925868988037
16.8805503845215
27.7527694702148
38.5296173095703
37.4805450439453
36.7175827026367
39.197208404541
44.251838684082
47.017578125
42.3444290161133
40.4370231628418
38.5296173095703
31.2814712524414
27.7527694702148
29.3740653991699
36.0499877929688
38.5296173095703
26.9898052215576
22.0305480957031
31.6629524230957
32.9027671813965
31.6629524230957
32.6166572570801
24.5101776123047
25.0823993682861
33.6657295227051
34.2379531860352
30.2323970794678
22.6981410980225
21.1722145080566
24.1286964416504
20.5999927520752
22.4120292663574
27.1805477142334
26.9898052215576
32.1398048400879
35.7638778686523
32.7120246887207
30.4231376647949
27.8481388092041
24.7009181976318
14.7824029922485
1.33518481254578
2.28888821601868
13.5425882339478
20.7907333374023
21.2675857543945
12.4935140609741
4.7685170173645
8.29721927642822
9.44166374206543
2.47962880134583
-5.43610954284668
-8.3925895690918
-6.29444265365601
-1.33518481254578
3.71944332122803
3.33796191215515
0.190740674734116
1.9074068069458
5.1499981880188
3.33796191215515
1.62129580974579
1.9074068069458
0.381481349468231
0
3.8148136138916
10.8722190856934
15.2592544555664
11.7305517196655
11.8259220123291
12.7796258926392
2.95648050308228
-0.9537034034729
-2.1935179233551
-7.91573810577393
-1.71666610240936
10.204626083374
18.1203651428223
20.5999927520752
16.4036979675293
9.34629344940186
2.1935179233551
-2.95648050308228
-7.15277528762817
-2.95648050308228
5.24536848068237
4.86388731002808
8.67870044708252
16.2129573822021
15.1638841629028
12.6842555999756
16.4990692138672
15.9268465042114
7.72499752044678
-2.1935179233551
-12.2074031829834
-10.9675893783569
-12.8749961853027
-28.8018417358398
-30.4231376647949
-22.9842510223389
-21.7444381713867
-16.30832862854
-10.5861072540283
-7.24814605712891
-0.47685170173645
3.62407302856445
-0.572222054004669
-6.00833129882813
-0.762962698936462
11.4444408416748
10.7768487930298
1.71666610240936
3.33796191215515
6.58055353164673
3.5287024974823
1.9074068069458
1.71666610240936
1.33518481254578
1.43055510520935
-1.81203651428223
-6.1037015914917
-4.67314672470093
-4.00555419921875
-6.00833129882813
-4.10092449188232
-3.33796191215515
-10.8722190856934
-12.0166625976563
-8.10647869110107
-15.0685138702393
-19.8370304107666
-11.9212923049927
-8.96481227874756
-18.9786968231201
-27.8481388092041
-26.3222141265869
-18.1203651428223
-12.6842555999756
-6.38981294631958
-1.14444410800934
-5.91296100616455
-2.38425850868225
3.24259161949158
-6.19907188415527
-2.1935179233551
13.7333288192749
6.77129411697388
-4.57777643203735
2.09814739227295
6.38981294631958
3.62407302856445
6.6759238243103
9.06018257141113
10.204626083374
16.7851791381836
20.2185115814209
20.8861045837402
21.6490669250488
14.2101802825928
0.190740674734116
-12.8749961853027
-20.0277709960938
-16.4990692138672
-9.06018257141113
-8.20184898376465
-9.25092315673828
-5.1499981880188
3.8148136138916
14.1148099899292
26.9898052215576
38.3388748168945
34.0472106933594
24.3194370269775
20.8861045837402
9.06018257141113
-4.00555419921875
-6.38981294631958
-10.8722190856934
-19.7416610717773
-18.5018463134766
-12.9703664779663
-16.2129573822021
-15.8314762115479
-10.5861072540283
-17.0712909698486
-32.9027671813965
-43.4888763427734
-42.4398002624512
-44.6333198547363
-59.0342407226563
-67.3314590454102
-62.2768325805664
-57.2222023010254
-51.3092422485352
-42.4398002624512
-37.0036926269531
-37.9573936462402
-41.2953567504883
-42.9166526794434
-41.8675804138184
-36.6222114562988
-36.1453590393066
-38.7203598022461
-37.1944313049316
-36.9083213806152
-32.4259147644043
-25.8453617095947
-22.3166599273682
-10.6814785003662
-0.667592406272888
-1.52592539787292
0.286111027002335
5.34073925018311
-2.00277709960938
-11.7305517196655
-8.58333015441895
-1.52592539787292
6.00833129882813
9.06018257141113
3.05185079574585
-0.858333051204681
-3.05185079574585
-8.0111083984375
-8.10647869110107
-4.95925760269165
-10.3953666687012
-21.1722145080566
-30.2323970794678
-39.9601707458496
-53.5981292724609
-77.8221969604492
-114.444404602051
-138.95458984375
-132.850875854492
-102.141632080078
-52.8351669311523
14.7824029922485
121.883293151855
274.475830078125
449.194305419922
628.872009277344
760.9599609375
795.960876464844
756.859008789063
658.913696289063
517.860961914063
346.671173095703
95.9425582885742
-198.75178527832
-412.285980224609
-540.082214355469
-652.619262695313
-727.866455078125
-717.757202148438
-655.194213867188
-580.805358886719
-499.454467773438
-423.730407714844
-350.676727294922
-273.617492675781
-224.31103515625
-199.610122680664
-169.759201049805
-142.864776611328
-96.13330078125
-10.8722190856934
56.936092376709
85.9286727905273
106.147186279297
114.444404602051
99.948112487793
84.8796005249023
75.0564575195313
51.9768333435059
36.6222114562988
47.4944305419922
63.5166473388672
81.827751159668
102.999969482422
111.583297729492
106.147186279297
89.8388595581055
75.247200012207
72.6721954345703
71.6231231689453
65.9009017944336
64.5657196044922
74.8657150268555
88.3129348754883
91.3647842407227
87.7407150268555
78.7759017944336
63.6120147705078
58.652759552002
64.756462097168
57.9851684570313
47.1129493713379
57.5083160400391
76.8684921264648
86.9777526855469
90.7925643920898
90.7925643920898
85.1657104492188
76.7731246948242
71.6231231689453
68.8573837280273
65.2333145141602
64.6610870361328
66.9499816894531
68.6666412353516
69.2388687133789
64.2796096801758
58.5573883056641
59.5110931396484
59.7972030639648
49.4972076416016
37.3851737976074
39.1018409729004
39.6740608215332
37.5759124755859
40.3416519165039
32.1398048400879
27.3712882995605
30.1370277404785
22.125919342041
17.357400894165
14.687032699585
7.6296272277832
9.82314491271973
12.588885307312
6.48518323898315
6.6759238243103
17.0712909698486
28.8972129821777
38.3388748168945
39.6740608215332
40.6277656555176
41.6768379211426
32.3305435180664
26.5129547119141
29.0879535675049
28.7064723968506
29.3740653991699
33.8564720153809
36.3360977172852
28.9925842285156
13.256477355957
6.38981294631958
6.86666440963745
-1.9074068069458
-16.5944385528564
-18.1203651428223
-3.5287024974823
0.572222054004669
-4.10092449188232
0
-1.52592539787292
-6.77129411697388
-10.0138854980469
-20.1231422424316
-24.6055469512939
-24.7962875366211
-30.2323970794678
-34.6194343566895
-35.1916542053223
-28.9925842285156
-18.6925868988037
-17.2620315551758
-25.2731399536133
-31.5675830841064
-37.0036926269531
-41.8675804138184
-36.2407302856445
-33.0935096740723
-40.5323944091797
-35.4777679443359
-22.7935104370117
-26.4175834655762
-41.2953567504883
-54.7425765991211
-68.5712738037109
-87.0731201171875
-96.4194107055664
-89.2666397094727
-84.2120132446289
-84.4027481079102
-82.0184936523438
-82.9721984863281
-88.7897872924805
-96.7055282592773
-96.6101531982422
-85.1657104492188
-76.8684921264648
-76.8684921264648
-76.8684921264648
-74.4842376708984
-71.5277557373047
-71.4323883056641
-75.6286773681641
-77.7268295288086
-76.0101623535156
-78.394416809082
-83.2583084106445
-82.3999710083008
-78.012939453125
-73.9120101928711
-68.3805313110352
-65.137939453125
-64.4703521728516
-62.9444236755371
-56.936092376709
-45.300910949707
-38.2435073852539
-34.2379531860352
-26.5129547119141
-22.3166599273682
-20.0277709960938
-16.1175880432129
-20.6953639984131
-26.9898052215576
-22.6027698516846
-18.8833274841309
-15.5453653335571
-6.96203470230103
-4.00555419921875
0
8.48795986175537
7.6296272277832
5.1499981880188
11.1583299636841
17.2620315551758
19.2648086547852
24.5101776123047
30.0416564941406
30.70924949646
30.995361328125
31.9490642547607
29.8509159088135
27.0851764678955
28.8018417358398
31.2814712524414
30.4231376647949
30.8046188354492
30.995361328125
28.7064723968506
32.2351760864258
42.5351715087891
45.0148010253906
41.6768379211426
46.5407257080078
53.121280670166
54.5518341064453
53.2166481018066
53.8842430114746
52.9305381774902
49.4018363952637
54.0749816894531
56.7453536987305
52.1675758361816
50.5462799072266
44.6333198547363
40.913875579834
48.1620216369629
50.832389831543
49.4018363952637
40.4370231628418
31.2814712524414
40.0555419921875
45.2055397033691
42.1536903381348
43.7749862670898
39.7694320678711
34.0472106933594
34.2379531860352
30.995361328125
33.5703582763672
43.9657249450684
39.9601707458496
28.9925842285156
30.70924949646
37.1944313049316
39.2925796508789
40.0555419921875
37.5759124755859
28.8972129821777
21.0768451690674
16.4036979675293
14.4962921142578
12.9703664779663
13.7333288192749
21.2675857543945
24.891658782959
23.9379558563232
27.657398223877
25.7499923706055
22.125919342041
22.7935104370117
16.4990692138672
15.35462474823
26.4175834655762
28.8972129821777
22.0305480957031
15.35462474823
12.588885307312
15.0685138702393
16.6898097991943
19.5509204864502
22.125919342041
18.3111057281494
18.5018463134766
18.9786968231201
11.4444408416748
9.537034034729
12.3981437683105
8.29721927642822
8.0111083984375
14.4009208679199
11.5398111343384
1.33518481254578
-2.67036962509155
-5.1499981880188
-7.43888664245605
-4.86388731002808
-2.47962880134583
1.33518481254578
5.24536848068237
0.286111027002335
-7.24814605712891
-9.63240432739258
-8.10647869110107
-10.7768487930298
-16.8805503845215
-19.360179901123
-19.074068069458
-13.8286991119385
-6.6759238243103
-4.10092449188232
-6.86666440963745
-12.8749961853027
-14.0194396972656
-7.43888664245605
-1.23981440067291
4.57777643203735
6.58055353164673
-2.1935179233551
-12.1120328903198
-7.43888664245605
-2.76573991775513
-8.77407169342041
-11.4444408416748
-14.4962921142578
-21.4583263397217
-24.5101776123047
-24.891658782959
-23.0796222686768
-18.787956237793
-20.3138828277588
-24.6055469512939
-21.6490669250488
-11.9212923049927
-4.48240613937378
-4.57777643203735
-7.15277528762817
-8.48795986175537
-7.72499752044678
-6.48518323898315
-8.77407169342041
-10.2999963760376
-12.4935140609741
-17.2620315551758
-20.6953639984131
-17.6435127258301
-6.1037015914917
-3.71944332122803
-10.204626083374
-5.91296100616455
-3.33796191215515
-11.3490705490112
-16.022216796875
-15.2592544555664
-13.0657367706299
-11.3490705490112
-15.1638841629028
-15.7361059188843
-11.1583299636841
-13.3518476486206
-12.302773475647
-7.34351634979248
-9.82314491271973
-11.7305517196655
-9.9185152053833
-11.7305517196655
-14.687032699585
-22.0305480957031
-28.6111011505127
-22.4120292663574
-12.3981437683105
-10.4907369613647
-17.738883972168
-23.9379558563232
-19.074068069458
-12.1120328903198
-15.4499950408936
-18.4064750671387
-12.3981437683105
-3.43333220481873
0.286111027002335
-7.43888664245605
-12.9703664779663
-15.35462474823
-22.4120292663574
-20.5999927520752
-10.0138854980469
-0.572222054004669
3.43333220481873
6.86666440963745
11.9212923049927
9.9185152053833
1.71666610240936
-5.7222204208374
-6.38981294631958
-3.147221326828
-9.9185152053833
-15.35462474823
-8.96481227874756
-12.6842555999756
-15.2592544555664
2.00277709960938
17.4527721405029
30.2323970794678
44.9194297790527
44.6333198547363
29.0879535675049
12.9703664779663
4.00555419921875
-1.52592539787292
-3.71944332122803
1.71666610240936
3.71944332122803
-4.00555419921875
-7.53425693511963
0.286111027002335
6.48518323898315
6.96203470230103
10.2999963760376
5.43610954284668
-13.9240694046021
-27.2759170532227
-34.5240631103516
-45.7777633666992
-50.9277610778809
-50.1647987365723
-45.5870208740234
-38.2435073852539
-36.1453590393066
-36.2407302856445
-33.5703582763672
-27.5620288848877
-24.3194370269775
-30.4231376647949
-30.2323970794678
-23.5564746856689
-28.3249912261963
-35.7638778686523
-38.0527648925781
-39.3879508972168
-35.2870254516602
-29.3740653991699
-25.7499923706055
-25.4638805389404
-29.4694347381592
-28.4203605651855
-21.4583263397217
-18.9786968231201
-15.35462474823
-10.2999963760376
-9.537034034729
-5.05462789535522
-0.762962698936462
0.190740674734116
2.00277709960938
4.86388731002808
12.1120328903198
12.588885307312
1.43055510520935
-3.147221326828
-6.38981294631958
-23.3657341003418
-39.5786895751953
-45.6823921203613
-61.2277565002441
-89.2666397094727
-108.245338439941
-105.76570892334
-81.827751159668
-33.9518394470215
29.9462871551514
114.34903717041
248.153625488281
418.771148681641
598.544250488281
754.188659667969
820.471008300781
787.663635253906
695.249755859375
565.164611816406
402.653564453125
172.620315551758
-116.828666687012
-357.638763427734
-504.127624511719
-615.615539550781
-704.596069335938
-722.3349609375
-666.638671875
-582.426635742188
-492.969299316406
-412.38134765625
-338.087860107422
-259.216583251953
-206.476791381836
-187.593460083008
-164.323089599609
-142.006439208984
-120.548110961914
-56.3638725280762
30.3277683258057
81.0647888183594
108.436073303223
127.986999511719
117.877738952637
94.3212661743164
74.5796051025391
58.652759552002
51.2138710021973
47.9712791442871
57.7944259643555
80.111083984375
100.329597473145
113.395332336426
111.1064453125
94.8934860229492
76.0101623535156
64.5657196044922
59.7972030639648
57.0314636230469
57.6036834716797
70.0018310546875
92.4138565063477
101.474044799805
98.1360778808594
94.416633605957
83.5444183349609
67.5222015380859
57.8897972106934
54.5518341064453
51.5953521728516
52.453685760498
51.9768333435059
55.3147964477539
65.2333145141602
57.6036834716797
36.6222114562988
26.7036952972412
30.8999900817871
37.2898025512695
33.2842483520508
31.0907306671143
37.099063873291
32.04443359375
28.1342506408691
40.913875579834
49.2110939025879
48.1620216369629
44.1564674377441
40.7231369018555
40.7231369018555
39.9601707458496
36.8129501342773
29.4694347381592
24.9870281219482
26.7036952972412
31.7583236694336
37.4805450439453
33.0935096740723
32.04443359375
37.6712837219238
32.3305435180664
25.5592517852783
21.7444381713867
21.4583263397217
29.0879535675049
33.1888771057129
27.657398223877
18.2157344818115
12.7796258926392
8.0111083984375
2.76573991775513
2.00277709960938
6.6759238243103
11.3490705490112
11.7305517196655
13.0657367706299
17.6435127258301
19.5509204864502
16.1175880432129
10.204626083374
3.71944332122803
-4.95925760269165
-12.9703664779663
-13.6379585266113
-19.074068069458
-27.8481388092041
-21.1722145080566
-5.62685012817383
2.76573991775513
3.91018390655518
1.81203651428223
-5.1499981880188
-18.2157344818115
-28.7064723968506
-27.5620288848877
-18.1203651428223
-9.44166374206543
-0.286111027002335
5.81759071350098
-1.71666610240936
-12.6842555999756
-8.86944198608398
-4.95925760269165
-18.5972156524658
-31.4722118377686
-37.4805450439453
-39.1018409729004
-29.5648059844971
-22.2212886810303
-22.9842510223389
-29.278694152832
-42.8212814331055
-61.7999801635742
-74.1027526855469
-73.8166427612305
-74.1027526855469
-77.7268295288086
-80.6833038330078
-77.4407196044922
-64.6610870361328
-57.5083160400391
-68.1897964477539
-85.1657104492188
-86.9777526855469
-80.3018264770508
-82.876823425293
-82.4953460693359
-74.8657150268555
-72.5768280029297
-71.6231231689453
-67.903678894043
-72.1953506469727
-89.2666397094727
-94.03515625
-83.7351608276367
-82.9721984863281
-81.827751159668
-70.2879409790039
-58.1759071350098
-51.2138710021973
-51.5953521728516
-58.1759071350098
-66.6638641357422
-67.3314590454102
-57.4129447937012
-48.4481315612793
-44.0610961914063
-33.3796195983887
-22.9842510223389
-18.9786968231201
-16.1175880432129
-17.8342533111572
-13.256477355957
-7.53425693511963
-13.256477355957
-10.3953666687012
-0.286111027002335
5.62685012817383
10.0138854980469
11.635181427002
19.6462898254395
27.1805477142334
23.8425846099854
20.409252166748
19.7416610717773
19.2648086547852
16.8805503845215
16.1175880432129
25.177770614624
30.2323970794678
26.9898052215576
28.8018417358398
31.4722118377686
33.1888771057129
36.431468963623
32.6166572570801
24.5101776123047
25.6546211242676
27.1805477142334
24.6055469512939
29.1833248138428
32.6166572570801
30.995361328125
32.5212860107422
35.5731353759766
40.4370231628418
47.3036880493164
51.6907234191895
55.3147964477539
50.6416511535645
41.4860992431641
46.0638732910156
51.404613494873
51.7860946655273
57.6036834716797
58.5573883056641
51.7860946655273
41.1999855041504
32.4259147644043
28.4203605651855
20.9814739227295
18.5972156524658
23.6518440246582
32.1398048400879
40.7231369018555
40.1509132385254
39.4833221435547
40.6277656555176
33.6657295227051
25.8453617095947
27.657398223877
29.278694152832
24.4148063659668
24.2240657806396
29.7555465698242
32.7120246887207
30.8999900817871
26.1314735412598
26.4175834655762
32.7120246887207
35.0962867736816
34.9055442810059
30.8999900817871
26.226842880249
28.9925842285156
29.278694152832
21.6490669250488
11.9212923049927
7.15277528762817
0.286111027002335
-14.687032699585
-18.6925868988037
-9.25092315673828
-8.48795986175537
-9.9185152053833
-2.47962880134583
5.05462789535522
9.537034034729
8.96481227874756
6.58055353164673
8.67870044708252
12.302773475647
15.1638841629028
16.1175880432129
12.2074031829834
6.58055353164673
8.58333015441895
18.5018463134766
21.6490669250488
14.4962921142578
13.4472179412842
14.4009208679199
6.38981294631958
6.6759238243103
14.7824029922485
12.0166625976563
8.58333015441895
13.9240694046021
17.5481433868408
15.0685138702393
8.67870044708252
4.29166507720947
-0.286111027002335
-6.1037015914917
-6.48518323898315
-8.77407169342041
-12.6842555999756
-8.3925895690918
-9.537034034729
-15.9268465042114
-8.96481227874756
-7.15277528762817
-14.2101802825928
-10.0138854980469
-8.48795986175537
-16.1175880432129
-14.687032699585
-13.9240694046021
-23.1749935150146
-27.2759170532227
-23.0796222686768
-14.8777732849121
-6.77129411697388
-4.48240613937378
-0.858333051204681
4.48240613937378
4.86388731002808
3.147221326828
7.72499752044678
16.9759197235107
19.4555492401123
10.9675893783569
1.43055510520935
4.67314672470093
8.96481227874756
2.09814739227295
-1.23981440067291
3.05185079574585
9.34629344940186
10.8722190856934
-1.71666610240936
-13.0657367706299
-4.7685170173645
1.23981440067291
-3.91018390655518
-7.91573810577393
-11.9212923049927
-14.4009208679199
-15.9268465042114
-16.9759197235107
-13.5425882339478
-14.5916624069214
-15.8314762115479
-12.6842555999756
-18.1203651428223
-20.409252166748
-13.5425882339478
-16.022216796875
-19.360179901123
-16.4990692138672
-15.2592544555664
-12.588885307312
-14.4962921142578
-18.787956237793
-16.8805503845215
-20.9814739227295
-28.1342506408691
-18.5018463134766
-4.29166507720947
-7.34351634979248
-14.2101802825928
-14.0194396972656
-16.5944385528564
-24.3194370269775
-32.3305435180664
-39.864803314209
-43.0120239257813
-37.9573936462402
-29.278694152832
-23.3657341003418
-13.6379585266113
-4.1962947845459
-7.53425693511963
-14.0194396972656
-15.1638841629028
-14.3055505752563
-13.7333288192749
-11.0629596710205
-8.10647869110107
-14.687032699585
-21.1722145080566
-22.3166599273682
-25.6546211242676
-26.5129547119141
-22.6027698516846
-15.4499950408936
-8.3925895690918
-2.09814739227295
8.48795986175537
14.3055505752563
12.588885307312
6.6759238243103
3.71944332122803
10.6814785003662
15.4499950408936
5.81759071350098
-5.05462789535522
-1.04907369613647
5.62685012817383
2.00277709960938
-2.38425850868225
3.62407302856445
9.63240432739258
6.86666440963745
6.19907188415527
12.7796258926392
25.2731399536133
39.864803314209
44.3472061157227
38.148136138916
23.6518440246582
10.3953666687012
11.8259220123291
17.738883972168
17.5481433868408
14.687032699585
12.7796258926392
17.357400894165
20.3138828277588
8.67870044708252
1.9074068069458
6.96203470230103
2.67036962509155
-10.8722190856934
-24.5101776123047
-34.1425819396973
-39.0064697265625
-39.864803314209
-37.2898025512695
-40.0555419921875
-38.148136138916
-25.8453617095947
-17.2620315551758
-12.0166625976563
-13.256477355957
-21.1722145080566
-20.2185115814209
-17.2620315551758
-22.7935104370117
-24.9870281219482
-18.6925868988037
-11.635181427002
-6.19907188415527
-0.762962698936462
0.9537034034729
1.23981440067291
5.91296100616455
8.3925895690918
4.38703584671021
-2.28888821601868
-3.147221326828
2.09814739227295
4.1962947845459
3.33796191215515
7.43888664245605
14.0194396972656
20.2185115814209
24.891658782959
23.2703628540039
14.5916624069214
1.43055510520935
-10.5861072540283
-20.3138828277588
-31.6629524230957
-42.5351715087891
-51.3092422485352
-68.0944213867188
-102.61848449707
-132.755508422852
-131.515701293945
-108.436073303223
-65.2333145141602
3.24259161949158
97.7546005249023
236.613815307617
414.670227050781
597.685913085938
748.657165527344
822.37841796875
803.399719238281
719.283081054688
594.538696289063
438.13134765625
212.580490112305
-79.4434967041016
-324.735992431641
-477.710021972656
-587.57666015625
-665.971069335938
-696.012756347656
-669.690551757813
-596.922973632813
-509.849822998047
-437.082275390625
-372.993408203125
-310.335083007813
-257.309173583984
-227.744369506836
-211.53141784668
-182.729568481445
-157.170318603516
-126.747184753418
-56.5546112060547
16.4990692138672
58.3666496276855
77.8221969604492
73.3397903442383
52.1675758361816
30.2323970794678
13.1611070632935
2.1935179233551
1.52592539787292
15.1638841629028
35.2870254516602
47.9712791442871
53.5981292724609
54.6472053527832
54.4564628601074
51.404613494873
40.3416519165039
34.0472106933594
34.6194343566895
42.5351715087891
60.274055480957
72.0046081542969
76.4870147705078
75.9147872924805
67.6175689697266
58.4620170593262
50.6416511535645
44.7286911010742
48.8296127319336
55.4101676940918
52.8351669311523
49.3064651489258
53.5981292724609
65.5194244384766
78.012939453125
80.8740463256836
70.0018310546875
53.4073905944824
43.7749862670898
44.3472061157227
50.7370223999023
59.3203506469727
65.5194244384766
68.9527587890625
73.3397903442383
75.4379425048828
72.0046081542969
69.2388687133789
67.8083114624023
61.5138702392578
58.652759552002
62.2768325805664
55.5055389404297
42.4398002624512
43.9657249450684
52.6444282531738
55.1240577697754
47.3036880493164
33.4749908447266
31.3768424987793
32.9027671813965
25.0823993682861
17.738883972168
14.687032699585
14.687032699585
20.3138828277588
27.7527694702148
31.6629524230957
29.3740653991699
26.226842880249
25.3685111999512
21.0768451690674
13.8286991119385
10.1092557907104
13.9240694046021
16.6898097991943
15.5453653335571
23.2703628540039
27.2759170532227
23.1749935150146
25.6546211242676
25.3685111999512
18.4064750671387
10.7768487930298
1.14444410800934
-1.14444410800934
1.62129580974579
-2.28888821601868
-1.33518481254578
9.44166374206543
13.6379585266113
4.57777643203735
-3.05185079574585
-4.29166507720947
-5.34073925018311
-3.147221326828
-5.91296100616455
-13.256477355957
-8.20184898376465
-5.53147983551025
-14.8777732849121
-21.1722145080566
-26.0361022949219
-28.6111011505127
-30.1370277404785
-36.7175827026367
-31.0907306671143
-17.9296245574951
-21.0768451690674
-25.6546211242676
-25.9407329559326
-38.6249885559082
-56.6499824523926
-66.3777542114258
-64.5657196044922
-61.2277565002441
-67.903678894043
-73.1490478515625
-72.3860855102539
-72.0999755859375
-69.3342361450195
-71.9092330932617
-75.3425674438477
-69.8110885620117
-73.0536804199219
-82.4953460693359
-76.9638671875
-65.9962768554688
-63.5166473388672
-60.5601654052734
-55.887020111084
-59.5110931396484
-63.2305335998535
-63.1351661682129
-69.9064559936523
-78.2036819458008
-75.9147872924805
-67.2360916137695
-58.1759071350098
-51.7860946655273
-46.8268356323242
-37.5759124755859
-36.2407302856445
-45.6823921203613
-52.453685760498
-54.3610954284668
-47.3990592956543
-36.431468963623
-25.8453617095947
-10.0138854980469
0.667592406272888
0
-3.71944332122803
-12.302773475647
-20.5046234130859
-16.7851791381836
-8.67870044708252
-8.3925895690918
-12.9703664779663
-10.7768487930298
-1.43055510520935
0.381481349468231
-3.71944332122803
2.76573991775513
7.15277528762817
3.43333220481873
9.25092315673828
17.738883972168
21.6490669250488
24.0333251953125
26.226842880249
27.2759170532227
24.7962875366211
22.125919342041
23.4611034393311
22.3166599273682
23.8425846099854
28.0388793945313
25.8453617095947
27.8481388092041
26.7990646362305
20.0277709960938
23.4611034393311
27.1805477142334
26.6083240509033
31.2814712524414
39.1018409729004
34.9055442810059
20.3138828277588
17.738883972168
15.5453653335571
6.6759238243103
8.20184898376465
14.4962921142578
23.4611034393311
32.6166572570801
25.5592517852783
21.0768451690674
33.4749908447266
37.9573936462402
33.2842483520508
33.8564720153809
40.2462844848633
42.2490615844727
32.8073959350586
25.6546211242676
26.6083240509033
25.7499923706055
19.6462898254395
14.4009208679199
18.3111057281494
20.1231422424316
17.9296245574951
23.6518440246582
31.2814712524414
31.5675830841064
29.7555465698242
34.2379531860352
37.0036926269531
34.7148017883301
35.7638778686523
33.0935096740723
23.5564746856689
24.0333251953125
31.4722118377686
32.4259147644043
33.2842483520508
31.8536930084229
29.9462871551514
32.9981384277344
32.8073959350586
32.9981384277344
33.9518394470215
32.1398048400879
28.8018417358398
31.6629524230957
36.6222114562988
30.0416564941406
27.3712882995605
31.4722118377686
27.943510055542
18.787956237793
10.3953666687012
8.48795986175537
8.0111083984375
8.3925895690918
15.4499950408936
21.5536975860596
17.1666603088379
7.82036781311035
3.147221326828
-2.76573991775513
-10.9675893783569
-8.48795986175537
-2.28888821601868
-7.53425693511963
-12.4935140609741
-10.204626083374
-10.3953666687012
-8.29721927642822
-4.95925760269165
-5.62685012817383
-2.09814739227295
5.43610954284668
8.77407169342041
7.6296272277832
2.09814739227295
-7.72499752044678
-7.24814605712891
0.47685170173645
-2.5749990940094
-6.96203470230103
-6.19907188415527
-13.3518476486206
-17.6435127258301
-8.58333015441895
0.0953703373670578
-0.286111027002335
-4.95925760269165
-0.381481349468231
5.1499981880188
-2.09814739227295
-5.24536848068237
-6.38981294631958
-5.7222204208374
5.7222204208374
9.537034034729
7.72499752044678
4.38703584671021
-12.302773475647
-23.4611034393311
-19.4555492401123
-22.5074005126953
-35.2870254516602
-33.9518394470215
-23.7472152709961
-23.4611034393311
-20.7907333374023
-13.5425882339478
-16.4990692138672
-17.6435127258301
-10.8722190856934
-14.3055505752563
-23.2703628540039
-21.1722145080566
-17.5481433868408
-21.839807510376
-27.657398223877
-27.7527694702148
-22.6981410980225
-19.5509204864502
-20.0277709960938
-16.4036979675293
-11.1583299636841
-11.1583299636841
-8.67870044708252
-4.10092449188232
-5.53147983551025
-10.4907369613647
-12.9703664779663
-8.77407169342041
-3.5287024974823
-5.43610954284668
-5.53147983551025
-3.8148136138916
-8.86944198608398
-12.6842555999756
-10.9675893783569
-11.635181427002
-15.9268465042114
-18.9786968231201
-16.1175880432129
-7.43888664245605
-5.1499981880188
-14.0194396972656
-18.2157344818115
-17.1666603088379
-18.0249938964844
-18.6925868988037
-19.6462898254395
-14.4962921142578
-4.95925760269165
-4.48240613937378
-9.537034034729
-12.9703664779663
-16.7851791381836
-16.9759197235107
-13.256477355957
-9.63240432739258
-5.91296100616455
-3.147221326828
-2.8611102104187
-2.47962880134583
-2.00277709960938
-4.29166507720947
-1.81203651428223
1.23981440067291
-4.00555419921875
-1.52592539787292
8.48795986175537
12.1120328903198
11.635181427002
12.4935140609741
15.35462474823
15.35462474823
11.3490705490112
12.4935140609741
17.9296245574951
22.125919342041
29.9462871551514
39.4833221435547
45.3962821960449
44.9194297790527
36.1453590393066
25.8453617095947
17.2620315551758
11.0629596710205
7.15277528762817
5.34073925018311
4.10092449188232
2.8611102104187
1.62129580974579
-3.5287024974823
-4.38703584671021
-1.14444410800934
-2.09814739227295
-3.05185079574585
-7.0574049949646
-16.1175880432129
-25.7499923706055
-32.5212860107422
-37.8620262145996
-43.2981338500977
-41.2953567504883
-30.8046188354492
-27.8481388092041
-37.5759124755859
-35.2870254516602
-23.2703628540039
-28.5157318115234
-36.8129501342773
-33.761100769043
-36.7175827026367
-43.7749862670898
-39.7694320678711
-32.4259147644043
-27.4666576385498
-17.9296245574951
-7.43888664245605
-0.190740674734116
-0.47685170173645
-4.00555419921875
-5.34073925018311
-6.19907188415527
-3.24259161949158
-7.0574049949646
-18.1203651428223
-14.0194396972656
-1.52592539787292
-4.48240613937378
-10.3953666687012
-4.57777643203735
-5.05462789535522
-14.5916624069214
-12.588885307312
-8.96481227874756
-14.4962921142578
-20.7907333374023
-26.0361022949219
-31.1861019134521
-44.1564674377441
-72.8629379272461
-113.776817321777
-137.905517578125
-123.123107910156
-92.318489074707
-41.8675804138184
43.7749862670898
151.73420715332
294.408233642578
470.080413818359
632.2099609375
737.117370605469
769.829406738281
735.972900390625
653.954406738281
542.561889648438
381.099884033203
141.338836669922
-131.992553710938
-342.379516601563
-461.020233154297
-549.142395019531
-605.601684570313
-590.056274414063
-550.096130371094
-511.375762939453
-445.379486083984
-385.868408203125
-359.355438232422
-340.853607177734
-327.02490234375
-310.811950683594
-277.718414306641
-241.954559326172
-208.479568481445
-169.568466186523
-121.311073303223
-57.9851684570313
18.787956237793
74.4842376708984
82.6860809326172
70.9555358886719
56.936092376709
35.5731353759766
32.1398048400879
56.1731300354004
80.111083984375
100.901817321777
120.73885345459
124.076812744141
115.49348449707
105.574966430664
91.5555267333984
84.1166381835938
80.778678894043
67.7129440307617
68.6666412353516
90.3157119750977
104.049041748047
106.242561340332
100.138854980469
85.7379379272461
83.0675659179688
82.6860809326172
66.5684967041016
55.7916488647461
66.3777542114258
75.5333099365234
66.1870193481445
60.1786842346191
58.1759071350098
49.5925750732422
50.832389831543
53.7888717651367
48.3527641296387
48.3527641296387
55.5055389404297
59.4157218933105
59.8925743103027
65.5194244384766
72.6721954345703
76.296272277832
74.6749725341797
67.5222015380859
62.5629425048828
58.3666496276855
50.5462799072266
44.7286911010742
48.8296127319336
54.4564628601074
49.783317565918
49.783317565918
55.3147964477539
49.3064651489258
46.2546157836914
50.9277610778809
48.5435028076172
44.1564674377441
37.6712837219238
26.7036952972412
22.0305480957031
20.5046234130859
21.9351787567139
23.8425846099854
22.2212886810303
26.226842880249
29.9462871551514
25.6546211242676
21.0768451690674
15.5453653335571
6.96203470230103
5.81759071350098
13.256477355957
18.8833274841309
21.4583263397217
24.9870281219482
25.2731399536133
12.302773475647
-3.33796191215515
-8.77407169342041
-14.7824029922485
-16.1175880432129
-6.58055353164673
-1.62129580974579
2.95648050308228
6.48518323898315
-0.47685170173645
-6.86666440963745
-10.204626083374
-19.074068069458
-24.6055469512939
-19.1694374084473
-15.5453653335571
-16.1175880432129
-13.7333288192749
-14.7824029922485
-18.1203651428223
-19.9324016571045
-24.7962875366211
-36.5268402099609
-53.2166481018066
-59.2249794006348
-55.7916488647461
-48.4481315612793
-36.2407302856445
-34.5240631103516
-39.3879508972168
-42.0583190917969
-47.5897979736328
-56.6499824523926
-69.3342361450195
-76.5823822021484
-75.7240524291992
-72.3860855102539
-69.9064559936523
-74.7703475952148
-75.3425674438477
-67.4268264770508
-68.0944213867188
-74.8657150268555
-82.2092361450195
-82.0184936523438
-74.7703475952148
-73.1490478515625
-73.1490478515625
-75.1518249511719
-70.4786834716797
-58.1759071350098
-59.9879455566406
-62.3722038269043
-55.219425201416
-58.0805358886719
-66.0916442871094
-62.9444236755371
-60.5601654052734
-67.2360916137695
-64.9472045898438
-59.701831817627
-61.6092376708984
-60.0833129882813
-61.5138702392578
-65.7101669311523
-58.1759071350098
-47.7805404663086
-42.1536903381348
-32.8073959350586
-25.8453617095947
-28.9925842285156
-34.1425819396973
-31.5675830841064
-21.4583263397217
-12.6842555999756
-14.3055505752563
-19.2648086547852
-11.1583299636841
1.9074068069458
4.38703584671021
6.00833129882813
10.2999963760376
7.91573810577393
2.67036962509155
-0.572222054004669
-0.762962698936462
3.5287024974823
6.00833129882813
4.67314672470093
0.858333051204681
-2.67036962509155
4.00555419921875
8.86944198608398
4.57777643203735
5.81759071350098
7.82036781311035
11.2537002563477
22.0305480957031
28.7064723968506
29.5648059844971
28.4203605651855
29.4694347381592
33.0935096740723
32.9981384277344
34.4286918640137
35.0009155273438
31.5675830841064
33.8564720153809
36.7175827026367
34.6194343566895
33.0935096740723
37.2898025512695
38.5296173095703
33.3796195983887
37.2898025512695
49.3064651489258
51.5953521728516
48.3527641296387
55.6962776184082
59.5110931396484
50.4509086608887
46.8268356323242
47.8759117126465
43.8703575134277
38.8157272338867
36.6222114562988
35.5731353759766
36.6222114562988
42.0583190917969
44.1564674377441
37.099063873291
34.810173034668
41.1999855041504
41.1046180725098
33.2842483520508
29.3740653991699
30.70924949646
27.1805477142334
19.6462898254395
19.074068069458
21.4583263397217
17.8342533111572
10.5861072540283
8.29721927642822
13.256477355957
15.9268465042114
15.4499950408936
17.8342533111572
15.2592544555664
10.3953666687012
11.2537002563477
10.9675893783569
20.6953639984131
36.8129501342773
38.2435073852539
33.1888771057129
30.70924949646
31.7583236694336
36.5268402099609
32.1398048400879
19.2648086547852
17.8342533111572
22.2212886810303
18.1203651428223
15.5453653335571
12.6842555999756
5.91296100616455
4.67314672470093
3.33796191215515
3.71944332122803
7.53425693511963
3.5287024974823
-3.33796191215515
-6.19907188415527
-3.147221326828
0.762962698936462
0.0953703373670578
5.05462789535522
9.15555286407471
3.24259161949158
-1.71666610240936
-3.8148136138916
-4.00555419921875
-1.04907369613647
7.34351634979248
11.2537002563477
7.72499752044678
10.3953666687012
11.5398111343384
8.29721927642822
6.19907188415527
-2.5749990940094
-10.0138854980469
-5.7222204208374
-1.43055510520935
-0.190740674734116
2.00277709960938
3.71944332122803
3.8148136138916
2.09814739227295
0.190740674734116
0.0953703373670578
-1.04907369613647
1.04907369613647
9.34629344940186
7.24814605712891
4.10092449188232
10.5861072540283
11.7305517196655
8.3925895690918
0.190740674734116
-7.72499752044678
-0.572222054004669
3.24259161949158
-2.67036962509155
-6.38981294631958
-8.3925895690918
-4.10092449188232
-3.62407302856445
-10.9675893783569
-11.7305517196655
-16.4036979675293
-27.657398223877
-27.5620288848877
-26.4175834655762
-28.3249912261963
-18.4064750671387
-12.1120328903198
-14.687032699585
-8.58333015441895
-2.28888821601868
-7.15277528762817
-14.687032699585
-18.3111057281494
-19.9324016571045
-16.6898097991943
-9.537034034729
-2.38425850868225
3.91018390655518
9.537034034729
10.0138854980469
6.38981294631958
7.53425693511963
5.05462789535522
-3.62407302856445
-6.38981294631958
-0.572222054004669
2.95648050308228
-5.34073925018311
-11.3490705490112
-9.44166374206543
-10.6814785003662
-7.43888664245605
-4.1962947845459
-5.81759071350098
-2.00277709960938
-2.8611102104187
-8.3925895690918
-7.53425693511963
-10.3953666687012
-18.5972156524658
-21.5536975860596
-25.0823993682861
-29.5648059844971
-30.6138782501221
-31.7583236694336
-31.7583236694336
-33.9518394470215
-33.0935096740723
-17.2620315551758
2.28888821601868
9.9185152053833
4.38703584671021
-1.23981440067291
8.10647869110107
16.022216796875
10.3953666687012
2.47962880134583
-5.91296100616455
-9.82314491271973
-7.15277528762817
-2.5749990940094
1.9074068069458
6.29444265365601
14.7824029922485
24.7962875366211
39.0064697265625
49.6879463195801
46.9222068786621
44.9194297790527
40.2462844848633
24.1286964416504
12.0166625976563
9.82314491271973
6.38981294631958
0
-7.6296272277832
-20.5046234130859
-28.0388793945313
-26.9898052215576
-25.2731399536133
-21.2675857543945
-19.074068069458
-22.6027698516846
-30.3277683258057
-38.7203598022461
-44.4425773620605
-54.9333152770996
-61.7999801635742
-49.783317565918
-41.2953567504883
-47.017578125
-41.5814666748047
-36.6222114562988
-49.0203552246094
-52.1675758361816
-46.2546157836914
-45.300910949707
-42.4398002624512
-42.2490615844727
-40.0555419921875
-37.3851737976074
-38.5296173095703
-31.0907306671143
-23.2703628540039
-19.8370304107666
-16.1175880432129
-16.022216796875
-16.1175880432129
-17.4527721405029
-20.6953639984131
-18.787956237793
-11.635181427002
-2.28888821601868
4.86388731002808
8.58333015441895
9.44166374206543
7.0574049949646
3.62407302856445
-1.43055510520935
-8.3925895690918
-12.3981437683105
-13.8286991119385
-24.0333251953125
-41.2953567504883
-45.2055397033691
-45.6823921203613
-70.5740509033203
-108.245338439941
-122.93236541748
-114.444404602051
-90.4110794067383
-33.5703582763672
47.4944305419922
153.641616821289
317.869354248047
511.661865234375
682.756286621094
807.4052734375
848.12841796875
799.108093261719
702.211791992188
575.178527832031
394.356353759766
145.535140991211
-123.123107910156
-329.886016845703
-457.30078125
-551.717407226563
-605.124816894531
-605.315551757813
-586.241455078125
-532.16650390625
-459.017456054688
-415.147094726563
-373.279510498047
-332.460998535156
-310.048980712891
-284.394348144531
-258.644348144531
-238.807327270508
-208.670303344727
-163.560134887695
-96.2286758422852
-9.537034034729
50.355541229248
64.9472045898438
62.4675712585449
48.5435028076172
21.0768451690674
3.05185079574585
2.95648050308228
13.6379585266113
34.810173034668
54.2657241821289
68.6666412353516
77.345344543457
67.9990539550781
51.0231323242188
40.913875579834
35.6685066223145
27.5620288848877
26.1314735412598
44.1564674377441
68.6666412353516
84.7842330932617
81.6370086669922
68.9527587890625
71.0509033203125
71.7184982299805
61.6092376708984
58.652759552002
61.7046089172363
67.5222015380859
72.6721954345703
73.9120101928711
72.9583129882813
62.8490524291992
49.4972076416016
45.7777633666992
42.1536903381348
35.0009155273438
37.099063873291
45.0148010253906
49.4972076416016
55.887020111084
60.6555366516113
58.0805358886719
58.5573883056641
63.5166473388672
62.4675712585449
55.219425201416
47.2083168029785
35.6685066223145
26.9898052215576
25.0823993682861
26.4175834655762
29.278694152832
28.8972129821777
33.4749908447266
40.5323944091797
38.7203598022461
35.8592491149902
35.382396697998
31.3768424987793
25.0823993682861
24.7009181976318
26.4175834655762
25.4638805389404
30.0416564941406
36.0499877929688
34.3333206176758
33.2842483520508
33.1888771057129
29.8509159088135
26.8944358825684
23.1749935150146
17.5481433868408
14.4009208679199
15.6407356262207
21.2675857543945
24.6055469512939
20.7907333374023
19.6462898254395
24.5101776123047
20.5999927520752
13.256477355957
15.8314762115479
13.9240694046021
10.204626083374
16.5944385528564
26.0361022949219
35.2870254516602
36.9083213806152
29.3740653991699
17.5481433868408
7.82036781311035
7.43888664245605
5.34073925018311
0
7.34351634979248
19.5509204864502
18.5972156524658
17.8342533111572
19.360179901123
2.1935179233551
-8.77407169342041
-8.67870044708252
-19.7416610717773
-21.6490669250488
-13.6379585266113
-7.82036781311035
-1.81203651428223
-1.71666610240936
-7.34351634979248
-21.1722145080566
-32.4259147644043
-30.6138782501221
-32.9027671813965
-40.0555419921875
-39.864803314209
-35.5731353759766
-38.2435073852539
-47.3990592956543
-53.2166481018066
-58.5573883056641
-66.6638641357422
-77.4407196044922
-88.7897872924805
-84.9749755859375
-69.3342361450195
-64.9472045898438
-70.3833084106445
-76.1055297851563
-82.5907135009766
-85.1657104492188
-84.3073806762695
-82.1138610839844
-74.1027526855469
-61.0370178222656
-52.453685760498
-53.7888717651367
-57.5083160400391
-54.170352935791
-41.0092468261719
-31.6629524230957
-39.6740608215332
-50.355541229248
-53.5027618408203
-55.7916488647461
-56.1731300354004
-46.4453544616699
-33.2842483520508
-30.6138782501221
-28.1342506408691
-14.0194396972656
-13.4472179412842
-23.4611034393311
-15.35462474823
-12.1120328903198
-16.022216796875
-7.34351634979248
-1.43055510520935
0.190740674734116
2.1935179233551
-4.86388731002808
-13.8286991119385
-12.4935140609741
-10.7768487930298
-16.7851791381836
-16.9759197235107
-9.72777462005615
-6.38981294631958
-2.95648050308228
6.29444265365601
11.1583299636841
12.7796258926392
16.9759197235107
14.7824029922485
6.00833129882813
0.572222054004669
0
8.20184898376465
20.6953639984131
16.30832862854
3.91018390655518
5.81759071350098
17.6435127258301
27.1805477142334
30.3277683258057
31.9490642547607
36.431468963623
35.7638778686523
29.1833248138428
29.1833248138428
35.7638778686523
42.7259140014648
46.4453544616699
40.3416519165039
35.4777679443359
41.8675804138184
41.4860992431641
36.2407302856445
40.913875579834
36.6222114562988
24.4148063659668
30.70924949646
39.5786895751953
38.3388748168945
37.1944313049316
34.4286918640137
36.2407302856445
38.5296173095703
34.810173034668
29.4694347381592
21.7444381713867
22.4120292663574
27.8481388092041
23.8425846099854
17.357400894165
10.7768487930298
1.23981440067291
0
6.58055353164673
8.86944198608398
6.77129411697388
7.82036781311035
9.06018257141113
6.48518323898315
9.82314491271973
19.7416610717773
21.4583263397217
16.9759197235107
18.4064750671387
18.2157344818115
13.256477355957
11.9212923049927
6.86666440963745
10.3953666687012
25.8453617095947
25.177770614624
9.06018257141113
-3.33796191215515
1.04907369613647
7.82036781311035
-0.381481349468231
-3.33796191215515
0.858333051204681
0.190740674734116
5.05462789535522
15.7361059188843
16.7851791381836
8.96481227874756
6.96203470230103
8.3925895690918
4.57777643203735
0.47685170173645
-2.5749990940094
-5.91296100616455
-3.91018390655518
1.71666610240936
5.34073925018311
7.0574049949646
8.3925895690918
6.77129411697388
1.9074068069458
1.23981440067291
4.48240613937378
5.7222204208374
6.00833129882813
-0.9537034034729
-8.96481227874756
-0.9537034034729
8.58333015441895
2.00277709960938
-7.34351634979248
-8.77407169342041
-6.96203470230103
-2.67036962509155
2.09814739227295
6.48518323898315
11.9212923049927
12.7796258926392
9.25092315673828
3.33796191215515
-3.147221326828
-6.48518323898315
-4.95925760269165
-0.9537034034729
0.762962698936462
-4.10092449188232
-12.1120328903198
-9.15555286407471
-1.81203651428223
-4.10092449188232
-6.29444265365601
-3.24259161949158
-0.9537034034729
-3.05185079574585
-8.48795986175537
-9.44166374206543
-8.96481227874756
-10.0138854980469
-6.29444265365601
-10.2999963760376
-18.6925868988037
-12.9703664779663
-6.48518323898315
-4.38703584671021
2.5749990940094
5.43610954284668
0
-0.47685170173645
2.1935179233551
-4.00555419921875
-8.77407169342041
0
2.8611102104187
-0.667592406272888
2.47962880134583
-2.00277709960938
-7.6296272277832
-5.1499981880188
-8.58333015441895
-12.302773475647
-13.256477355957
-17.0712909698486
-13.7333288192749
-2.8611102104187
-3.24259161949158
-13.0657367706299
-14.1148099899292
-7.0574049949646
-0.381481349468231
6.38981294631958
6.1037015914917
-6.86666440963745
-16.4036979675293
-11.2537002563477
0.0953703373670578
8.48795986175537
9.25092315673828
7.34351634979248
7.82036781311035
3.05185079574585
-2.09814739227295
3.8148136138916
-4.29166507720947
-20.7907333374023
-16.9759197235107
-12.9703664779663
-12.6842555999756
-12.3981437683105
-15.9268465042114
-14.3055505752563
-15.35462474823
-16.5944385528564
-12.8749961853027
-12.8749961853027
-15.6407356262207
-17.357400894165
-17.1666603088379
-12.9703664779663
-11.1583299636841
-7.6296272277832
5.24536848068237
12.6842555999756
8.29721927642822
6.77129411697388
9.34629344940186
6.86666440963745
5.81759071350098
3.8148136138916
-6.1037015914917
-11.8259220123291
-10.6814785003662
-10.4907369613647
-11.0629596710205
-12.7796258926392
-15.4499950408936
-12.1120328903198
2.09814739227295
25.3685111999512
38.2435073852539
34.0472106933594
26.0361022949219
19.360179901123
17.738883972168
14.0194396972656
1.33518481254578
-7.72499752044678
-13.6379585266113
-18.1203651428223
-17.738883972168
-18.2157344818115
-6.96203470230103
9.34629344940186
7.34351634979248
-0.762962698936462
-11.9212923049927
-29.4694347381592
-39.7694320678711
-41.7722091674805
-40.7231369018555
-44.7286911010742
-53.121280670166
-44.9194297790527
-25.8453617095947
-18.787956237793
-16.5944385528564
-14.4009208679199
-18.5972156524658
-23.4611034393311
-23.3657341003418
-20.8861045837402
-23.2703628540039
-25.177770614624
-21.7444381713867
-15.5453653335571
-14.0194396972656
-23.1749935150146
-22.7935104370117
-13.4472179412842
-14.0194396972656
-12.0166625976563
-4.00555419921875
-4.10092449188232
-7.53425693511963
-2.95648050308228
1.23981440067291
1.43055510520935
11.635181427002
18.5972156524658
11.4444408416748
9.72777462005615
10.6814785003662
3.5287024974823
-4.95925760269165
-14.9731435775757
-26.4175834655762
-30.995361328125
-29.5648059844971
-37.5759124755859
-66.6638641357422
-103.76293182373
-119.212921142578
-100.52033996582
-54.8379440307617
8.29721927642822
89.6481170654297
211.912887573242
379.383209228516
566.785949707031
725.196044921875
798.249755859375
791.096984863281
725.482177734375
606.650756835938
460.638732910156
259.979553222656
-26.5129547119141
-297.841583251953
-469.985046386719
-591.296081542969
-691.911804199219
-737.689575195313
-709.078491210938
-640.221069335938
-565.546142578125
-483.909118652344
-406.182281494141
-332.270263671875
-269.23046875
-236.709182739258
-208.574935913086
-177.579574584961
-154.595321655273
-97.5638580322266
-6.58055353164673
56.1731300354004
85.3564529418945
103.286079406738
102.237007141113
85.7379379272461
68.7620162963867
50.832389831543
32.7120246887207
28.0388793945313
46.0638732910156
71.9092330932617
86.3101577758789
94.9888610839844
102.52311706543
101.569412231445
91.7462692260742
77.2499771118164
61.323127746582
49.783317565918
56.936092376709
74.4842376708984
82.1138610839844
85.3564529418945
88.2175674438477
82.7814559936523
72.9583129882813
63.6120147705078
52.0722045898438
47.1129493713379
46.5407257080078
43.9657249450684
46.4453544616699
46.1592445373535
46.0638732910156
57.8897972106934
65.9009017944336
57.5083160400391
46.2546157836914
43.4888763427734
44.1564674377441
41.0092468261719
36.6222114562988
35.382396697998
36.431468963623
41.3907279968262
46.1592445373535
44.5379486083984
41.962947845459
39.6740608215332
33.2842483520508
27.8481388092041
25.7499923706055
19.6462898254395
16.5944385528564
24.3194370269775
34.2379531860352
41.5814666748047
39.9601707458496
31.8536930084229
36.6222114562988
43.7749862670898
30.6138782501221
22.4120292663574
31.7583236694336
33.2842483520508
30.70924949646
39.864803314209
45.5870208740234
32.6166572570801
19.4555492401123
20.2185115814209
23.1749935150146
20.1231422424316
15.0685138702393
16.4036979675293
19.1694374084473
18.1203651428223
17.0712909698486
17.1666603088379
14.0194396972656
2.76573991775513
-6.1037015914917
-10.2999963760376
-11.9212923049927
-6.29444265365601
0.9537034034729
6.58055353164673
13.5425882339478
17.5481433868408
16.022216796875
9.06018257141113
-1.23981440067291
-5.1499981880188
-4.57777643203735
-9.82314491271973
-16.4036979675293
-15.6407356262207
-10.0138854980469
-4.7685170173645
3.24259161949158
4.48240613937378
-5.53147983551025
-8.86944198608398
-12.588885307312
-26.4175834655762
-29.1833248138428
-22.2212886810303
-19.5509204864502
-15.0685138702393
-13.4472179412842
-22.125919342041
-36.2407302856445
-48.1620216369629
-50.4509086608887
-45.8731346130371
-40.4370231628418
-42.2490615844727
-52.2629470825195
-57.8897972106934
-57.0314636230469
-54.6472053527832
-55.5055389404297
-59.2249794006348
-63.4212760925293
-70.9555358886719
-73.7212753295898
-72.0999755859375
-78.8712692260742
-81.6370086669922
-73.5305328369141
-69.3342361450195
-65.4240493774414
-61.8953514099121
-63.6120147705078
-67.9990539550781
-75.1518249511719
-71.3370132446289
-55.3147964477539
-49.783317565918
-53.2166481018066
-46.6360969543457
-30.8046188354492
-21.9351787567139
-23.8425846099854
-34.2379531860352
-49.4972076416016
-50.6416511535645
-35.2870254516602
-31.0907306671143
-31.6629524230957
-22.9842510223389
-21.1722145080566
-23.0796222686768
-17.8342533111572
-17.1666603088379
-21.6490669250488
-21.1722145080566
-19.8370304107666
-16.022216796875
-7.24814605712891
-3.33796191215515
2.28888821601868
11.3490705490112
10.2999963760376
2.1935179233551
0.572222054004669
8.67870044708252
13.256477355957
12.2074031829834
18.3111057281494
30.2323970794678
35.0962867736816
32.6166572570801
32.4259147644043
32.1398048400879
29.4694347381592
26.6083240509033
22.6981410980225
21.6490669250488
22.4120292663574
16.4990692138672
3.8148136138916
3.43333220481873
12.302773475647
14.0194396972656
17.0712909698486
22.2212886810303
24.0333251953125
27.1805477142334
30.8046188354492
33.3796195983887
39.7694320678711
41.5814666748047
36.2407302856445
35.1916542053223
33.761100769043
32.8073959350586
39.1018409729004
32.5212860107422
22.4120292663574
25.8453617095947
24.4148063659668
19.8370304107666
19.8370304107666
19.5509204864502
19.8370304107666
20.8861045837402
23.7472152709961
25.9407329559326
27.5620288848877
30.4231376647949
21.4583263397217
10.8722190856934
16.7851791381836
21.4583263397217
22.125919342041
29.5648059844971
26.9898052215576
12.6842555999756
12.8749961853027
17.2620315551758
8.67870044708252
6.96203470230103
12.2074031829834
12.2074031829834
15.1638841629028
15.6407356262207
8.96481227874756
10.204626083374
17.5481433868408
16.8805503845215
9.537034034729
11.0629596710205
21.2675857543945
23.4611034393311
25.177770614624
29.7555465698242
24.4148063659668
22.6981410980225
25.5592517852783
17.5481433868408
11.0629596710205
9.25092315673828
2.38425850868225
-1.71666610240936
-5.05462789535522
-8.58333015441895
-7.53425693511963
-1.14444410800934
6.6759238243103
8.3925895690918
7.82036781311035
5.24536848068237
-0.190740674734116
3.8148136138916
8.3925895690918
4.00555419921875
5.24536848068237
6.96203470230103
3.05185079574585
5.53147983551025
8.86944198608398
10.4907369613647
16.4990692138672
16.2129573822021
6.38981294631958
1.23981440067291
-0.667592406272888
-6.38981294631958
-6.29444265365601
-2.67036962509155
-7.72499752044678
-10.8722190856934
-2.5749990940094
3.43333220481873
4.48240613937378
2.67036962509155
-0.667592406272888
4.10092449188232
11.4444408416748
8.77407169342041
4.48240613937378
5.62685012817383
10.4907369613647
19.2648086547852
20.0277709960938
10.8722190856934
3.8148136138916
3.33796191215515
5.43610954284668
2.09814739227295
-1.71666610240936
-6.6759238243103
-13.6379585266113
-13.9240694046021
-12.588885307312
-6.6759238243103
2.1935179233551
3.24259161949158
3.33796191215515
3.8148136138916
-4.00555419921875
-18.787956237793
-24.7009181976318
-21.6490669250488
-21.1722145080566
-17.8342533111572
-11.2537002563477
-9.44166374206543
-5.91296100616455
-2.09814739227295
-7.24814605712891
-9.34629344940186
-10.1092557907104
-20.0277709960938
-25.0823993682861
-23.5564746856689
-23.2703628540039
-23.7472152709961
-29.3740653991699
-27.1805477142334
-15.1638841629028
-9.72777462005615
-12.302773475647
-12.588885307312
-7.6296272277832
-3.62407302856445
7.6296272277832
16.7851791381836
12.9703664779663
12.9703664779663
11.1583299636841
1.52592539787292
-0.47685170173645
4.86388731002808
0.381481349468231
-6.86666440963745
-1.33518481254578
-2.8611102104187
-13.0657367706299
-12.588885307312
-13.7333288192749
-21.0768451690674
-21.1722145080566
-21.7444381713867
-19.074068069458
-5.05462789535522
-0.286111027002335
-6.96203470230103
-13.1611070632935
-14.4962921142578
-9.9185152053833
-5.81759071350098
-4.67314672470093
-9.34629344940186
-11.7305517196655
-7.82036781311035
-12.302773475647
-20.1231422424316
-20.5046234130859
-18.6925868988037
-12.8749961853027
-6.96203470230103
-12.7796258926392
-16.8805503845215
-14.687032699585
-13.6379585266113
-9.63240432739258
0
10.2999963760376
14.3055505752563
11.2537002563477
7.43888664245605
6.77129411697388
6.77129411697388
3.43333220481873
1.23981440067291
0.572222054004669
-2.38425850868225
-1.33518481254578
1.14444410800934
2.1935179233551
16.7851791381836
40.2462844848633
47.2083168029785
42.3444290161133
40.0555419921875
28.9925842285156
11.3490705490112
6.96203470230103
9.537034034729
4.86388731002808
-8.0111083984375
-18.4064750671387
-16.5944385528564
-9.44166374206543
-0.190740674734116
13.0657367706299
18.6925868988037
6.38981294631958
-15.35462474823
-30.6138782501221
-31.6629524230957
-31.4722118377686
-41.3907279968262
-49.5925750732422
-43.8703575134277
-30.3277683258057
-22.4120292663574
-16.4990692138672
-12.8749961853027
-17.0712909698486
-16.4990692138672
-15.9268465042114
-19.1694374084473
-21.7444381713867
-30.5185089111328
-31.7583236694336
-21.839807510376
-16.8805503845215
-15.0685138702393
-13.4472179412842
-11.0629596710205
-2.47962880134583
2.38425850868225
-6.48518323898315
-18.6925868988037
-23.8425846099854
-24.0333251953125
-25.5592517852783
-22.6981410980225
-13.5425882339478
-8.3925895690918
-10.204626083374
-12.4935140609741
-8.58333015441895
-9.34629344940186
-17.5481433868408
-23.4611034393311
-27.657398223877
-35.1916542053223
-49.783317565918
-63.7073860168457
-72.0046081542969
-88.3129348754883
-121.120330810547
-150.208282470703
-144.962921142578
-113.013854980469
-65.137939453125
3.71944332122803
92.6045989990234
223.738815307617
406.182281494141
603.312744140625
768.971069335938
842.215454101563
813.890502929688
731.109008789063
607.699829101563
444.521148681641
215.155487060547
-76.2009048461914
-324.735992431641
-482.573913574219
-591.582214355469
-677.12939453125
-708.315490722656
-660.34423828125
-591.105346679688
-527.97021484375
-443.948944091797
-353.633209228516
-270.279541015625
-210.959197998047
-189.596237182617
-169.854568481445
-143.246246337891
-119.403663635254
-67.903678894043
9.06018257141113
60.8462753295898
87.5499725341797
104.239784240723
94.8934860229492
71.4323883056641
49.1157264709473
32.5212860107422
26.5129547119141
30.995361328125
44.251838684082
59.2249794006348
76.9638671875
91.7462692260742
96.13330078125
88.5990447998047
70.6694183349609
57.2222023010254
50.832389831543
51.5953521728516
56.8407211303711
58.4620170593262
66.1870193481445
79.1573791503906
82.9721984863281
74.9610900878906
61.7046089172363
49.783317565918
37.9573936462402
32.9027671813965
41.6768379211426
48.5435028076172
50.7370223999023
54.170352935791
56.2685012817383
60.5601654052734
62.4675712585449
55.4101676940918
47.8759117126465
44.1564674377441
42.1536903381348
47.5897979736328
56.6499824523926
58.1759071350098
54.5518341064453
50.6416511535645
46.2546157836914
42.7259140014648
38.7203598022461
35.1916542053223
37.1944313049316
38.6249885559082
36.2407302856445
36.1453590393066
38.2435073852539
42.4398002624512
48.8296127319336
49.9740562438965
55.1240577697754
59.4157218933105
43.9657249450684
31.8536930084229
30.995361328125
19.4555492401123
10.6814785003662
19.1694374084473
26.9898052215576
30.8046188354492
36.1453590393066
31.0907306671143
20.6953639984131
16.4990692138672
11.8259220123291
7.0574049949646
3.33796191215515
-1.81203651428223
-1.9074068069458
7.24814605712891
12.588885307312
11.4444408416748
16.30832862854
13.8286991119385
4.86388731002808
2.00277709960938
-5.1499981880188
-6.6759238243103
2.28888821601868
4.00555419921875
-0.667592406272888
-3.91018390655518
-3.91018390655518
-4.10092449188232
-5.1499981880188
-8.3925895690918
-12.7796258926392
-13.6379585266113
-11.9212923049927
-8.20184898376465
-6.77129411697388
-1.04907369613647
10.7768487930298
6.48518323898315
-6.86666440963745
-14.8777732849121
-25.0823993682861
-29.0879535675049
-23.3657341003418
-20.9814739227295
-20.3138828277588
-15.5453653335571
-10.6814785003662
-15.9268465042114
-29.278694152832
-40.1509132385254
-50.1647987365723
-62.6583137512207
-72.3860855102539
-74.8657150268555
-73.0536804199219
-68.8573837280273
-59.7972030639648
-57.7944259643555
-66.6638641357422
-75.0564575195313
-83.1629333496094
-83.6397857666016
-69.9064559936523
-58.9388694763184
-58.0805358886719
-55.5055389404297
-49.5925750732422
-49.2110939025879
-53.8842430114746
-60.6555366516113
-67.9990539550781
-73.3397903442383
-74.7703475952148
-76.3916397094727
-78.9666442871094
-67.4268264770508
-46.6360969543457
-36.2407302856445
-31.8536930084229
-31.1861019134521
-32.1398048400879
-29.5648059844971
-26.1314735412598
-26.226842880249
-33.5703582763672
-31.0907306671143
-16.1175880432129
-12.302773475647
-15.0685138702393
-12.8749961853027
-12.4935140609741
-13.3518476486206
-11.5398111343384
-14.1148099899292
-17.738883972168
-9.15555286407471
-2.1935179233551
-5.62685012817383
-2.8611102104187
-3.71944332122803
-14.5916624069214
-11.4444408416748
5.34073925018311
14.687032699585
10.7768487930298
9.06018257141113
14.7824029922485
15.7361059188843
14.7824029922485
15.4499950408936
17.738883972168
26.9898052215576
29.7555465698242
18.787956237793
14.0194396972656
21.2675857543945
21.4583263397217
13.5425882339478
15.1638841629028
22.8888816833496
25.5592517852783
26.4175834655762
27.5620288848877
20.9814739227295
20.1231422424316
27.0851764678955
23.0796222686768
25.4638805389404
34.6194343566895
32.2351760864258
26.226842880249
26.4175834655762
29.1833248138428
24.891658782959
22.6981410980225
27.2759170532227
29.0879535675049
27.7527694702148
27.5620288848877
31.7583236694336
37.8620262145996
38.4342460632324
32.2351760864258
24.9870281219482
25.9407329559326
34.2379531860352
35.8592491149902
28.9925842285156
23.6518440246582
23.1749935150146
20.3138828277588
14.687032699585
22.125919342041
30.2323970794678
24.7962875366211
27.4666576385498
37.099063873291
36.3360977172852
28.8972129821777
28.9925842285156
38.8157272338867
44.6333198547363
47.5897979736328
48.3527641296387
42.4398002624512
37.4805450439453
35.1916542053223
30.4231376647949
25.3685111999512
19.7416610717773
13.7333288192749
17.6435127258301
26.0361022949219
27.5620288848877
23.3657341003418
18.6925868988037
17.8342533111572
11.8259220123291
1.43055510520935
0.286111027002335
4.95925760269165
6.1037015914917
-2.38425850868225
-10.5861072540283
-3.8148136138916
2.28888821601868
-2.8611102104187
-9.15555286407471
-18.4064750671387
-26.0361022949219
-18.4064750671387
-5.62685012817383
4.1962947845459
11.4444408416748
9.72777462005615
7.91573810577393
13.1611070632935
17.1666603088379
12.1120328903198
5.62685012817383
2.8611102104187
-1.14444410800934
3.5287024974823
12.8749961853027
12.8749961853027
9.63240432739258
8.29721927642822
2.5749990940094
-7.0574049949646
-10.0138854980469
-8.67870044708252
-17.2620315551758
-26.6083240509033
-19.9324016571045
-6.58055353164673
-3.8148136138916
-8.0111083984375
-12.302773475647
-18.787956237793
-18.3111057281494
-15.0685138702393
-22.2212886810303
-22.4120292663574
-12.2074031829834
-10.204626083374
-10.3953666687012
-8.96481227874756
-9.44166374206543
-11.635181427002
-15.9268465042114
-16.6898097991943
-10.7768487930298
-8.86944198608398
-11.7305517196655
-9.34629344940186
-7.53425693511963
-10.8722190856934
-5.81759071350098
3.5287024974823
-1.9074068069458
-14.4009208679199
-15.8314762115479
-11.9212923049927
-14.0194396972656
-10.9675893783569
-0.9537034034729
2.09814739227295
1.04907369613647
3.24259161949158
7.53425693511963
12.3981437683105
17.1666603088379
13.256477355957
-1.62129580974579
-6.86666440963745
-4.7685170173645
-5.81759071350098
-4.29166507720947
-3.8148136138916
-3.91018390655518
0.572222054004669
5.7222204208374
6.38981294631958
5.7222204208374
5.34073925018311
1.23981440067291
-3.147221326828
-2.8611102104187
-4.48240613937378
-8.10647869110107
-9.25092315673828
-13.1611070632935
-13.9240694046021
-9.537034034729
-14.0194396972656
-18.3111057281494
-13.4472179412842
-15.4499950408936
-21.2675857543945
-18.0249938964844
-17.4527721405029
-26.8944358825684
-31.4722118377686
-27.0851764678955
-25.9407329559326
-27.8481388092041
-30.2323970794678
-33.5703582763672
-28.8018417358398
-22.125919342041
-18.787956237793
-16.30832862854
-17.2620315551758
-13.9240694046021
-6.29444265365601
-5.1499981880188
-9.34629344940186
-7.24814605712891
-5.81759071350098
-17.4527721405029
-28.4203605651855
-33.3796195983887
-29.8509159088135
-20.8861045837402
-23.7472152709961
-17.4527721405029
-7.34351634979248
-16.4990692138672
-18.787956237793
-10.5861072540283
-2.09814739227295
9.25092315673828
16.4990692138672
25.8453617095947
28.3249912261963
