Value(μV)
-204.828427264229
-3.46002983864437
69.019785561243
35.7420984047493
-17.1363182288052
-24.714204137479
8.46049599221488
35.4673240080321
28.1884514669495
3.72413322134235
-4.34157180804918
12.5573200200043
32.6331810316704
34.4408713005595
22.0166269782001
15.5901963467943
23.9166773619491
34.30461106457
30.6113048626637
14.0871130582059
0.968921634494436
1.88570761172431
10.1015868066489
12.1674154041131
5.50773698462205
0.274554171799625
4.59236469360323
13.446320554605
15.3695587737299
7.4114607799826
-1.2023126232163
-0.848735854388011
6.95071251825984
12.6468696451518
11.3948101494398
8.51529891877088
11.219385809798
18.2234635492901
21.0392876960131
14.9719552560538
5.30805995444943
0.841806874627114
3.37972315597129
6.59338156831726
5.01934820032944
1.04852313133083
1.04562208500839
6.2854161842323
10.9101714614239
9.50330585095177
4.21041696130196
2.1492399249484
6.62744081611216
13.5044238622606
16.9856269293141
16.8847148657633
17.9472535554133
22.6206672876306
27.1966440935718
26.5002816444962
20.87657130482
16.24080499708
17.1014997546111
21.5330866706568
24.3034886680641
23.6908444085252
23.0247394520361
25.2813463469199
28.2661226082953
26.9573196705322
19.9804767330594
11.7094203287812
7.22465333011779
6.6072156903072
5.71638282271244
2.05281634371189
-2.11608002496672
-3.24554212931366
-1.65858604462698
-1.34855295364379
-4.67924866686869
-9.01849324687391
-9.77979133766794
-5.95808708038636
-1.10070703990259
1.27320188853799
1.64793279841254
2.83724869494957
5.27331022292282
5.83011249750454
1.88010193283784
-4.81294806180787
-9.64394710297013
-10.31860097544
-9.08231470634516
-9.37009452852029
-11.4529037384464
-12.7343751351566
-12.0007178725541
-11.6551776807103
-14.7330627795907
-20.5546538565573
-24.8404214290236
-24.3723444174409
-20.3906462756154
-16.5821975758402
-14.5003304526599
-12.3946403123672
-8.71584331322543
-5.31484977135882
-5.80896027255925
-11.0718986964286
-17.728555028437
-21.7369945581641
-22.6133084727391
-23.1122406140121
-25.0963083997285
-27.117877483936
-26.7334905235631
-24.2241496823715
-22.5957736692399
-23.7497001777016
-25.8401348554445
-25.3278693978529
-21.1438090564764
-15.7102723107688
-11.7354565549007
-9.12193236730988
-5.92763862267314
-1.79392958361302
0.984625142636093
0.296980562784219
-2.82301297432807
-5.14739281049038
-5.01037084138088
-4.0662242068682
-4.87984843680973
-7.62079047112808
-10.1698467444231
-11.2732279160515
-12.2777070975157
-14.9413325532684
-18.2191461347824
-18.5183294745644
-13.4710470432184
-4.60062690156064
4.43755202286764
11.7142925186666
18.0583653519422
24.1947401100313
28.1477985442464
26.7396606998358
19.5119331336855
9.96441921994349
2.24355156524287
-2.79870592888899
-7.43747114625269
-13.303362916844
-19.0229918902302
-22.2481095226806
-23.189229322023
-24.7779407239251
-29.0502752837628
-34.3935055624864
-37.2940554019405
-36.4524892752814
-34.108044513405
-33.0528840270697
-33.3367146014919
-32.8812724965596
-30.9473222554486
-29.6214180983783
-31.183163936219
-34.7909834950051
-36.9817678632567
-35.5587368742003
-31.9833210780343
-29.2794794605413
-28.2661991902452
-27.0433501290003
-24.2764216764651
-21.7148782731374
-22.3280651428821
-26.3020403795418
-30.2052025819737
-30.7123522764259
-28.3318550190721
-26.3940894865994
-26.5624589025185
-26.6425749958134
-23.5621185422617
-17.6860945969828
-12.778711184789
-11.4612161662588
-11.9234451956984
-10.2519521005908
-5.64120051671066
-1.95333702540633
-3.52739788465633
-10.29130340427
-18.0656616321615
-23.4322696394996
-26.9796613952482
-31.1598435718886
-36.1282282228119
-39.4506109496375
-40.143785899812
-41.3069050455291
-46.9952919117554
-56.5416657814282
-63.4167687525062
-60.3561622018281
-44.2691494666015
-14.2296802961395
35.082866948181
114.711544170623
232.194391072784
379.036451794875
528.301361610845
647.059835596546
713.356399801033
722.487102135033
678.614328389065
583.075430892946
433.40506654017
234.284601567162
7.59301172609951
-211.173337906455
-388.951630687804
-509.918264376657
-577.126480172553
-602.351154754248
-595.766662903394
-564.333687678296
-516.666516577187
-465.48108262538
-422.963263761539
-393.536704328723
-371.910599163829
-348.662336049926
-317.810941442452
-279.435140971926
-236.27257840036
-189.430898152661
-138.274230815561
-84.0238722320001
-32.1870612212232
9.67343547489114
37.0619151817349
51.6104840079505
59.2404039266804
65.4213132103251
71.9534230290816
77.6055215005044
81.0111672178319
82.5650162041638
83.8466805363036
85.8723149898873
88.2793212483405
90.043872172802
90.6105551889558
90.2128472376299
89.3679466281841
88.3957661263031
87.4771000194878
86.9401752551927
87.2535444854454
88.7102733227002
91.2055363938818
94.317858726137
97.4902730710323
100.09114972301
101.468700487465
101.215158367905
99.5105504159878
97.1254773230769
94.9345547355581
93.361433120192
92.294720602025
91.4676942563827
90.7557116349678
90.0196982346047
88.7947065046902
86.3936586458891
82.4713472128067
77.4352684782992
72.1802706599552
67.39644715041
63.1903633657756
59.3483486482875
55.7931657763292
52.6369015319622
49.8652029786312
47.2218313901262
44.5691702236607
42.282471256778
41.0900898704243
41.4396856651681
43.0856529801921
45.3285260505161
47.5274067416055
49.225221856986
49.847907846597
48.607980119658
45.0086455966542
39.4684334497632
33.2519100312892
27.6336825778631
23.1490476897374
19.6898193962867
17.1643802762961
15.7763028486748
15.554332478519
15.84212342347
15.6002833714685
14.3426595999821
12.6328361402665
11.5013796811514
11.4191595852296
11.9838487757496
12.5800667215608
13.0892721627562
13.7452048942796
14.4001938494927
14.264007900858
12.5721013200173
9.41890936642369
5.73084223398319
2.39115772979781
-0.455067999803255
-3.16309915287141
-5.84004211112921
-8.07545095765737
-9.43076676391731
-9.96257961384616
-10.0609703768226
-9.83806812872664
-8.91281225913376
-6.91406922790357
-4.08518648156392
-1.25394470550725
0.749275216957138
1.49336496075908
0.784803587197324
-1.62961694083056
-5.92067273188913
-11.7196501936392
-18.0231322932171
-23.7446483418453
-28.3627605899043
-31.9661669435374
-34.7567403046145
-36.7344490819998
-37.9647446328969
-38.9591925717598
-40.4802918523823
-42.8492579028322
-45.579915338901
-47.8505930805531
-49.3058297970752
-50.2641817656584
-51.1573021088106
-51.9831725892237
-52.4832291510545
-52.7526674673937
-53.3881604716154
-54.8763683975189
-56.9532726009543
-58.7648175195241
-59.6788085520209
-59.7931245842016
-59.5886006519725
-59.2525324474658
-58.5567545173007
-57.379639195074
-56.0883431296763
-55.1975504031886
-54.7114621080901
-54.0125756178169
-52.4757624795137
-50.0628062523236
-47.2004462098374
-44.183112802923
-40.9224065606009
-37.338388782878
-33.785629788395
-30.8523712215542
-28.737810630987
-27.0275853148709
-25.2041872382033
-23.2699175993275
-21.6997577797221
-20.8079045063538
-20.3677102209429
-19.9689761426595
-19.5983775913337
-19.618567185145
-20.1274828399086
-20.5440390954364
-20.0301291754967
-18.2984128289964
-15.8422371662075
-13.3354583340642
-10.9755393601437
-8.56536537292709
-6.1364277568195
-4.21094305504273
-3.29624599775278
-3.24132706389742
-3.30337127590122
-2.88759812342917
-2.08393100177285
-1.40151066458917
-1.11181382387715
-1.04359923201984
-1.0093523286912
-1.19757429358049
-1.94803198114434
-3.19057870623172
-4.30287588423194
-4.60522160335493
-3.89146820939872
-2.37786019492608
-0.232975766241053
2.6272990617338
6.21713654615323
10.1333565238096
13.7431464406929
16.7335472424669
19.3237725438789
21.8523413650111
24.2667096542868
26.1736174049363
27.366796659564
28.1144117322846
28.8094445674593
29.4431694581604
29.6148425345993
29.0913665558212
28.1946639465121
27.4982065914239
27.2020326760646
26.9695771730736
26.4104324270909
25.56737299731
24.7890192836377
24.1949453577337
23.4725921962245
22.290512768326
20.7841825824796
19.4675766811491
18.6761482963544
18.2551710672435
17.8728848729675
17.5142724328277
17.4914429741867
17.970686818373
18.6697616684319
19.1503414673455
19.3292454680402
19.530727983842
20.0059836488964
20.55376954149
20.7459205602397
20.4635592011183
20.0408556469182
19.8348120086756
19.7994340672204
19.6324048245008
19.2944936529365
19.1947525882956
19.7647532100204
20.9505663215143
22.2704217740285
23.3580177569779
24.2891716878057
25.2867539761122
26.2222592893224
26.6008713006305
26.080588766112
24.8702596815468
23.4980391900052
22.2461495367698
20.9626896829067
19.4572682140089
17.9313620506078
16.8653594205637
16.50150597238
16.5829509242861
16.6703656718152
16.6212322902635
16.6386977102054
16.8788011908062
17.1650621523463
17.1811647343985
16.8657587339432
16.4796731274075
16.263529421535
16.1347059931508
15.7931151086251
15.0557062328749
13.9678246342951
12.5849858175842
10.7822385546838
8.39579174059408
5.52162705246635
2.55862682321833
-0.0831238640274261
-2.24223632613464
-3.92009339842354
-5.01473544840363
-5.28874998034866
-4.65562297464733
-3.40484274535768
-2.02841276312487
-0.825793121790539
0.230524185599753
1.21248559791356
1.92395951839023
1.98993241258291
1.25457639669953
-0.0181355712097719
-1.40527125714404
-2.72161954208871
-4.05474845590786
-5.41289703503769
-6.46737216576437
-6.75844936876585
-6.14380993309448
-4.95310067786878
-3.66682153084202
-2.50759433645124
-1.40628954570559
-0.316030804585157
0.573906932034287
1.01057327648146
1.01176200337068
0.927448119564048
1.1246831973356
1.63514445509094
2.12989187114929
2.2056120940953
1.65823722341982
0.51036840638514
-1.12744373915731
-3.13431904737098
-5.30802955040404
-7.26139190529021
-8.43650926142492
-8.26490706950068
-6.38370386014913
-2.7909459497013
2.1410642078337
7.80837090468256
13.5932086761241
19.0095189553696
23.6850506068064
27.2563355014257
29.354553885898
29.7499543764028
28.5061694334098
25.9439722027284
22.4188087541818
18.1399761613283
13.2158619655279
7.8404962564849
2.37366403971347
-2.79114034079718
-7.42000816674987
-11.4942493974424
-15.1215949344097
-18.4496888487276
-21.6538048654026
-24.9182533395018
-28.3465501401291
-31.8860117159454
-35.3793760491386
-38.684598927787
-41.6902592030411
-44.2098616818215
-45.9666408063023
-46.8091631853649
-46.948327541116
-46.8599712302425
-46.853704580738
-46.7771338780844
-46.2502142172929
-45.1940484851623
-44.0046232530174
-43.1243941551042
-42.5444882982044
-41.9144756384492
-41.1774796251461
-40.9101490024098
-41.8134517523311
-43.8065258024876
-45.6871573643904
-45.7158291488669
-42.5481657698931
-35.8097291597472
-26.2329946717182
-15.6155470577817
-6.48702717785593
-1.16603821501494
-0.608888712114576
-4.23745716281101
-11.2271312872988
-21.8105997132775
-36.5323502465801
-53.7094951275174
-68.3833106327454
-75.5217546973493
-75.4176805037238
-75.2271512784771
-83.1425422777784
-99.5317741523827
-113.989978114367
-112.17995096581
-85.8891019180991
-35.6726059743803
36.3751213378656
134.097605530488
263.733646016003
420.432186362485
579.159519407598
702.527386497446
761.236085500104
748.750445335157
676.82283262691
558.246264208925
396.401828623847
192.8868047865
-36.4143587865498
-256.825954309249
-430.071498656857
-536.139042274282
-581.495284716558
-587.360042623973
-571.291445357809
-539.572533061626
-493.978684355867
-441.203671564537
-392.878464769392
-356.907995996748
-330.894507580501
-305.033723211234
-270.767815606905
-226.125364338143
-174.030624951907
-118.017784493797
-61.027459198852
-7.32049810977125
36.8241780286072
65.8484618428231
78.3840524882623
77.7227936548592
69.31495791091
58.4569257508431
49.8940742754268
47.6648172248189
53.2808384634161
63.6664345428802
72.2356749438514
73.6385274656091
68.1158167487998
60.9832925972753
57.622576754548
59.047653014649
62.2076980580017
63.8769476122073
63.5128862118985
62.4939817142578
61.6448090258438
60.4038856922734
58.2092560479071
55.730579073789
54.1647789727267
53.7035590412682
53.404991513793
52.676711583452
52.3148211661221
53.6248714254266
56.730485368755
60.2573806838504
62.760850023714
64.0222566739408
64.6352635399395
64.6485715986952
63.2461187841113
59.9459144046914
55.6624990677951
52.0949573879012
50.1080603974147
49.1139488576176
48.1582043074508
47.2138168097365
47.0012564809058
47.6876598893425
48.3345647119298
47.9443379958505
46.7733376806618
46.1513167148341
46.9571572708293
48.6412387830741
49.9750985361479
50.4938801096021
50.773479037299
51.2867112717669
51.462008241284
50.2586018646834
47.5242201641242
44.3380169299154
41.8505835887244
40.0729102816955
38.1016155567964
35.3966588530621
32.4260787532158
29.9215358784391
27.8498046556652
25.5248785617321
22.6939289754007
20.0936882428573
18.6715895029946
18.4441564579845
18.4498866308712
17.8207487292114
16.5681071113096
15.1350826143321
13.4536074601017
10.8837200204862
7.16259383290564
3.05448415317415
-0.277522838113047
-2.47763954726865
-4.28426197989145
-6.55936485594489
-9.31929111143433
-11.9652521019423
-14.294012590607
-16.8474525241524
-20.0809893799229
-23.4583317426202
-25.7423613365807
-26.2196294048808
-25.3779420810265
-24.2438221645609
-23.2681764281814
-22.1359796481966
-20.5859516941783
-19.0074135256962
-17.9643519466742
-17.3160989238756
-16.1971205029238
-13.9919042549462
-11.109900662651
-8.60790516917348
-7.1912121028146
-6.87107004652984
-7.59381145206647
-9.8123155213654
-14.0712850733546
-20.0909528126752
-26.6355339035478
-32.5122784029916
-37.5688462385592
-42.5042834620273
-47.789734570401
-53.0896116074267
-57.8569284563042
-62.2014901297209
-66.7765323793124
-71.7619375617901
-76.2761994358226
-79.0590692613889
-79.6580015321055
-78.7149021668419
-77.097140282162
-75.0370893368174
-72.3108432023919
-69.043533798948
-65.9193061634199
-63.4455672053268
-61.2626644676853
-58.4835900529482
-54.7005790941088
-50.4118719239003
-46.3811994471445
-42.8253957351693
-39.4882081122013
-36.4032644890937
-34.1847806816302
-33.327954076695
-33.3979375802041
-33.2405335790374
-32.0652583259547
-30.1012005922639
-28.0437173945499
-26.046675307635
-23.5673603721657
-20.2175095998707
-16.4345080917497
-13.0277200538167
-10.1600663518379
-7.10854972332007
-3.16680344896369
1.41964853794926
5.64253137900997
8.77277145840777
10.9415291527682
12.6168967017659
13.7890586783352
13.9976027001749
13.1402786632348
11.9177148647989
11.2393654989621
11.2999335246732
11.4845805610429
11.188371545101
10.4763570428824
9.79146521829847
9.22609887202466
8.4361233508606
7.34515253956534
6.63880365363733
7.26018788073634
9.43796009132245
12.4468263784767
15.400001417257
18.0706304927287
20.7487308582432
23.4432344997191
25.6004864429299
26.7832170053797
27.4087585017404
28.4891590807278
30.5876303180927
33.2433551149876
35.5475205778568
37.1113966337253
38.2286100459264
39.1462549626241
39.5323989421798
38.9143431491809
37.5031325531866
36.2435099552145
35.9160034480983
36.3673558440897
36.8027535099972
36.7241912252819
36.3170683938609
35.8800578857916
35.180569162198
33.6824864685427
31.3664103242148
29.0053633781367
27.4359730068711
26.6890847721424
26.0548988082637
24.967010055318
23.564382157156
22.2714274036567
21.0622863506787
19.4722270211672
17.3671604250758
15.4045461670627
14.4768815469637
14.7660581482261
15.5793131216008
16.1540721280743
16.3981308298137
16.6734886019699
17.0273698088994
16.9903468570699
16.253301246497
15.2984058423197
15.0642247271943
15.9827430702099
17.5697547739015
19.0536758443044
20.207004740352
21.3382229210008
22.5604277791434
23.4145001657483
23.4070789762608
22.7372360072626
22.1771222322325
22.1776160395915
22.3206413747423
21.8199757781207
20.4218471416469
18.5629541877155
16.6579721736221
14.5496456993866
11.9035975414109
9.00311219065151
6.79091819821597
5.96630809262877
6.22127471029276
6.57948745615967
6.4108555981916
5.85339481859691
5.19380242622918
4.15079216221004
2.11505907025579
-0.926835018853954
-4.0485958410702
-6.18940027444495
-7.17980560089241
-7.73421040271033
-8.45567145291101
-9.13818867595214
-9.21453267234286
-8.67069459408957
-8.14798100049583
-8.06503393882512
-7.93230631633446
-6.81623932424944
-4.41564516795356
-1.40811782358569
1.33428047613701
3.62060457614752
5.81725423751677
8.00231840185411
9.61934441202502
10.1252218564194
9.73555614876723
9.20717251293151
8.89100694347751
8.29419363194755
6.73574698003762
4.22752692154583
1.41563826540476
-1.30777354886886
-4.27651686887208
-7.9167427061142
-11.8497032897085
-15.008981079209
-16.7427081646648
-17.5198008288029
-18.2924662072237
-19.2830906479126
-19.7272653419873
-18.8814843747557
-16.9657478646292
-14.8082940868332
-12.6851231255727
-9.94031829538254
-5.97390989198882
-1.37159923906756
2.30353575217188
3.87334722145928
3.43558340763978
1.79591630441374
-0.676316463246302
-4.2185130957418
-8.69663131120306
-12.8867835935761
-15.128849170587
-14.6821550601623
-12.1809071683111
-8.71248729090928
-4.74488370156644
-0.211329754667425
4.52646108501969
8.25813383488646
9.70357696989186
8.54190033652084
5.42459728471986
1.0467129537611
-4.46581198581025
-11.103055214828
-18.157861205014
-24.2044844909232
-27.9288238587595
-28.773225896319
-26.7155821640761
-21.7358152122792
-13.8864639603932
-3.90100377754834
6.62615087864787
15.9572319101575
23.0679505012937
27.6633296800017
29.518335199954
28.2405205260554
23.9145827153846
17.7087720013334
11.3615674539793
5.8951290605963
1.04720544070361
-3.87232298256804
-8.80225918800279
-12.9676505597106
-16.0638232026093
-18.9391131379171
-22.733360330097
-27.5039872555405
-32.1606071264776
-35.8828291445729
-39.2160603980166
-43.385400805325
-48.6775718067888
-53.9914319399192
-58.1384947172524
-61.1485962392908
-63.8186671641688
-66.1257265986219
-66.7393673585043
-64.4692612278018
-59.8477132774309
-54.7271144973722
-50.3237011796381
-46.223331196559
-41.6216418553722
-37.0504787800179
-34.1052271510198
-33.3690682993027
-33.3184048723912
-31.8850676286086
-28.8091416321288
-25.6625231879407
-23.3800224373096
-20.5700251272998
-15.0946057663807
-7.11317745469205
0.448279041353199
4.96729960016607
7.01595576166047
9.2544977836482
12.5276848440776
14.2072597990923
11.2654083503869
4.48729922635748
-1.61728206089001
-3.55321905924992
-2.74337491715396
-3.9952739031905
-10.5988746024175
-22.1097787856266
-36.9979559643914
-55.6510635568775
-78.6810941602257
-102.138243461805
-116.317689498499
-111.006303798036
-81.5349150320492
-28.1258343734628
50.6107581059103
160.471331271546
304.03566448709
468.669189938579
623.973370664085
734.631061328156
778.479910206962
753.439129038184
668.415299165894
530.124734110215
341.061978031243
110.052509290411
-138.205407490241
-367.548610450109
-546.506785945804
-661.653039968748
-717.174819300504
-724.002848774451
-690.691696561784
-623.385314387426
-531.17396694534
-428.616183413973
-332.243860565074
-254.63227792218
-200.597029040536
-166.561015694744
-142.135449025495
-114.088951497228
-73.0103214682065
-19.675525248616
34.4908280425953
75.0495003626062
94.7975989840664
97.6808882342743
93.1563681617255
87.2833907813193
79.6468181371239
68.2089126327158
55.3794543767056
47.878967032322
50.6335738189929
61.7571824403582
74.0692643359596
81.1670373904711
81.6837879487287
78.3680988227837
74.4739425657711
71.7164624360177
70.7661585831806
72.0156905325243
75.0734266445652
78.2008282222667
79.3796479878592
78.2542136602262
76.5093934188862
75.9375614665555
76.4018702525515
76.1468082057543
74.0115298375986
70.7870589361942
68.1697652703839
66.8346339540712
66.0903243986821
65.3165436842055
65.0426541668586
66.1667301583473
68.4370876423954
70.3427047352671
70.6517081350895
69.6148251816375
68.2967532611547
66.9816687746618
64.7846336376441
60.9369525012941
55.9659662940754
51.1634192227113
47.0635031716701
42.9915573278582
38.3043892070619
33.6582337643831
30.5680498283769
29.7636378470191
30.4291823194349
31.247557181488
31.8203106879472
32.6115496382672
33.6000025058775
33.5858076747042
31.2364486588329
26.6163014304338
21.2362544736739
16.5325273064684
12.6774015265161
9.12970798792925
6.02687851793216
4.45066083720731
5.15421842305977
7.43719368284272
9.71369762062627
11.1207178188699
12.152795808099
13.5673641144697
15.0308444062132
15.270167123816
13.5081226328959
10.3103866845457
6.78586956486219
3.24383025998869
-0.920367396089318
-5.99719247163831
-11.0517263261408
-14.5676049896903
-15.8673934078721
-15.5659131685325
-14.6039449392774
-13.202250278591
-11.04079332645
-8.25025650837032
-5.73498691965748
-4.30989715323869
-3.77630286572238
-3.17222322185489
-1.89411894435658
-0.274944477031008
1.02452726458054
1.87869188447736
2.62196148822903
3.20374929481895
2.84244136702265
0.78355973421326
-2.76173579258278
-6.73773516939355
-10.3161030970523
-13.5844316042804
-17.0465185666017
-20.7026286630428
-23.9943946687482
-26.6802264747354
-29.4026551665278
-33.0851388837292
-37.8651980498952
-42.9346858504149
-47.5085259251098
-51.6859407878724
-56.128669830701
-61.0441819286151
-65.8553365876379
-69.983413697105
-73.6511492786526
-77.5632299483546
-81.8234845685939
-85.5090050577943
-87.5169938269121
-87.6672516124072
-86.718638177587
-85.3613862260013
-83.5338853855711
-80.9100879251951
-77.807221139899
-75.1973647894876
-73.7117741744003
-72.8967855133083
-71.6988296181932
-69.5938262866626
-66.9822302029881
-64.4620306558056
-62.0338397647349
-59.2926943653653
-56.2690950372119
-53.6846832628901
-52.1811009255725
-51.4887624864199
-50.6340288087062
-48.9550775335526
-46.666160042451
-44.3293375286821
-42.021572887517
-39.3275142823047
-36.1188898503795
-32.990420489687
-30.6757312359798
-29.1522784238273
-27.6016131260057
-25.3018421513565
-22.3354083360753
-19.2697328112291
-16.3233570578121
-13.1554869939732
-9.50588219669846
-5.72520557503405
-2.38754159875696
0.541665846992307
3.84401829345859
8.2302257818203
13.5623520935246
19.0642141509036
24.1672500998719
28.8310320751967
32.9533154545965
35.794988208189
36.391914183509
34.5937258992394
31.4304563755279
28.2690890353032
25.7410670889433
23.7045735143169
22.1501230078491
21.7311195269957
23.1297684135668
26.071791292376
29.3540896164491
31.9782227889776
34.0275522533704
36.2085999975848
38.6671303721645
40.604461092662
41.1685384824934
40.4441776310063
39.263801148003
38.1245992176645
36.6705363057212
34.4396860285257
31.8871828225223
30.2934429410242
30.5880139849849
32.5115864112971
35.0982205918843
37.7806070834635
40.6951739915794
43.9027625996825
46.7061990050317
48.1019728943718
47.8612231841672
46.8496355469881
46.1396751698046
45.9986888462606
45.9526230488958
45.7047042379589
45.6188432588578
46.1438857049303
47.0263036090654
47.4571182669457
47.0346651597545
46.2989906378447
46.1181304102018
46.6923163815468
47.4234262134021
47.7466569518088
47.7757293685539
47.9188289440759
48.0488851313731
47.435378327301
45.6214940095856
43.1240766462707
41.0005483016486
39.7720118203696
39.018142162292
38.0800331492757
36.8844753619087
35.8070899019192
34.825120494441
33.1849251735241
30.1264298747894
25.7795462040263
21.0778952592062
16.7860241584475
12.8566516908817
8.85844754440884
4.79996323546111
1.20716292274
-1.61503807891466
-4.06611454189948
-6.7469582608659
-9.59904094575424
-11.8446011156434
-12.846671823415
-12.7799736415919
-12.2492325746621
-11.4030639336024
-9.77553001720172
-7.09915209660078
-3.97866438762635
-1.43654088504359
0.16474753087909
1.42442605143199
2.97554771946474
4.47628574096217
4.82392035075595
3.35141069867499
0.506453303410201
-2.81526863504142
-6.36606650367583
-10.6082996838033
-15.6526629195657
-20.4909926523059
-23.6119476905456
-24.3335089263108
-23.2711252362078
-21.453328624791
-19.2666046166537
-16.5134328994304
-13.3311202709527
-10.5942784809832
-9.16563141407045
-8.9422638319986
-8.95775143376705
-8.44474491439771
-7.54287966975016
-6.846993016698
-6.51575697500494
-6.16663132876718
-5.63560605601991
-5.46375234440547
-6.3391793496734
-8.17209361215602
-10.0407922021468
-11.135351334354
-11.5154448854135
-11.748170339107
-11.9789151930934
-11.7245003582946
-10.6701427789884
-9.35163713313609
-8.7126657916651
-9.03429301206893
-9.62908428078208
-9.74020696957053
-9.50904198065743
-9.76603438248507
-10.9338624905395
-12.4953791641312
-13.7200024001374
-14.651939981401
-15.9923055490223
-17.9792716849608
-19.7519940313113
-20.1181735819219
-18.829971260472
-16.7829345945292
-14.9178230887309
-13.258721048693
-11.2987214428336
-9.13705350615859
-7.76034279305832
-7.99094987614336
-9.42153423496646
-10.7456368500936
-11.1315928858693
-10.9575230513773
-11.0584953063999
-11.5411495157266
-11.7174623575279
-11.1799089737508
-10.5191409629767
-10.668395734079
-11.6877619371025
-12.5573737323788
-12.2495199536601
-10.7211944684628
-8.63739559684694
-6.32852787410751
-3.43776147564682
0.299191501643957
4.26510681657033
7.28961348725376
8.69046759532277
8.65986980769507
7.54211719031765
5.08011737012894
0.745532872965846
-5.25833310239175
-11.7233502165162
-17.3469826821657
-21.6483273544941
-24.6615239538568
-25.8683499338489
-23.9872426700555
-18.1815755715507
-9.27805233634333
0.637961261911215
9.90111825842713
18.2043575256606
25.6951551794665
31.5426565090063
34.0509072472002
32.3936880880075
27.8090834056512
22.5890737241336
17.9247484572644
13.1559863434784
7.24857857919231
0.531897455049016
-5.54512961844809
-10.2708676832406
-14.6464784751843
-20.1170748447161
-26.6302750870567
-32.5118037629656
-36.3340162182006
-38.4065840569448
-40.0515257790321
-41.7262994687982
-42.5171550811175
-41.6359354312299
-39.8379725622431
-38.7611489209124
-38.9797381162568
-39.3477762210387
-38.5489649804544
-36.8282130371549
-35.5949048580844
-35.421779263357
-35.1714644174597
-33.5368075320862
-30.9963644767335
-29.4632406347127
-29.8802748059283
-30.8547406102216
-30.2547197710875
-27.8264851873739
-25.3775659114177
-24.1064979823496
-22.4862651538837
-17.6615950560412
-8.89760473020722
1.20051883312503
9.38714129940842
15.1547856056869
20.5587697762304
26.6681528203122
31.1850416826025
30.4778979646275
23.7755437591275
14.4342060705653
6.65799940150084
1.53643818206101
-3.09435161469862
-9.37399498950082
-17.2575177933233
-26.0831108619206
-37.1372801872832
-52.8762339650917
-72.9012918723454
-91.5254215333636
-100.317477473305
-92.7993137153453
-65.493215636446
-14.1905437344093
68.7104381909278
189.712790508598
344.416992447197
511.625958468122
658.490122359439
753.819293224474
779.338744136494
731.558302789579
616.297141834677
443.511008190331
226.928878994658
-13.8464916101148
-253.66924828159
-466.09967423843
-628.957831159339
-728.380607642006
-760.950837131119
-734.26543071787
-664.970931359575
-573.286077134018
-476.087397378756
-383.257113189464
-299.736240856936
-229.901472166333
-178.219128741388
-144.669541890122
-120.618750448008
-91.9595583641666
-49.0442794399764
5.20475988904976
57.1510672102859
93.0641904194136
108.803178032768
110.235734581284
105.624247361128
98.6335219657446
88.4956605694198
75.4416187825769
64.266014319001
61.8424092245046
71.337751487812
89.066219983303
106.765051244808
116.862378747463
116.424756910577
107.67557634144
95.9179879036529
86.6447543600431
83.0305105811763
84.6002102373697
87.8306505288921
88.6549416030328
85.2764116299484
79.0737267397252
72.9126214135199
68.5848504407522
65.7855772544345
63.2374576526887
60.3369277006932
57.5011926064923
55.2020633884611
53.167126814388
50.7311311250335
47.7167503440551
44.6219227592137
41.9183816244869
39.4484583792041
36.716531571693
33.6589400698985
30.8724626646184
29.0218729827908
28.1983307360768
28.0033087659845
28.1590397653527
28.8074202531116
30.1443286643882
31.9387363099086
33.6111457964041
34.7797146220026
35.5706969836203
36.3185827967696
37.0763357172935
37.5662979139062
37.5892939275662
37.3117232307536
37.0423570005095
36.8038982289947
36.2735058340213
35.1761676650771
33.6269220121885
31.9937802913716
30.4703469721187
28.8974086519361
27.027735877266
24.8641399753299
22.6420204239774
20.5133649420806
18.3667571308879
16.0156348378388
13.5007203950454
11.1187113612978
9.15375188886745
7.65498838056739
6.51054675098468
5.67199093736496
5.21322932225171
5.16199807435943
5.35708393746913
5.54317997573666
5.59090389803713
5.56227623767904
5.54674849185842
5.48982370508217
5.23596096098007
4.72043444394606
4.05238662100383
3.37918245829333
2.70918904897925
1.92241494616818
0.953895621749483
-0.0880812917285141
-1.02488977958147
-1.80938099025127
-2.58088302053772
-3.50768905450784
-4.60602794953551
-5.74373341078576
-6.80910602464949
-7.83543629176308
-8.94203151669325
-10.1830495847523
-11.5024896087139
-12.8569532007811
-14.3605677699522
-16.2747867415924
-18.8393267243828
-22.1128404578246
-25.97085648224
-30.231349489766
-34.7530836469409
-39.4121789796311
-44.0232338760114
-48.339574801759
-52.1668158103209
-55.4781700439454
-58.4033186052043
-61.0970603068948
-63.6237408451275
-65.9674336800494
-68.1279550783535
-70.1679815430604
-72.1494385991547
-74.0458937579904
-75.7541556245873
-77.2017871141555
-78.4147426838814
-79.445591660222
-80.2354442813683
-80.5792456124045
-80.2536943025055
-79.1752599194707
-77.4198911984742
-75.1066211986753
-72.3132146704809
-69.1397697319435
-65.8265308230529
-62.7349563945355
-60.1543622260567
-58.1189933382235
-56.4296044475321
-54.8456863119078
-53.2259232992564
-51.4790127926373
-49.4367780676238
-46.8590974029624
-43.6014671331052
-39.7510531527437
-35.5577961215335
-31.2325895891494
-26.8452240210659
-22.4272814810321
-18.1313186592172
-14.2359784734919
-10.9864697641286
-8.46024999432501
-6.59899817549744
-5.32807746497489
-4.58539713101118
-4.2239673311057
-3.93793663606736
-3.34393710704224
-2.15712321712889
-0.289566339563166
2.19478976592401
5.16390759592304
8.42753185145353
11.7076993241534
14.6868211335154
17.1463760390528
19.0648969025872
20.5682005830517
21.7960772531021
22.8398253990204
23.7924376128008
24.7937506332836
25.9681142365157
27.3213638178765
28.7467241405972
30.1574670345612
31.5886321688206
33.1358228821701
34.8050123190249
36.4616727779643
37.9330319931001
39.1135871451572
39.9317475705047
40.2486512756068
39.8806801793994
38.7790801467542
37.1619618436655
35.4094040794153
33.811855267943
32.4497382130948
31.3177551093587
30.4907272132547
30.0784500568646
30.0168629240009
30.0016244261888
29.724521811991
29.1820226319255
28.6929369231886
28.5863377959127
28.9118197740112
29.4867821623015
30.1708478075618
30.9850706732325
31.92136701687
32.7177484718522
32.9433799910732
32.3465667518026
31.0700444000149
29.4845409526578
27.8490937289518
26.1919762957099
24.4945689852789
22.8716325925858
21.4818675307864
20.3011980197295
19.1019711087863
17.714719237461
16.2600724380716
15.0533249290903
14.2952705120566
13.9309544539992
13.8272042225254
13.9962909472368
14.5429690172606
15.4056503717754
16.2712155121286
16.8391472624672
17.1460542564299
17.5490433346549
18.3712875190836
19.6230906892579
21.0996982406741
22.672390603012
24.3639464583956
26.1192035064686
27.6130535584949
28.4049163073653
28.2930436578219
27.4476103587212
26.1724527627508
24.6051387375789
22.7128781685716
20.528998958257
18.2617811763553
16.108774190029
14.0397352691637
11.874635189983
9.58406079509159
7.41800711843716
5.67347161502516
4.38221613883224
3.3075839371419
2.23155223117947
1.13417166999425
0.0323071526540346
-1.26429037685356
-3.0777036230437
-5.48958497928334
-8.13128010278791
-10.4404458138829
-12.1100760940307
-13.2068956437763
-13.8608595794207
-13.9818073581689
-13.4072049956338
-12.2800410583092
-11.0992498455519
-10.2778275398582
-9.70171605799521
-8.84010928663028
-7.30369012485664
-5.20028636070474
-2.90178959609325
-0.579926298645589
1.86209720774971
4.38363587241128
6.49782948058195
7.53248650199974
7.20627117674892
5.84830184347308
4.01891534970901
2.01205495752368
-0.183825524907206
-2.51423061912465
-4.6394464447963
-6.18011695398696
-7.08887199601541
-7.63488356792926
-8.01082845674479
-8.07877027037838
-7.58348016004486
-6.53871217832008
-5.27309510814958
-4.09354596736581
-3.03830446156514
-2.04905539456242
-1.29084259218161
-1.12045202407539
-1.68002756303941
-2.63759041899958
-3.45409832172362
-3.88524590342139
-4.11279098285235
-4.37848336292479
-4.64097823724711
-4.72591875828848
-4.7475579661921
-5.17552425699034
-6.37061216785239
-8.1426061394188
-9.91045931234817
-11.2972066976232
-12.4350900867275
-13.6343643209258
-14.9004315531594
-15.9709964066129
-16.8266191665946
-17.9516433212027
-19.9081206494579
-22.6906166828302
-25.6662840948988
-28.1972388880122
-30.1844976733199
-31.8822027250841
-33.2794398207784
-33.9042604507584
-33.3380128177532
-31.7736195670628
-29.8642908744368
-28.0187853662887
-26.0256779942168
-23.478468175915
-20.4506213711231
-17.5595430854854
-15.3566849471617
-13.8398641317417
-12.6887835703538
-11.8523223345761
-11.6589082896152
-12.2784036238208
-13.2554128228581
-13.7716629139781
-13.3571725912442
-12.1936446214326
-10.693367675476
-8.96842735675751
-6.89503006126741
-4.62605351021821
-2.76992235464134
-1.89645925439729
-1.95721260203577
-2.3653692265108
-2.64112798651776
-2.80647048799466
-3.07390090353356
-3.32990441836002
-3.17225366351915
-2.46720409373323
-1.62934597409407
-1.15880735819883
-0.983636707287573
-0.475758786623398
0.845031021505005
2.82387886253567
5.03844650531724
7.51500416710753
10.7840729464724
15.1234639769977
19.9582357483051
24.2633676940919
27.5393444937157
30.1489415715427
32.5786889204942
34.5628869128793
35.2008606484543
33.9306928679195
31.1203372771933
27.5321733414267
23.3712824523386
18.150306447904
11.5208605304681
3.95936963015173
-3.59518350496861
-10.667733047376
-17.5305527087427
-24.5171392529402
-31.3264264898417
-37.2453962736894
-41.9342882047261
-45.6456549720978
-48.554223065545
-50.1599208606744
-49.6966688981915
-47.1107031967347
-43.3145054464449
-39.3138031075866
-35.3175916427999
-31.0124058250267
-26.6180622202303
-23.203340865438
-21.644211317695
-21.4698926418151
-21.1755824481772
-19.7938671313632
-17.84941154457
-16.5081286263361
-16.0052910410095
-15.3848917346472
-13.9055002646662
-12.2653775533415
-11.9359751315614
-13.268556862846
-14.6477014578491
-13.7506091720099
-9.48190282527251
-2.51855022791445
5.72884735166539
14.1177696916924
21.6384363342019
26.8950929671598
28.4184461877296
25.543609850967
18.5483978807192
7.90297790441907
-5.86144858998871
-20.8870639008768
-33.2062401526209
-38.9459040064388
-38.5477493204431
-38.1948609187635
-45.1472284305115
-60.3683612599652
-76.1367042781189
-81.918006917997
-72.3636062398306
-47.9734227499222
-7.11072982405009
60.6409851984723
169.107813036698
320.161637242398
493.119902692495
651.227096697496
760.939947394953
806.618608549641
788.428992048961
709.426115888625
568.702043782048
368.950836715235
128.795986039262
-116.457755949577
-329.662582965417
-489.117931677709
-592.65889446004
-647.364010178004
-658.259955578654
-627.929461624215
-564.455988445987
-485.255269449779
-410.068137701874
-349.863194804034
-303.284341986713
-263.404872159485
-226.209959108771
-191.776802996833
-159.095153875618
-123.133781749785
-79.1071214839117
-29.1493716180305
16.9858803930593
48.8603848063827
62.9628053964525
63.684651799428
58.0197647730015
50.54480073971
43.2085816586044
37.8411167095141
36.635170921274
39.773502834693
44.0058161748603
45.0904102841556
41.9248643183696
37.6489969433648
36.3551100034103
39.1096158758158
43.5732450831763
47.1168746147397
49.481146577748
52.1634319165114
55.9394914190523
59.8600331233218
62.688480668531
64.5246149171654
66.404860920953
68.5719077790556
69.8640674890908
69.0825388789692
66.5292093390947
63.7057014958845
61.5905886540641
59.7215706170638
57.1926660744578
54.183415587504
52.0149169849122
51.6884672564325
52.7925670310557
54.1127820777036
55.0703882508355
56.1356348139634
57.7845172769343
59.4558460746512
59.8952254472323
58.4399862551064
55.6253839394813
52.4254287595316
49.1747125678865
45.5112852066281
41.2646801129562
37.0080900410473
33.5254863335243
30.9174198169615
28.5250342768186
25.7543834652774
22.7301931614157
19.9901059513257
17.7065611247355
15.491612490633
13.003398074346
10.4943207522347
8.54448725838708
7.3293462979628
6.39257628721461
5.22927637623665
3.93082777791236
3.07860164578497
3.05103918621402
3.63516982355991
4.3912256531905
5.23030306923421
6.42546092533191
8.05795371018462
9.6480634985303
10.4718355020371
10.1831226754341
9.00042552425253
7.30555570202452
5.22760880359468
2.71991766022528
-0.0692591172458169
-2.71078751997627
-4.84745361901169
-6.52223356103979
-8.04467003020387
-9.57142815657613
-10.9409956892187
-11.940117049791
-12.5982234320042
-13.0918382408878
-13.3997303920397
-13.2137978339773
-12.2800992030325
-10.7574570753963
-9.12610885765656
-7.74205860740786
-6.58150155644999
-5.46904387458856
-4.46257944129238
-3.88253091810583
-3.95280925047329
-4.53082385045524
-5.28484215219171
-6.0968852895751
-7.18527708145801
-8.80778903751966
-10.9338671788627
-13.2867849946669
-15.6654815558071
-18.114776547147
-20.7472081888996
-23.4909311379792
-26.1187678421646
-28.5175432964737
-30.8283034945541
-33.2622862694686
-35.8309996412116
-38.3398224231221
-40.6408069159868
-42.7983121063441
-44.9451368513235
-47.0283777443506
-48.8009881585428
-50.0961209366019
-51.0436330457161
-51.9477723146324
-52.9701146337585
-54.0079176082385
-54.9121671716163
-55.7660662423522
-56.8747246327866
-58.4756826258916
-60.5108139582179
-62.7045653110306
-64.8170752809962
-66.7570442781481
-68.4473423059896
-69.6458582241877
-69.957653587927
-69.0312263753937
-66.7357911885397
-63.1785172492173
-58.6072640479677
-53.3117633577134
-47.5568271711436
-41.5236819708386
-35.281326581455
-28.842410577578
-22.2741695133887
-15.7388468452422
-9.40418854066471
-3.35082492947335
2.34634356055245
7.39649903668337
11.204702010035
13.1226019961683
12.8792433471823
10.7861631225198
7.51227910228906
3.68065771910582
-0.279195299162737
-3.91601124039307
-6.5298448182913
-7.32215445964871
-5.86352416029823
-2.40952302293424
2.28372231901675
7.46773666475609
12.7298276481209
17.8741734930456
22.5999686408263
26.4159055998804
28.9111931585961
30.0687119670983
30.2578908865861
29.9100425841914
29.2163920960615
28.1290871409396
26.5963059706121
24.7368712988769
22.7809160672031
20.885760065838
19.0506671630544
17.2096303458977
15.3814692343038
13.7222027634812
12.4525987987685
11.7520378642187
11.7044930518861
12.3029210768086
13.4728451797727
15.0923801542904
17.0109682611824
19.0659159985611
21.0883653767182
22.9066147974214
24.3722551653437
25.4140200202223
26.0781521186169
26.5033551123315
26.8318601368941
27.1241402067519
27.3467235716895
27.4328283817936
27.348818821252
27.1062977083598
26.7260554903654
26.2086868878296
25.5483008403389
24.7701911143055
23.9459517107977
23.1651293766988
22.4866050302711
21.9100929540049
21.3899348912556
20.8836479732197
20.4077324785304
20.0670985212002
20.0328870972901
20.4707827375647
21.458973655193
22.9496296808614
24.7946578052134
26.7980616819068
28.7356336967716
30.3317418192986
31.25497089926
31.1996893439487
30.0328834021181
27.8912596867057
25.1285141676528
22.1437995262619
19.2383919329606
16.6144347428149
14.4714446544778
13.046322703313
12.5129850258621
12.8366805099168
13.7571729002999
14.9486936160071
16.2069997076657
17.4759671451088
18.7037151401249
19.7126187717953
20.2499860326382
20.1718208311996
19.5516942687094
18.5917053211213
17.4419822106231
16.133318561895
14.6778308705456
13.1819958124922
11.8064054034919
10.6079932829452
9.45867276791903
8.14799817417702
6.55415014225238
4.68974101606889
2.59481060083667
0.24470052650166
-2.38852735417928
-5.19950427738772
-7.93551412453225
-10.3579460238577
-12.4010404925378
-14.1348616727188
-15.5753436023353
-16.5786006332067
-16.9565975798202
-16.6736835220439
-15.8779776854872
-14.7272542889259
-13.2295100669659
-11.3017810386649
-8.97360774047737
-6.47368871536524
-4.07974737588804
-1.90535969973673
0.126588202625643
2.10793136218224
3.9939825861678
5.65210592602675
7.0173926362838
8.13181889892759
9.01349088528995
9.54089211100018
9.52528536816086
8.89867955571427
7.79069284012183
6.40779394912481
4.87557123624203
3.23323536397134
1.54898505492762
-0.0423883124104374
-1.4647605442787
-2.83439716804012
-4.41153426844137
-6.40367146006158
-8.84209066511179
-11.6507517276799
-14.7717830540306
-18.1517786261314
-21.6117849701871
-24.8170904977389
-27.448500080725
-29.3933245067661
-30.7141617317607
-31.4285887312364
-31.3927656786227
-30.4624942873573
-28.7335611380281
-26.526935175647
-24.0947400634717
-21.4015253509125
-18.2760453862876
-14.768772102187
-11.2645988246908
-8.17882233142642
-5.58607249349464
-3.23888065969002
-0.966444093374315
1.02715895760431
2.32863413410737
2.73930273259296
2.4396778905813
1.71249004178532
0.598786021214952
-1.06199103927544
-3.25191059292599
-5.53433555028464
-7.26526625245503
-8.02095339972888
-7.77201122180513
-6.68317969221109
-4.87631572110717
-2.47866714344017
0.154509965692426
2.41225906330535
3.71326995789989
3.81082137751937
2.79987166102986
0.889055044652764
-1.73322635562936
-4.80099423038831
-7.86680599224231
-10.4397500252505
-12.2624194606326
-13.3926657563794
-13.9825506271326
-14.0392750066179
-13.47509302871
-12.3607337435754
-11.0148385256514
-9.78023627995633
-8.76952731886318
-7.9164284969098
-7.25540720677996
-7.02486866352115
-7.40847402450715
-8.22128591482175
-8.94993532083733
-9.11227382072553
-8.49709954836065
-7.03001580787948
-4.54337511889056
-0.871378897501325
3.77963238535941
8.69030496812828
13.0013108002608
16.2278935388451
18.3245416602756
19.2714037169728
18.7892781991572
16.6284832067933
13.0773134980886
8.95218528118868
4.94024693285343
1.03312382198992
-3.23820737221145
-8.02944441691631
-12.8333879838314
-17.0064589956627
-20.5003207788241
-23.8370936025291
-27.3285146438201
-30.5424351643975
-32.7428556568347
-33.78139651304
-34.3019406536947
-34.9712484378598
-35.7012241917672
-35.8526663060251
-35.1426434566208
-34.0568029838669
-33.2180553783659
-32.555593914183
-31.4099363614424
-29.4730500639251
-27.3122603196949
-25.7279950737703
-24.7475679309081
-23.6009133159711
-21.7601144437857
-19.6719155489243
-18.1499181920957
-17.1818289088968
-15.7916317562536
-13.2779471885706
-10.2495997063448
-7.96852086518121
-6.67771426908715
-5.0901621985783
-1.92086430429566
2.30344888294002
5.51440291105177
6.34058558618133
5.63531220129574
5.31005367494362
5.8208077476788
5.49911638816873
2.77058465025573
-1.36130659143677
-3.778149960797
-2.45155700516745
1.13345910558132
2.96424209527161
-0.478609866455519
-10.6164751282716
-27.6482176391644
-51.4203713987678
-79.9903941326206
-107.405105833601
-124.373657262294
-122.430885061924
-97.334195227652
-47.5413096318831
30.238079278248
141.409263985925
286.167889138581
450.333153301827
604.929102393016
718.13421974509
770.654572225223
761.101497744474
697.499463246221
585.119224406833
424.21673360894
219.937770387789
-7.26399937789586
-223.69884500142
-397.299654149093
-512.517715252715
-572.822485649336
-590.963651721816
-578.111367764329
-541.361365588775
-488.317337266732
-430.225389842818
-378.618958330152
-339.136758264508
-309.540682386348
-283.800734448657
-257.365890605285
-228.376071556091
-195.267309803926
-155.561157378576
-108.473885878889
-58.3899093784381
-14.2888361285417
15.6409485691224
29.5620679432002
32.6012361572419
32.2745496532618
33.2845123850279
36.076335468714
39.2263358687121
42.2361992927948
45.9255545814956
50.8467963724675
56.1246670777807
60.1031158544247
61.9120312734145
62.2051851641004
62.457048190587
63.7271222488964
66.0892357515946
69.0090912407123
72.0351322103029
75.0951767340481
78.2634879995239
81.3753272175736
83.9150743138767
85.2914643506808
85.2592466630729
84.1152658868204
82.4856891305895
80.8911449136278
79.4912000071965
78.2206914415875
77.1014245529423
76.321984411104
75.976820856895
75.8076644304719
75.3293997097126
74.2628734996122
72.7923034187663
71.3399903741843
70.1175609195485
68.9720666854933
67.6674197823169
66.2031406945551
64.7578393277938
63.3639641042141
61.7886637491261
59.8235330307666
57.6257194998348
55.6468062035286
54.1923697342766
53.1268169168598
52.0589337718347
50.7390177183799
49.1519272340857
47.2223611769376
44.5903568287718
40.8447485214842
35.9938395445803
30.5938893053887
25.3318009401135
20.5118679777973
16.005245483469
11.6491260162205
7.55382367743827
3.94617490937799
0.805321594926042
-2.18086049469166
-5.23165161947816
-8.1158590744538
-10.2597326140127
-11.2017566243301
-10.8877484529526
-9.54462615030179
-7.39423584186996
-4.59657953390542
-1.42875292905826
1.63836132971254
4.15218564584068
5.94960479498989
7.15446913648648
7.91672172602002
8.23179142460447
8.04360159840853
7.43446201325316
6.59191901971048
5.57251147204888
4.20020425803129
2.29184843785318
-0.0345928899750767
-2.36027444197614
-4.30549821259216
-5.82334402604937
-7.122327436266
-8.35578143178775
-9.48459261107068
-10.459634224866
-11.4347530323009
-12.6825032657471
-14.2847047086555
-15.9770308672265
-17.3427953835584
-18.1259209699812
-18.3193729638678
-18.0068077412859
-17.242806354553
-16.1470882115989
-15.0396216034699
-14.3569916714151
-14.3933212609648
-15.1781216124797
-16.6477116430884
-18.8779906002159
-22.0549483514799
-26.210334537806
-31.081380664925
-36.3041113105444
-41.6966087877404
-47.240571437352
-52.7573907714784
-57.7107532004871
-61.4607341010675
-63.7414867695984
-64.8322971981746
-65.2448300981285
-65.3261559690753
-65.244113366213
-65.2910514863491
-66.0016059015449
-67.8125117128522
-70.611730085499
-73.7286535403211
-76.4211948698545
-78.3312168569962
-79.4427873304767
-79.7048015122398
-78.8722483189927
-76.7880765396684
-73.7136974733829
-70.2223886506193
-66.7216995654722
-63.157857374917
-59.247719709413
-54.9421695112384
-50.5602327492314
-46.467520944157
-42.7379196057742
-39.2185809421897
-35.8670719117189
-32.8759901282976
-30.3967680086926
-28.2201852747167
-25.8500217589721
-22.9183310220038
-19.4685335798536
-15.8103340799908
-12.1813394043867
-8.64721709156583
-5.30597713234003
-2.43909540188309
-0.332157092257205
1.04779218807766
2.10500539158124
3.29820667433626
4.80001412917579
6.48631066558539
8.18917126140286
9.85390769629896
11.4343878066031
12.7486199833526
13.5690346328862
13.8821551796197
13.9940350242103
14.3338484656877
15.1789181021595
16.5940236646595
18.5681650435649
21.0799176679698
23.9729910959371
26.8526041818094
29.2379108992698
30.862322210929
31.7696338879387
32.0766902852531
31.7021295177794
30.4222483257636
28.1942072366844
25.3191289441247
22.2046221351567
19.0135172493227
15.6656512845752
12.2239625798228
9.17887129424079
7.2221538558629
6.71238759519454
7.42635986400672
8.86443530237583
10.7288084929703
13.0237461375237
15.7333454515833
18.5638147429306
21.1270785888143
23.3495033329173
25.5788690651136
28.2235035861945
31.3222290844194
34.5063055237868
37.3273465982901
39.5254508734429
40.9790900419693
41.538369093293
41.0711180235269
39.7044551662085
37.9224350449947
36.3301993035298
35.3131626597212
34.9424667721879
35.1486967314256
35.8591123020745
36.908683906685
37.9164989961037
38.4189956450125
38.2072141344127
37.488498149084
36.6526771321994
35.8947610025774
35.1195933447845
34.1899617702925
33.1464606332642
32.0938642989371
30.9270368979069
29.3183079208789
27.0597245002282
24.3669209887485
21.7536765033118
19.5971657364022
17.8851660497476
16.3933698477194
15.0041740900522
13.7436139101102
12.5381606035672
11.0960601271246
9.15427767660856
6.82041780743816
4.56983949880319
2.87127961073483
1.87254618379852
1.47873203050587
1.63561301648563
2.3866607068907
3.62671802398961
4.93972379209062
5.83380735815703
6.15013375187599
6.14212905805322
6.10424487355958
5.99847141178519
5.53235405641398
4.55907897180876
3.25665407650961
1.85072305117329
0.274970416935045
-1.72803086011469
-4.14377695415003
-6.45622708993158
-8.00026783933418
-8.52265910678343
-8.30836226883962
-7.77135332339027
-7.06783555959833
-6.21154551237203
-5.46394823501326
-5.37594405387294
-6.31128649277434
-8.00116724324385
-9.70833445648827
-10.8483964245287
-11.3555336044335
-11.4164406149842
-10.9986807311899
-9.8300208807927
-7.850986578598
-5.50211778170121
-3.39601945087155
-1.72645295213402
-0.136497408328181
1.78660948280302
3.99419929651335
6.04326816628152
7.6010862067755
8.71356267021262
9.52661994597234
9.89392595853725
9.4411268428387
8.02425783996319
5.97682599790998
3.80939389309557
1.73848119971797
-0.374052647738033
-2.65147554733841
-4.939957307188
-6.99689478846313
-8.81381530370773
-10.5565213728251
-12.1534902770347
-13.1083291752293
-12.8749349931173
-11.3943567216978
-9.14424898218228
-6.6612471907812
-4.1705462858299
-1.7832991407653
0.0848071047069894
0.768303304153072
-0.046871669284009
-1.89175012067106
-3.84474219802492
-5.28376672158625
-6.18485813323962
-6.68283366467509
-6.57176890322165
-5.4789932025097
-3.49998885031948
-1.39251530248583
0.0424590945694945
0.674915026128811
0.944471049459853
1.05847892676122
0.535597654206764
-1.27718230010248
-4.35828799275535
-7.94345993611991
-11.3439448559026
-14.5748244602238
-17.9304937094498
-21.0376460847667
-22.6814149774893
-21.7790604091779
-18.3996396114376
-13.6104038805611
-8.37054687735034
-2.86020467108387
2.98491451808214
8.57052700611312
12.7061260991036
14.6836296409194
15.0303858563778
14.9368700075139
15.0255422987362
14.954154508244
14.2466143955528
13.1549347948187
12.3685136517837
11.9822808096583
11.18171500381
9.17309323570781
6.18823030218086
3.20806897087779
0.695035308477906
-2.04118946702162
-5.99888003841499
-11.2405084914023
-16.8686587985763
-22.2334179522736
-27.7204627651161
-33.9834825019297
-40.5665033584021
-45.7769057195777
-48.1403901521644
-47.7274101803032
-45.7618083957867
-43.096699388776
-39.5526647346885
-34.9067711503466
-30.0807124731891
-26.7750471969577
-25.8629153468873
-26.5619829300504
-27.4554023691452
-28.0532501316819
-28.9318831593587
-30.4375758596292
-31.8691348581575
-32.3367284411026
-32.0940586674043
-32.3822649809662
-33.8535929175392
-35.7143079230572
-36.845348234242
-37.3324236604114
-37.9997529548606
-38.2209492065611
-35.1073112779915
-26.0329757620181
-12.2017307998878
1.06974810464422
8.37183814992692
8.48817274367942
4.35589821017347
-0.955227532718872
-7.3850596437747
-16.7629914609388
-29.5640277196675
-44.1146013703722
-59.0634547937108
-75.1125791589647
-92.83259431126
-109.016583249078
-116.711769477433
-109.489377376177
-84.3416809164842
-38.7536427291584
34.142498254126
143.514803827858
289.788384872375
454.660187215922
604.737848230549
708.700450605633
752.850627213393
740.362891942552
676.75659188312
559.428881960118
384.415134247297
163.170154609808
-70.9009635038068
-276.579153747624
-427.70451663147
-523.134934306562
-576.037540926118
-596.404138353586
-585.745803918277
-546.689103198375
-492.421207976587
-442.199467734399
-406.953061107205
-381.572979652334
-352.988382131363
-314.88936181391
-272.686391108172
-234.191018126905
-198.130431150562
-154.58443545579
-97.0848524670044
-32.5557124808684
22.2078279536342
53.9709532385236
62.8112308918939
59.6580484439876
56.0532792141278
56.8161563418214
60.7237840391877
65.2914519616639
69.4505111575476
72.8133130009847
74.6506802688918
74.6448357087998
73.8951365396245
74.1006495256235
75.7277945256303
77.7289721413001
79.3221109964443
81.3678427112045
85.2586520569456
90.606284626143
94.8405781387766
95.5439292034675
92.8390490700388
88.9881028003836
85.7843088202915
82.9464698271767
79.280004707929
74.827085669604
71.1413896136848
69.4198025804556
69.0039758816186
68.1829637016849
66.2127827849541
64.0004126750081
62.7564263991177
62.5224434659604
62.4484472816469
62.2502862072851
62.75081162171
64.7465223592128
67.7383567087154
70.23907192675
71.2648980546947
71.0946434652939
70.4257658594085
69.1976647781278
66.7120747556461
62.8401732588739
58.5934098678714
55.1860652366607
52.7656756010329
50.4683634131692
47.7199200714566
45.0664843209215
43.4573889994107
42.9599852455588
42.6280508594951
41.6980083929959
40.5152823376178
39.9480642712859
40.0543631711137
39.7728285136211
38.0824888174549
35.1640034454199
32.0969068578647
29.5217073894901
26.9964314532451
23.8131988566576
20.1186693435381
16.826246145158
14.4427434565392
12.3749733244016
9.64763824292966
6.12074437617202
2.66820262146455
0.151336870863722
-1.4480821896741
-2.670314595425
-3.59695405513084
-3.64365251062226
-2.42547820690925
-0.512826093540051
0.983543793022709
1.51452334756496
1.49610645598505
1.55694010994239
1.67646209747271
1.34337512022327
0.448038947777734
-0.377001621000205
-0.499942288215461
-0.160120129297621
-0.290322985152358
-1.4712739110992
-3.33531178228489
-5.1475459561707
-6.75993508525158
-8.68237711746721
-11.2260627623471
-13.9238322629644
-16.056548112461
-17.6183334836169
-19.4330512540736
-22.2242766374159
-25.8076847517778
-29.416100071349
-32.6949668837176
-36.058678472355
-39.9780942945267
-44.196249064325
-47.953500796715
-50.9443579889321
-53.7340807622903
-57.0524685271104
-60.8471805347127
-64.2941333281313
-66.7241171346098
-68.2657962426513
-69.429734130852
-70.271966739493
-70.3011783548059
-69.2588827897883
-67.7059976863471
-66.5842051905802
-66.2660285327353
-66.2774597695455
-65.9968514122913
-65.3831683304453
-64.8120640844849
-64.3308103396771
-63.4178141086694
-61.6222897275588
-59.2353804113075
-57.0601532881087
-55.5260804243784
-54.263538658351
-52.6540191117896
-50.5999576527356
-48.5045746209428
-46.5433627358748
-44.2745642421579
-41.1762168415274
-37.4243369630791
-33.8531317301376
-31.0876145623816
-28.9325729243497
-26.7817424773059
-24.4852964044685
-22.5293187570808
-21.3112089210896
-20.5072492541109
-19.4109304492441
-17.8211413392476
-16.3002085905634
-15.4234762135558
-14.9644870969147
-14.064000186184
-12.1710973426922
-9.56446934377304
-6.83543718420092
-4.07477465929152
-0.86324480033044
2.9350961129329
6.67038191428545
9.42687725389205
10.9586510498227
11.8804034777196
12.904174537335
14.1135900312292
15.1556434071414
15.9884740141821
17.1100893750201
18.933977735247
21.1584656148144
23.0133913793269
24.1147228962963
24.8533280490061
25.8531910843321
27.2389026829794
28.655007374735
29.934249759872
31.4362768297787
33.5478393391869
36.0088098063196
38.0124274125383
39.0203690010773
39.2720477439415
39.3479153013801
39.3795811697879
38.9494809607435
37.7861235484243
36.283383930254
35.0992088725873
34.3326666062561
33.3819858917283
31.7225425073851
29.6316282264301
27.9288666633745
27.0612670395607
26.6967920104737
26.3085559858343
25.9342102792041
26.0887454460002
26.9563642486276
27.963382585775
28.3445334732525
28.0050743274708
27.5801278102476
27.6280468420189
28.0005034444844
28.1611413246965
27.9572407446311
27.7740357361135
27.8696600175928
27.8232417879419
26.9019274892817
24.9256874160176
22.5183458970177
20.4105112923972
18.68498363872
16.9079657384733
14.9042643175469
13.0899674068778
11.895236798997
11.0632443558526
9.81681578349612
7.74970585717903
5.32262610869887
3.32968801180327
2.02176305187773
0.992979521017979
-0.0910152506804351
-0.950499333737
-1.08094294306789
-0.537060845002912
-0.0135180459355482
-0.0482551761050587
-0.359981807018833
-0.190001376391347
0.781771623536336
2.11935812185178
3.28154265465428
4.32636527569717
5.70129726476303
7.40675178743865
8.70740612020156
8.87463108429301
8.0615486102253
7.17505540794615
6.86785395149725
6.90081277289748
6.64116957747509
5.98933536857623
5.49236035157897
5.50594014290391
5.55560697602457
4.81758867098945
3.17740623294525
1.53777634043049
0.968996644511654
1.73339754679951
3.31974899376877
5.29490567416778
7.77102386848255
10.8865254381831
14.0660292825757
16.1377139086076
16.2554154115501
14.516931508359
11.5753708662916
7.83547878128265
3.285703514251
-1.9264161037789
-7.09665489476895
-11.3871538880536
-14.5371491815779
-16.8884007845326
-18.6698302464472
-19.513047335357
-18.8829481871898
-16.8618504130165
-14.2104371743408
-11.5798240548385
-8.91035627709101
-5.8345658042038
-2.54625770544398
0.0845671702498083
1.4110898519937
1.80507043567402
2.27939511173396
3.3476335101875
4.52759030769414
5.0807451246401
4.98838007426313
4.87903260778143
5.02834668747905
4.80551239758011
3.37422973159831
0.794409428439636
-1.9002232824001
-3.78129748301971
-4.91624370287722
-5.99330881550967
-7.2613489942757
-8.22658059190865
-8.48883583974771
-8.53879131873361
-9.36103846919522
-11.2768470760976
-13.5067736786074
-15.0335642695321
-15.6731234866173
-16.0195549536962
-16.4312536824928
-16.4719373009155
-15.5623956628363
-13.9299938737301
-12.5105991920074
-11.8545989681177
-11.4479653623534
-10.3449081131682
-8.28746081610699
-5.85848168515459
-3.5295789938874
-0.961297368805488
2.43983911453928
6.45126073399268
9.96822719015509
12.1518332728619
13.3248993886718
14.3923641717063
15.4919281527416
15.6550755701033
13.9828360143751
10.832038495553
7.43848095858753
4.44315207588214
1.27973275175667
-2.69943099481964
-6.79477392904545
-9.17086149178868
-8.6018239435379
-5.65096179495046
-1.8579147338014
1.9794881373031
6.23575611257767
11.1520173100181
15.6603253785141
18.0463804328457
17.7190080738025
15.8349881829159
13.9469362405257
12.3631386228859
10.234173080471
7.09361136979783
3.70137709585703
1.04360120952713
-1.12279329878837
-4.12736161475561
-8.71499609611462
-14.0102665435647
-18.5182555558229
-21.8993896047362
-25.2186762818554
-29.3755285267549
-33.8357502878362
-37.3827831173809
-39.8771021792459
-42.5939422351301
-46.5558955221912
-50.9929938976932
-54.0103520850136
-54.6987752391395
-54.0089573109889
-53.3013890480473
-52.53300827879
-50.5074999904708
-46.8342420163583
-42.8910999930972
-40.3522997632485
-39.1147596211293
-37.3704587517264
-33.8161120006982
-29.16400107402
-25.0200559802267
-21.7022512136421
-18.003950998547
-13.2606547417812
-8.84980485592058
-6.87741545407158
-7.61699065319302
-9.14958132508649
-9.83902550191916
-10.326218045692
-12.0789716370776
-14.1414405637266
-12.6402936983985
-4.58281597434947
8.09016705170856
19.2165807647581
23.5843346060563
20.9565482624387
14.7028142913619
7.2085548781672
-2.26765185700423
-15.280430117186
-31.2719228887801
-48.2252801803096
-65.6502981198942
-85.0048744887619
-106.071519102721
-123.845406678992
-130.579059430501
-120.848768585851
-92.7620249403667
-43.0629682251497
36.946250254379
156.298179959752
311.872377506365
481.013105597998
629.106029407237
727.033942055346
762.63573291573
736.697264086433
651.032679923993
504.356518047456
301.274372924817
62.9436420463411
-175.319231919108
-379.888718464734
-533.351260684151
-634.577389422364
-687.486903363701
-693.223232829452
-654.179350575839
-582.548529009111
-500.083817944787
-426.445551345815
-367.613284447698
-316.37937080161
-263.590417220655
-207.577879832767
-152.842691766143
-102.204663654966
-53.3255734243723
-3.6479044275832
43.2203090976276
78.2970289241012
94.8616859753984
94.5055899770851
85.4018147105271
75.589165043302
68.7108296642668
65.2779570679124
65.688245717529
70.4294955091329
78.0156911091243
84.7163761314023
87.4920359342206
86.7625591641076
85.4169918483697
85.1834752534471
84.8591449819887
82.4831122029929
78.4752660730365
75.6007367961114
75.768414171158
77.7229691231884
78.5049139797613
76.7929247052967
74.024008649114
72.1742610221694
71.2707466083032
69.7798739601616
67.1279234800709
64.9027034424712
65.1368906382452
67.8957975954664
71.2200170465612
73.3934168861681
74.6178906166997
76.124917061091
78.1200938056009
79.3250098738418
78.6262512831539
76.5585721074738
74.6488802874883
73.4993032018217
72.0992104679875
69.2004866702505
64.9324100973154
60.6242422387152
57.1935214222866
54.2519830363655
51.0060468240913
47.6184012594851
45.1410727902971
44.0799029335973
43.4797383836719
41.752141006153
38.2386624241353
33.6258400948556
28.8636859660145
24.1124065791319
19.0491943758707
13.9785788885893
10.1367114903314
8.68624110817784
9.63232411771577
11.9801294265882
14.8577587424072
18.1761928532815
22.1302296232988
26.3901070542189
30.1398971372904
32.8768058819048
34.8365125237253
36.4473206385027
37.5565797471658
37.4839374305805
35.8375582340059
33.0101422491761
29.7171605155649
26.2269685277717
22.318705133939
17.9808696025759
13.8273084078822
10.5697236940731
8.17476119517698
5.82139572333736
2.78392169936894
-0.818627025971116
-4.29263629214022
-7.24246578977425
-9.89806245563665
-12.5293024262958
-14.816974475311
-16.1087197414348
-16.2953550976437
-16.1768481282003
-16.794507900093
-18.5027940314357
-20.8619250975314
-23.3699038865451
-26.0139725606035
-28.9416930826242
-31.776318246372
-33.6066614068916
-33.8050497984654
-32.7163334507675
-31.3664466133587
-30.5327345205621
-30.2765418631088
-30.4142845344658
-31.2200388369641
-33.41294678774
-37.4454538943717
-43.008064829564
-49.371136385843
-56.1168422450969
-63.3483631179889
-71.1516553091969
-79.0129982310114
-85.9090671155095
-90.9412167770371
-93.7841787453075
-94.556294894548
-93.4611340559173
-90.7301175196524
-86.8696949058642
-82.7565940635746
-79.3289332050401
-77.1576893238918
-76.3170593551664
-76.5722889632902
-77.5582380017112
-78.7806395498548
-79.6403136551733
-79.6831154912592
-78.8984800470405
-77.6961806003485
-76.5203330286512
-75.505551152599
-74.5281310215777
-73.4926408579853
-72.3998797898516
-71.0787095687001
-68.9923405968825
-65.515531476628
-60.4865506349461
-54.4222926113003
-48.1222652640336
-42.0937531514776
-36.4231806760816
-31.1473327245229
-26.5631305426304
-23.0336025364128
-20.5378440857162
-18.5789554983146
-16.6281912482283
-14.5985244446916
-12.7816039653412
-11.3298285130287
-9.91004457253891
-7.92783079838567
-5.02685964348103
-1.27585419995327
3.10305130608515
8.03067663555891
13.4725560656884
19.0845872560737
24.1091658345775
27.7434248301441
29.6355250770717
30.0208474946761
29.4339610682541
28.3746553690697
27.2486261261338
26.4870301208389
26.5344247794636
27.6247302082988
29.5961181527504
31.9883243258529
34.347653206543
36.4516116453116
38.2999506878356
39.9889067205627
41.6457225634343
43.4278321630563
45.4679380973629
47.7453308263614
50.0217988143728
51.9498863154905
53.2663854296136
53.8862544273396
53.8450247684756
53.2210820625764
52.1565725486411
50.9123256838166
49.8016705126765
48.9924469447837
48.3660350380059
47.6058294213848
46.4517619491805
44.8806254669346
43.0650274037708
41.2083754368964
39.4567127218848
37.9470916877404
36.8635761694461
36.3710620023546
36.4695424885197
36.9327105359372
37.4187105344709
37.6648961388539
37.6035542981963
37.3258478551448
36.9575000380516
36.5547475135339
36.0734184511419
35.3948261070309
34.3709902499959
32.8671363198257
30.7980756397635
28.1658575465508
25.1057252519949
21.9252634113839
19.0881563082867
17.0971464095347
16.3014681745352
16.7398964913187
18.131037917592
20.01226631988
21.9125735710654
23.4476052269413
24.3378611076124
24.4324732297011
23.7720629246043
22.6163803810355
21.3492039882039
20.2897627828598
19.5507817902205
19.0490089317657
18.6292997402153
18.1740003105843
17.6263467594988
16.9702443458954
16.2344510702696
15.512790792708
14.9350344687998
14.5715609021319
14.3458285316817
14.039782551787
13.3911810183667
12.2039364355273
10.4079885644795
8.07336956502121
5.40696081005419
2.72355431913833
0.362490202295156
-1.43308127446011
-2.60127507524675
-3.25522740764069
-3.60948946288588
-3.90792922540301
-4.3812609223489
-5.20198996790634
-6.41577817915439
-7.89701743185295
-9.39775485748387
-10.6818085271879
-11.6420168788456
-12.3049755523022
-12.7354477225372
-12.9420170236474
-12.8623830692451
-12.41182939087
-11.5262742818
-10.1683958888657
-8.32870304035687
-6.06364769349442
-3.56592346045007
-1.21391630889125
0.459692876030886
0.904592272880166
-0.243008095516032
-2.98898898891361
-6.95437976388753
-11.5216202466966
-16.0490769803351
-19.9970307049906
-22.9193843282657
-24.4433360554713
-24.3749069078128
-22.8791244483802
-20.5087849174647
-17.9485339865209
-15.6475888315774
-13.6794292495434
-11.9510535422698
-10.5017734252991
-9.53726630093865
-9.17635741210923
-9.25474712964573
-9.46781293233913
-9.70016848394967
-10.125014496161
-10.9192352210765
-11.9261483676004
-12.6929781295456
-12.8688637665026
-12.5073344631252
-11.932416632461
-11.3632620827085
-10.7731575700787
-10.1288076406144
-9.64387382099593
-9.65661769185419
-10.2448546672876
-11.0672276638486
-11.6644090291612
-11.8816369576605
-11.9225742844256
-12.0142954828307
-12.1459568656051
-12.2117508049898
-12.3222396756144
-12.8051424709586
-13.8316154020125
-15.1325452252153
-16.1973469143236
-16.7450874869577
-16.9069609112558
-16.9293766506294
-16.8210922372889
-16.4180043895092
-15.7571013624219
-15.2125453019857
-15.1491248581764
-15.504040209538
-15.8414416530095
-15.8349773732517
-15.5833110529704
-15.3802795274398
-15.2677695757646
-14.9662018239573
-14.2542845242687
-13.2588266646519
-12.2403003028157
-11.1573645237882
-9.62070838305752
-7.34615502401696
-4.54858478609897
-1.78435221660119
0.528255022633671
2.27673488610339
3.34425111030366
3.35610621167699
1.96598280566369
-0.606876367117376
-3.51639283827559
-5.87794632681782
-7.32644820293988
-7.87774470127427
-7.35384480484871
-5.25027730190718
-1.34554198556312
3.71353390594633
8.72083945929706
12.8809003659105
16.2933665976796
19.3467305141058
21.8042593746305
22.8039624998914
21.8347634908189
19.4406517504031
16.6805759795513
13.9573453208255
10.6906038307911
6.27072657265917
1.07604434933094
-3.78181056011861
-7.69174116975025
-11.1754376251329
-15.0915770674881
-19.4388261402896
-23.3178060122637
-26.0949789637464
-28.2164753230649
-30.5692418737968
-33.2243280135224
-35.2575360919308
-35.935172803664
-35.7075830056797
-35.6561128750543
-36.0923280858376
-36.1911865923651
-35.1985720102056
-33.6041589761918
-32.62545260143
-32.5967799645842
-32.4431837131168
-31.0994395165965
-29.1039293083588
-28.1768462503267
-29.1475753575154
-30.8777627566265
-31.692214371532
-31.5353161889494
-31.9197286306281
-33.4890577775847
-34.3004012505985
-31.3528500729107
-23.8507870999206
-14.2537149182808
-5.6798291258712
1.21744402935516
7.98438808143703
15.0254777920424
19.5561051604488
17.8382956103012
9.34663780970148
-2.13884146258803
-11.9894499461534
-18.7685027351189
-24.3173711414779
-30.3479151863606
-36.2126825698455
-40.6116976755277
-44.537146302175
-50.9510131627804
-60.9649366397562
-71.0136012778064
-74.3148280926708
-64.2609762619989
-34.9829508319134
21.1001457755424
113.185149425002
245.317844927581
407.146143515528
571.775804868298
705.142869704406
780.237745129189
784.855699970863
718.773436671293
587.099764387785
398.66202957109
169.932165618639
-73.1012992993042
-300.647942699581
-488.692702677959
-624.027506557675
-701.911741904902
-722.021596616156
-688.906150596467
-615.390328014053
-521.752989578018
-427.88371967718
-344.783655861167
-273.814034792494
-213.650927411563
-166.000824082263
-133.014000603056
-110.191802073206
-85.190836869931
-46.6721546658471
4.87830065385806
56.0869284075198
91.384927756782
105.138882647484
103.80084807785
97.5899435262075
91.5771644676636
84.8074528038349
76.0432271401274
67.985586395222
65.245210533693
69.3987124634218
77.3022611319883
84.1352600011707
87.1720366390567
86.4893313321115
83.2603472246659
78.6925260496752
74.5091595383387
72.9987887491592
75.3377896928345
79.9522605019762
83.4537461395905
83.68627677853
81.5392430892193
79.4146553857832
78.2362390095686
76.5923915865437
72.8439594771204
67.3497152256816
62.016874168938
57.9433011165064
54.3028686662196
49.8425065848925
44.8867072084006
41.1476219291175
39.5982003012829
39.2210482511886
38.2724802166704
36.4126654039473
34.9710176142451
35.0883637495904
36.208142527716
36.8409274109452
36.51334372872
36.3152281987728
37.3687646811571
39.271114420889
40.5374942842735
40.4133991981646
39.6735180487707
39.4302723664605
39.6022643467732
39.0722796823521
37.2691001333993
35.0272106635162
33.5767825438476
33.0119469594678
32.2569824132365
30.5461928162281
28.4429056965446
27.0684659808267
26.5976862201114
26.0295288149955
24.5266868762009
22.535610753546
21.2016862520253
20.855506073852
20.5645192906385
19.3284833409553
17.3392240815019
15.6665496542564
14.81823521414
14.0842392976176
12.5078447319032
10.1733056411409
8.10522521382925
6.92719437935564
6.05586861729395
4.4765249178257
2.05666615691541
-0.326364313779452
-1.97164011448828
-3.2522183951729
-5.03928394000384
-7.44618788221123
-9.58369836816226
-10.6587825499975
-10.9581077471979
-11.4143941062739
-12.3384843714041
-13.004118729182
-12.635835712606
-11.4872644537401
-10.5765238660104
-10.4226339976627
-10.4485962628482
-9.8389688407298
-8.72422428215688
-8.13423778646841
-8.77739856412162
-10.2335611286428
-11.5970938995499
-12.7136990432209
-14.4046836118391
-17.420070776786
-21.5118158196579
-25.8173125209902
-29.9990573321673
-34.6143797438651
-40.2412619816484
-46.5345614848695
-52.455351042955
-57.3537773916233
-61.486907264813
-65.3515156100479
-68.8029144175403
-71.1832819417346
-72.2847078181826
-72.8192361326688
-73.7108263523116
-75.099041791489
-76.3404691829314
-76.977700256785
-77.3717498933924
-78.1614660410676
-79.2988533275196
-79.9941033322292
-79.6979475631456
-78.8481375870738
-78.3799579894464
-78.6048985680581
-78.8872424584775
-78.5058188776656
-77.5488381851627
-76.6750940894038
-76.0912200130653
-75.1336598790908
-73.0385789981364
-69.9052042967087
-66.5924543696916
-63.6797617226279
-60.8334221889481
-57.3653340117834
-53.2021757933647
-48.9737321591505
-45.1310528793754
-41.3049041965251
-36.7880866054645
-31.5177501483366
-26.2550336180878
-21.7099667616376
-17.7447086451867
-13.6759025165779
-9.24486824005727
-4.95977140356777
-1.3730799583518
1.71310338052942
5.02409597123779
8.84294653656769
12.5724108342314
15.4213603563036
17.335557857311
18.9791963153212
20.8271845209085
22.5850659788461
23.6888977309103
24.1823169024577
24.7623746956209
25.9008353312761
27.1983279829687
27.8473108308235
27.6297063673609
27.1707006685616
27.1427502194786
27.4802945868671
27.6268185681259
27.4523821454148
27.5856924205547
28.6813909354728
30.5627964616459
32.3690379378006
33.5438161960442
34.4245157655553
35.7253716665877
37.6345847647955
39.6934396621709
41.5435323183781
43.4768573994995
46.0175483691351
49.0801634714574
51.8244868050087
53.4125625203574
53.7061304491553
53.0670461295014
51.6385831260109
49.1451825357126
45.4832517886076
41.2480253489694
37.3947241901705
34.4024504775445
32.0095920564002
29.853534561558
28.1464640364326
27.4703827719321
27.962513349424
29.0020165880924
29.8593689342037
30.4786955634412
31.3586525521358
32.6789230744158
33.8328835316867
34.0156534892645
33.1358268386136
31.8872576772379
30.9092572590223
30.1396030937572
29.1735185828318
28.080022958396
27.5140018576474
27.9175182421973
28.8501078813214
29.3508193309376
28.8840911604028
27.6577294082402
25.9536793623226
23.4473703896637
19.5106250324614
14.1472356240739
8.2983809468858
3.03476665363209
-1.37267246736249
-5.31052334711953
-8.80767318229152
-11.0208349439234
-10.9755176854632
-8.67037984826146
-5.13227583447022
-1.33273885764791
2.65654744211862
7.20502604708669
12.0070217740876
15.837832475165
17.6003334150858
17.3999834266216
16.3186673268423
15.197082310604
13.9603252926548
12.2576700493891
10.4529954073945
9.56550867180728
10.174666316885
11.6980541325456
12.9955855837672
13.5510584074999
13.7624621721404
14.0606170225296
14.0944464400717
13.0825379561363
10.8469033184183
8.12546881910999
5.71613373174484
3.56027706728533
0.963973930532418
-2.33879474388716
-5.68024892781524
-8.16940136194923
-9.67945098605934
-10.8272634105177
-12.0138065484611
-12.842785702132
-12.7201094046336
-11.8432162366227
-11.2348847807851
-11.707220230003
-13.0418484230638
-14.3970964987963
-15.3642752394543
-16.2821488711007
-17.4401560208541
-18.2951782965931
-17.8171399468407
-15.5825906273
-12.2312151501717
-8.710593106934
-5.28863992419542
-1.57320684067019
2.57290460437177
6.49629817286457
9.32602449423935
10.8877137589183
11.7433702667783
12.3209019692187
12.3113331209123
11.1387875881044
8.86048553236698
6.27658692616101
4.09188023401529
2.24047205148672
0.253559060631556
-1.86800019640444
-3.50374368801852
-4.23075405830083
-4.51074325079674
-5.27063344022154
-6.85672753298357
-8.69867120266495
-10.1085692174765
-11.1505193934923
-12.4320017200024
-14.1207254149053
-15.5486399470276
-15.9970531279299
-15.6611983789353
-15.5008514202834
-16.1212372059903
-17.1111835462037
-17.6787168474321
-17.7197686010754
-17.8890818116731
-18.5839164304555
-19.2309109318299
-18.8981485022731
-17.4903511600167
-15.96016033865
-15.2163045970456
-15.1201367259036
-14.8694677832454
-14.2557483207627
-14.1177957962031
-15.356185114903
-17.7768218933285
-20.2907205566595
-22.2355294366987
-24.0960592258085
-26.6586470823559
-29.6800283538408
-31.8169690417385
-31.9573830226827
-30.2924037567366
-27.8167144302091
-24.9868159346019
-21.3359698344347
-16.5473653075171
-11.5296079482695
-7.99093037564202
-6.93858918544713
-7.91913636396132
-9.86005613531581
-12.3367579114448
-15.6266306345166
-19.5893766728309
-22.9923136878567
-24.30666791017
-23.0446683170571
-19.9797740389141
-16.0376340022923
-11.3376879383853
-5.58420820800993
0.833323649335174
6.60561259039942
10.5225593384636
12.4459302134035
13.0099796873661
12.5353681801934
10.6697904421609
7.23427618466938
3.07230018150738
-0.339744357255675
-2.09626945986221
-2.34774161198622
-1.5058268735315
0.649770082733014
4.65553993463696
10.2374735957714
15.9923648363199
20.502628144698
23.5663469929349
25.9690624619563
28.1008347831708
29.2717398739174
28.6729125424706
26.693044415011
24.7238194613754
23.5446351390578
22.3371153183362
19.6835267227552
15.3502161323888
10.5807781803489
6.51739240430441
2.81568833164704
-1.7146950405565
-7.28357368857384
-12.5590792590048
-16.1952523010393
-18.4919689381367
-20.983635556776
-24.438846400514
-27.864227604445
-29.8128820840365
-30.253279042487
-30.4942939269744
-31.2554682318875
-31.5038193646275
-29.7211809190273
-26.0028527883152
-22.169087465738
-19.6360009811246
-17.8133380546517
-15.1854200264009
-11.6601692273767
-8.97211674778022
-8.44577735445013
-9.04645981627143
-8.46167967965063
-5.97649462983241
-3.33929817543646
-2.28954787033248
-1.92196189246227
0.422300735344745
5.56075381504584
10.8120320275356
12.7829832657642
11.3788688956821
9.88499832684689
10.7412710620319
12.2962381984398
10.935864672842
6.20095522176092
2.31206508087464
3.59042773046723
8.88201143680245
11.6832804988048
5.94432112712757
-9.24165594851479
-31.1073421741693
-57.8223795404972
-89.2731538236568
-122.475204936249
-147.917120265998
-152.813708668348
-128.56440602897
-73.8004540057034
10.3455122474659
125.592101069272
273.250615610833
443.587752756769
610.036291680529
737.716931754825
800.738291759933
792.462790233669
720.006999942639
591.2882939705
410.38775543196
186.102554029927
-57.999111716344
-286.486671535858
-468.065017037222
-589.941216573894
-657.443349707825
-681.509341020444
-668.335478353259
-620.632193686502
-545.658506980615
-458.444434760492
-375.89157344177
-308.486438568613
-257.944199440693
-220.951832609025
-192.700931759203
-166.808079988304
-135.225119244469
-92.4842118500428
-41.7541984909224
4.81302216942132
34.3452085324954
43.3268783886254
39.6413252284919
34.6695742729335
33.7645722338554
34.4037667630212
32.3505519309903
27.8172830604583
25.0207277256965
26.941451252319
32.1790978985633
37.2299799584859
40.6437905933756
43.8541788351421
48.2809643972036
52.9301343958649
55.549009850156
55.5454047194973
54.7771098593033
55.3180895429209
57.1726421585292
58.7141063584376
58.9822158433646
58.7676304145104
59.2814573890489
60.4097513577459
60.8953093473335
60.0790515895596
58.8070334441693
58.3426046998626
58.7975820528189
59.141378463683
58.6756869482012
57.9566528327654
57.9820959853696
58.8097964291567
59.4848676644968
59.3588077065048
59.0282189211548
59.645095747944
61.4981742256369
63.6877791852652
65.2543187781826
66.2477624893416
67.3771931958884
68.7806845652236
69.5805270322498
68.8136538302713
66.5258704102334
63.6425840901647
60.8378226569757
57.8734330956126
54.1875562710853
49.8655694462636
45.6932944948728
42.2628833768737
39.3413545999154
36.3130669757299
33.0695026789423
30.1661602838868
28.0803515191537
26.5907211246766
25.096216373113
23.4200404274851
22.0161104925162
21.318890572886
21.1226007686893
20.8214315449492
20.187669534847
19.6553517877098
19.7379539629893
20.3455074731155
20.8825364343185
20.9759462971061
20.8736993198585
21.0133572025658
21.3510326005605
21.3317559380574
20.5241297098821
19.0872878406514
17.4903706412702
15.891416774438
13.9965199285262
11.5525929230458
8.79414870142212
6.25556189371487
4.21326294336571
2.48920217521021
0.83528285691019
-0.656325436433782
-1.67827642471151
-2.18848105637168
-2.5854282275843
-3.33006968795614
-4.50187395887847
-5.85348425813997
-7.25988947078553
-8.94523742752649
-11.1864260190701
-13.8995668068188
-16.6700878754688
-19.1973301143454
-21.5830461524739
-24.109566253028
-26.8233760951512
-29.4746495738718
-31.8733432576807
-34.1766234255967
-36.7358497717818
-39.7244540428676
-43.0378026709267
-46.5613034186141
-50.3995895703752
-54.7284051579196
-59.4616706713993
-64.1869934070587
-68.4618889616993
-72.0800084630397
-74.9743068500366
-76.9421914480725
-77.6406450793308
-76.9318209100197
-75.1493519703665
-72.9063228746329
-70.6406077417104
-68.4392540925015
-66.3263321885994
-64.5896647687042
-63.6632586668611
-63.6693628319482
-64.2003573735812
-64.6541353908783
-64.7507226172819
-64.6270135081437
-64.4315312138368
-63.9589021322996
-62.7950853937625
-60.7858909448969
-58.2313232425234
-55.5549110945342
-52.8479218751307
-49.8268293680131
-46.220464321958
-42.0948254053049
-37.7463805432239
-33.3510423700676
-28.832499645362
-24.0990122018391
-19.3320204981227
-14.9740758071509
-11.4516060728607
-8.95856790299948
-7.48718553464832
-6.96437034530095
-7.27296112168503
-8.15730773952301
-9.191084986425
-9.88965021802032
-9.85156452221422
-8.80354922638225
-6.58916120618209
-3.21474322011361
1.06759391834904
5.78849999087144
10.4509073233249
14.7163678629769
18.4036787224678
21.3482780582604
23.3539902606355
24.3391222994485
24.4935832533784
24.2113394615059
23.8360474018956
23.5049094366071
23.2581047668684
23.2386554985715
23.6909136569653
24.7371492990012
26.2153356857537
27.7897187287573
29.1902095688322
30.2752755287598
30.8694752707575
30.6565436588907
29.3530798838856
27.0013718761602
24.0205284761641
20.933971247839
18.0993163382449
15.7560878395952
14.2687917394546
14.151981745094
15.7312541394561
18.7988293597012
22.6978283848784
26.7767530834436
30.702333579952
34.2969677603136
37.1741502510095
38.7132786412108
38.4864980858372
36.6549711735416
33.8501809945185
30.666600951362
27.3543692521876
24.032420813973
21.0813372084715
19.1532018269775
18.7274822671432
19.7223621016605
21.6129466196014
23.8970644109341
26.3585374306486
28.8793645637709
31.1369415200413
32.6450418242597
33.126450325497
32.7633615776773
32.0179246689044
31.2417540170218
30.5224915758422
29.8795490497887
29.4792973694824
29.5569169265888
30.1531181109814
31.0289086307483
31.8856609980335
32.6191878161444
33.301420300587
33.943599107735
34.3674960907189
34.3477592334622
33.8237137729164
32.9000161398783
31.6533890768684
30.0264611892653
27.9658063191947
25.6211425167416
23.325153064633
21.350766268265
19.7287166492238
18.3273211949809
17.0587907847116
15.9271426361737
14.8636067962549
13.5967644598197
11.7768863515416
9.25021332138894
6.1776612138555
2.87219724471299
-0.439809096307211
-3.65984963337434
-6.65351121598464
-9.12803993422718
-10.7301494601309
-11.2610510883869
-10.7698588777272
-9.44707336659814
-7.47326655355718
-4.99913679997167
-2.24725464333909
0.417657430294049
2.54791678795105
3.75138963023221
3.80423443549491
2.6957608918524
0.623699132641377
-2.04945718931804
-4.88178850903655
-7.44692262298604
-9.38269273550065
-10.3949925146801
-10.2942372240464
-9.10475879263985
-7.14862363228509
-4.95389645770208
-2.99432096737759
-1.47659626268191
-0.376668670126928
0.340074444506173
0.590620671396114
0.291810315900566
-0.448374122962015
-1.35604554407876
-2.26053862627816
-3.30362789790139
-4.8150780076428
-6.96474882070035
-9.57582652609991
-12.2996769450657
-14.926424287735
-17.4604018006885
-19.9014015560189
-22.044740961895
-23.5784314332842
-24.3670203238327
-24.5685693866796
-24.4396794688345
-24.0710404297626
-23.3703938844627
-22.2891371581463
-20.9919222214384
-19.7645702969632
-18.797259869933
-18.1173762655045
-17.7199550306345
-17.674480995243
-18.0337896203784
-18.6573890386869
-19.1948381112587
-19.2787936445013
-18.7194420970221
-17.5119643114151
-15.7228081192231
-13.4552515117118
-10.9359775060059
-8.55014102452029
-6.69511779201891
-5.57167462217857
-5.13855279266737
-5.26194030539092
-5.8525035332332
-6.82675942049516
-7.99713392901966
-9.11031642888793
-10.0420124049375
-10.9025819395282
-11.8803745610056
-12.9831368123593
-13.9926345943017
-14.6935642280601
-15.0883011238208
-15.3271717895494
-15.4607667435158
-15.3628867902722
-14.9470275719896
-14.3914043796135
-14.0436488571534
-14.0777615551895
-14.3090298366575
-14.3927164120235
-14.1589874836059
-13.6809798287682
-13.0365847896617
-12.126127800266
-10.8151643548816
-9.21040936175938
-7.67098581950619
-6.49476830510158
-5.65670429847038
-4.9216069915644
-4.16818431438658
-3.49052881523891
-2.95714251488983
-2.38655365045834
-1.48473685757301
-0.182904372683668
1.29847287253364
2.79551514859378
4.52484254010615
6.92878602536753
10.1851663875322
13.9806932587448
17.8320662881452
21.5308459478754
25.1188513965051
28.428279882925
30.8407194947547
31.6878545483023
30.8847714868948
29.0277381305657
26.8099807362491
24.448396484608
21.7878548660406
18.8702733517076
16.1543323055337
14.0437692534424
12.3270385702653
10.3040196627568
7.51555326505827
4.19875690875717
0.913442039186194
-2.16770521832511
-5.39365559218355
-9.04819452859301
-12.8523120181591
-16.2516752376292
-19.1330804600531
-22.0092875438562
-25.3782546641829
-29.0511375953602
-32.3164854629321
-34.7387022003087
-36.5645337417737
-38.22716406089
-39.6313103629518
-40.1958784198133
-39.6145655825226
-38.3070838136211
-36.9103798465113
-35.4376373760731
-33.2184643092237
-29.7434696930915
-25.351836431282
-20.9014346757682
-16.9025734158627
-13.2877713548725
-10.0839611475326
-7.96960603706068
-7.81894629800589
-9.74602301018656
-12.9119641776588
-16.3172779051826
-19.3552594118166
-21.2054080624563
-20.0335317079488
-13.8172816691504
-2.77487154294916
9.20761178919795
16.5318522791375
16.0836006110993
9.56796192501701
1.36709294475564
-5.92631656791011
-13.5048942647608
-23.8999493919647
-37.3056919596946
-51.2452342320429
-63.8869031703719
-76.5349060705904
-91.5153912758779
-107.29169540111
-116.390063599468
-108.797154725935
-77.2317707035438
-18.7849971127958
67.5849128272709
182.468226816614
322.162001952627
472.671567674008
609.35494485766
705.556895438982
744.086620048881
721.644841798839
643.25417361254
514.157211398191
338.866332701965
128.333774296052
-93.8306563195764
-295.2543101687
-447.83797942199
-539.578562930479
-576.047501935278
-572.303763843076
-543.739644960674
-502.516089071539
-458.535661534286
-419.706729811833
-389.492507809743
-365.121390823946
-340.123726758566
-309.764511961439
-274.049913781956
-235.398562424168
-194.140374427031
-147.56232752488
-94.1190411726808
-38.2458071848888
10.0458494804219
41.4431362718844
54.065659829094
54.6202919240859
53.1845555504726
56.4486832948304
64.9019030974424
75.1815541856796
84.2716224364141
91.5594486659811
97.7465040739997
102.761118524161
105.222278491005
103.875097883848
99.2651175079975
93.7929162470269
90.0205353255098
88.8222945616013
89.0546275341374
88.9136503028499
87.5863599788435
85.6704517534629
84.1728233483492
83.2933770474735
82.2587981027115
80.2312448722257
77.178791628241
73.7695018876146
70.5394982249868
67.3736592749018
63.859390042512
59.9883156633
56.3193636291011
53.4574764811739
51.5589566882811
50.4748562136907
50.2687685049368
51.3523494959167
53.999479845736
57.8347772958195
61.9510685704521
65.5240828154235
68.1915114394202
69.8215285201908
70.1210913279811
68.7260586576996
65.7194161181815
61.8726349317197
58.1872164556081
55.1901952419409
52.7690392155342
50.6691070131303
48.9649946642626
47.9025317514158
47.372196664513
46.7818254595667
45.5767575757547
43.7861035672038
41.8995830753705
40.2146650413159
38.4639675892149
36.1705155113448
33.2535800609238
30.1154972018372
27.143440230402
24.3244919747276
21.4948973110353
18.8690873802881
17.0866242904823
16.6266332237065
17.2761496165674
18.3011034839665
19.0955945324477
19.5093688137807
19.5187204305544
18.7911057405522
16.8271382049688
13.5653630000512
9.66073498553777
6.00537377723644
3.00947961180615
0.472602246792153
-1.86468715414696
-3.84251685800759
-5.09278634348903
-5.62542626061712
-5.97126709755891
-6.64398185302317
-7.59096070992139
-8.34697261372655
-8.71553512926205
-9.12576180548442
-10.2213012772147
-12.2046339703042
-14.7428849780702
-17.4934993780746
-20.5146498758523
-24.0126529813435
-27.7848677687383
-31.1462013486807
-33.5152347105527
-34.9775086426793
-36.1520939301012
-37.5492052762296
-39.2098436771284
-41.0033742737437
-43.0903646097126
-45.8702000534462
-49.4515088208184
-53.3504527798375
-56.8604591782179
-59.6884409018751
-62.1157778260334
-64.5404559441185
-67.0065972487154
-69.2776649057104
-71.2665929715426
-73.1891580443315
-75.2180826888363
-77.1081098011706
-78.314005617841
-78.4824914723375
-77.7239089919806
-76.3738619603453
-74.6107147684274
-72.4300253169406
-69.9435660223472
-67.5169708233926
-65.5028185315543
-63.918344332238
-62.5302862755816
-61.2685742681075
-60.4242540642242
-60.3456112561103
-61.0077153875893
-62.0104755392535
-62.9989930816276
-63.9343233662685
-64.8401221835149
-65.3723772966993
-64.8471997937073
-62.8001501237172
-59.4440698289956
-55.4676497538683
-51.4060652711435
-47.3200693251964
-43.098339768623
-38.899169746744
-35.1027645240448
-31.8282959700766
-28.6762936854741
-25.0892779138754
-20.9306513563949
-16.5968137491809
-12.5650406772912
-8.9684278747857
-5.69319375297957
-2.77093839721516
-0.463416676610365
1.10042852630346
2.21678461436136
3.36208388544935
4.65785917215459
5.71521492486045
6.07386256310372
5.69605577771145
4.91703455766796
3.97971668844821
2.83431086278782
1.51491531018712
0.584680328395393
0.9654517075179
3.21582485911114
7.05219021000561
11.6609497545807
16.4086550367861
21.1082915551953
25.6135254988309
29.3952219175179
31.7657723707993
32.5427086884373
32.3188549654376
31.9515865508205
31.8415419901976
31.8221108352171
31.7105871307029
31.7670555777765
32.4804376147391
33.9981877077692
35.9673257995354
37.9944481221169
40.1124708265699
42.6330295297556
45.5666228050953
48.3578055886335
50.2850719744334
51.042770753227
50.8273914168821
49.9144518076142
48.3465022154637
46.1414866028911
43.6859582549436
41.7001707695786
40.7156744339907
40.6549588122819
40.9959643620923
41.289465616996
41.4055431583648
41.2997521724381
40.7316337087837
39.3890085509333
37.2736443337727
34.8106745329828
32.4855657919821
30.4264632870775
28.4167292778102
26.2636776902833
24.0180466771111
21.7975257380609
19.5386355488451
17.0924052620637
14.5679906025848
12.4304126101584
11.1484260072677
10.7974506947943
11.1172622378654
11.9417240833305
13.420606824225
15.7250007932995
18.6336652008255
21.5936176900816
24.2357406817977
26.690259737697
29.2511827336051
31.7675832080622
33.5317901335203
33.8512981561606
32.6461144398857
30.381283303761
27.4751021724092
23.9604192657325
19.8090216881215
15.4392957637059
11.6688563080096
9.08246399643148
7.54771228550914
6.4477504624292
5.32793268170802
4.18943294179535
3.17482063537398
2.17936255853317
0.958871628092499
-0.423318898200197
-1.46725361821403
-1.68026094922471
-1.08153311486844
-0.147588901844877
0.71733219424385
1.51129567971733
2.38774562389457
3.23651286132719
3.71857703498161
3.74185373067869
3.72146485332908
4.19753293004841
5.21444095427769
6.21313519644187
6.5771648255529
6.17551887127844
5.28372956262346
4.07973520538906
2.43830590851785
0.308616408357761
-1.85587522977621
-3.25720600813561
-3.39762077379002
-2.47133069986313
-1.06757175059844
0.410753552122172
1.914804437303
3.40792221247697
4.59290459926303
5.14502729290609
5.146257168104
5.09231755495936
5.38559512892951
5.91315052234957
6.217124636681
6.00748341082985
5.34872607588247
4.32729271033549
2.73119434998951
0.261469808853242
-2.95362364798558
-6.24862625793371
-8.95308348563383
-10.9707377850028
-12.7127518430759
-14.4897042908159
-16.1391091649398
-17.3338978350563
-18.1114063096639
-18.8718261984095
-19.8098344848418
-20.5265498257532
-20.3774157311432
-19.1729177844087
-17.3810066777409
-15.6003220882295
-13.9826811428971
-12.3054309343989
-10.5156372820868
-8.9538957699641
-7.92396261430902
-7.18905622880112
-6.11921424445605
-4.37628487532398
-2.30154225136705
-0.527332520414085
0.684098074887888
1.54733092682529
2.23483593482793
2.49392148338452
1.96251463472236
0.776754290654228
-0.380896382680259
-0.945921394090007
-1.06008150343681
-1.35787658203542
-2.23275343538471
-3.50892664156993
-4.88200128288556
-6.46530811595571
-8.65071251197929
-11.4401059938716
-14.1670073416917
-16.0670747941876
-17.0468587543952
-17.7016576601834
-18.56703821945
-19.5540260378122
-20.2512768081298
-20.6227417186895
-21.1080267169156
-21.9451637622885
-22.6171171226758
-22.2265529748743
-20.41581866618
-17.7128086569923
-14.8837665498583
-12.1245508506492
-9.09842009106661
-5.69703636208851
-2.44487508830494
0.0493538972190777
1.8943010765073
3.87810642978861
6.5598235838565
9.60627073939722
12.210969856711
14.0614858050105
15.6325738308522
17.4736883618969
19.4673252986187
21.0464668172472
22.0616001636154
23.0950780868523
24.7253185891098
26.6349357407068
27.7051117983988
27.0024020948674
24.4529220664785
20.4589124877523
15.1181345479098
8.18619608988047
-0.154893966860771
-8.83349239965297
-16.50735634219
-22.6084774042769
-27.5410197057719
-31.8258255287116
-35.3472892613361
-37.6898795949247
-39.0454084907619
-40.3452354478829
-42.2878828926
-44.4826361324895
-45.9045423973513
-46.1830345945085
-46.0950781193765
-46.5933843558422
-47.6001424947154
-48.1426106894325
-47.6681935236687
-46.7903014298571
-46.4143663985392
-46.341824699073
-45.2336554226504
-42.1178399444942
-37.5944526980797
-33.2084085654847
-29.7850894947479
-26.844984788637
-23.7697396721543
-21.0624101174514
-19.932308361857
-20.721262991051
-22.29566791861
-23.2158709462511
-22.9985270153413
-21.6259312928924
-18.0739473566997
-10.4588405967026
1.47530910017197
14.349810799396
22.792345103706
23.7995466033509
19.1019622892656
12.5104581423589
5.08927632802049
-5.9974810558339
-23.2253575168401
-44.0720370239371
-62.1080005255368
-73.3011376880662
-80.3071201810858
-89.1298152296918
-101.184689508188
-109.367185127036
-102.302282182773
-71.5935166580186
-13.9429666345994
72.7628558982982
191.830941390082
342.335816397308
509.986226798047
665.373197418509
774.864391302626
816.29555135273
786.025254497725
692.699607725443
546.629045601049
356.817710784348
137.225246071438
-87.7713279601915
-288.091966409576
-440.453173845756
-537.300233525164
-584.732647247412
-593.551056534434
-573.213696726025
-532.643203595619
-482.750364196613
-434.461712522675
-393.372442350282
-357.746512501824
-322.994261292307
-287.604473831111
-253.451666890599
-220.469138390321
-183.215942099173
-135.182346687286
-77.2317299655707
-20.5795905466008
20.276377818789
38.5332952966899
39.4646008091033
34.5484314280796
31.9582291443342
32.5939547834349
33.7715662389805
34.6636217475021
37.2300041240947
42.7937879852141
49.4037362274795
53.3540941996365
52.8369153502425
49.4537998492336
46.3000257862434
45.2619710943937
46.3709789251653
49.0365291191303
52.9575516030239
57.7024519981643
62.1672377568426
65.21083573957
66.836240799111
68.2306765341408
70.3553119121272
72.7307383704781
73.9247870048509
73.1359179913966
70.9167362282135
68.2291666053454
65.1527387078185
60.9440938031608
55.3499594446231
49.4635215559226
45.016511306345
42.9615569823518
42.9975293998459
44.4049513941388
46.9427609907207
50.6609107349846
55.0356424898952
58.7391086940973
60.4828495076902
59.9534844160746
57.7560159677622
54.5576168477479
50.5619617255893
45.8654298317128
41.0157227264844
36.8722564679619
33.8914447774654
31.7929502467498
30.0744689301509
28.7103970598119
28.1298785170906
28.5401922052626
29.5309194119779
30.4974997227199
31.3025769561549
32.2649876541839
33.4801525407191
34.4081042313162
34.349119046248
33.2521882659656
31.8189122306757
30.7370984595997
29.9864356331991
29.0586940256403
27.7519622080863
26.4717078139622
25.6449823866303
25.0427343740649
23.9507129406387
22.0343372919314
19.8271348604688
18.224567633098
17.6027851991199
17.6174666816642
17.8366801578846
18.3122671851286
19.3435685779442
20.8000778609603
21.9688761341497
22.2024534127725
21.5828642897212
20.7775424051594
20.2823630656191
19.9934312969803
19.5701329260661
19.0096745700427
18.6228111950288
18.4576218385552
17.9991703488103
16.6299752930263
14.321992499556
11.6916280218508
9.34312760213279
7.31856885153845
5.30186976053966
3.2256918150993
1.42155132797707
0.0975039655613053
-1.13662075095518
-2.99638171311465
-5.76725540051615
-8.98350286157657
-11.9386947224384
-14.3980000767422
-16.6667522731156
-19.0242456422374
-21.3320070379699
-23.3429169014497
-25.270729244388
-27.8109040426934
-31.5118289214431
-36.2438398581002
-41.3951091303319
-46.5079968877159
-51.5568728518608
-56.6012598607595
-61.3860198675857
-65.4875456753256
-68.8132852686793
-71.7406799735438
-74.6457045739721
-77.3999357611487
-79.4848758053421
-80.5704952960515
-80.7963618649231
-80.4021320808605
-79.2452954239798
-76.9170764750443
-73.3613450118948
-69.1770106014829
-65.1369515385763
-61.4709886591321
-57.811198735857
-53.8833144452217
-50.0691401175753
-47.1105041611028
-45.316741113345
-44.278608314659
-43.4423020218559
-42.7810503894887
-42.6639487855191
-43.0613671348445
-43.1174505385583
-41.7058157806362
-38.3714087719204
-33.5837686820891
-28.0857020992631
-22.2184528942308
-16.0532500003619
-10.0550092725475
-5.28384053846406
-2.72776835231247
-2.49124998935552
-3.78582239961736
-5.70547842547342
-7.85232586305681
-10.1502365410054
-12.251732306623
-13.4238326406544
-13.1118443052826
-11.4589146293418
-9.10237843210167
-6.49320709669979
-3.57666767153652
-0.181621321871901
3.44232467735653
6.6516417875577
8.94981596418849
10.3408486399708
11.0847089875536
11.2503396000076
10.7033531938881
9.54550250907752
8.38968267381576
8.0498955054301
8.97761252993875
11.0864925441842
14.0873471639306
17.8181603427832
22.1394753119771
26.622419383486
30.5728572194031
33.4794001545506
35.3702526836873
36.6410095597766
37.5799677335154
38.1817037609942
38.4199360716337
38.5215102390458
38.8010060787022
39.2553464729432
39.498948271221
39.1974842482774
38.479932790249
37.7971633095251
37.3995539568918
37.1037820784452
36.6353245948467
36.0619473377378
35.705430486696
35.6263190861225
35.3862254880962
34.4667976571919
32.8568382082951
31.0523299965147
29.4376838719308
27.8161213969599
25.6828438047078
22.8864209024117
19.8238230651798
16.9247972497385
14.1209723077863
11.0346142269719
7.68648782375953
4.81285155712411
3.33076090405989
3.54509813336134
5.00962859621971
7.1343907474737
9.72531095896002
12.7983920741822
16.0000926373605
18.4926394409228
19.5523166745935
19.1866389884473
18.0266552003249
16.646850906334
15.1428456067892
13.4030772724517
11.5961060262338
10.162059555022
9.31665099292631
8.76199570956577
8.03349535427861
7.06037787316624
6.22231241590241
5.84067745980579
5.77700563137412
5.64995172835711
5.34860322391874
5.13132594314405
5.17469394830354
5.20247020039288
4.74402059486307
3.73429971571048
2.6827864046662
2.16616447895915
2.26283110970313
2.61541042840222
2.98788864308343
3.55219104775387
4.52364461410427
5.65328994583247
6.29816290715412
6.0397373930787
5.09172209184963
3.9933330319882
2.99243675177534
1.89749960972081
0.538197181112161
-0.824930851590675
-1.70923626210561
-1.95899421360884
-1.89221835234247
-1.83829796696237
-1.67740951021705
-0.998641815534672
0.323632376767158
1.88911456675893
3.17386669225361
4.03353017512761
4.64888827619945
5.02520082059412
4.77546576082007
3.54255574401769
1.53637034217719
-0.538594838592246
-2.1202072552242
-3.21190487267067
-4.09494741693127
-4.76614685479234
-4.88618474785534
-4.31760275036561
-3.50877817254342
-3.15020707330536
-3.4874971562183
-4.152993097274
-4.72261360628322
-5.26543640843624
-6.17349164206131
-7.52125278998705
-8.83512378279485
-9.60575803426822
-9.86972721825591
-10.0704383910379
-10.361105901144
-10.2789579210949
-9.26044387650433
-7.35983315100869
-5.24068157038334
-3.44419691296045
-1.88610918152832
-0.233536920071376
1.3613066167678
2.19449497925353
1.77279583363703
0.45128695095578
-0.899909948396214
-1.81962283991571
-2.62906892723354
-3.81993532605462
-5.28930497894145
-6.43183658490579
-6.95546165800707
-7.32018768197462
-8.18390864685621
-9.54534719587142
-10.6878045750789
-10.99928598061
-10.6186687518642
-10.1071486546049
-9.63223138212051
-8.77483453927007
-7.20967501626957
-5.31638318158162
-3.85142512455519
-3.06623666873739
-2.42595243388892
-1.32164632726394
0.136426390827339
1.27419487174311
1.73863868651297
1.920291124041
2.32863467530746
2.74334246939435
2.30768808754718
0.520267880420143
-2.11672850760213
-4.63431988366257
-6.65319879745372
-8.6340614880076
-11.0476999988558
-13.587162689964
-15.46606749627
-16.4051468842325
-16.9977589245036
-17.9547389211085
-19.1881757848608
-19.889616984183
-19.4549721933529
-18.0386806527331
-16.0772569588355
-13.5253969073927
-9.9072962825212
-5.13902230759301
0.00397109722620925
4.44123364401073
7.65281051050169
9.73197351810066
10.6348475198346
9.77344665554375
6.64834623751749
1.74336638576769
-3.57253803250658
-8.13472174960268
-11.70983945428
-14.4329856282179
-15.7637865371247
-14.5045255755852
-10.0657604430571
-3.42350496084088
3.5575172947794
9.71963328518971
15.1823919867951
20.2179363987539
23.9806851240676
24.8963116010185
22.369302829357
17.6545584060052
12.6793618987137
8.18493695443448
3.45877708193696
-2.08444386518383
-7.59442971570751
-11.5167151906043
-13.454791094928
-14.7217682069386
-16.7919775568105
-19.5918818884963
-21.8079324361043
-22.7780742509419
-23.4636145668277
-25.2058841998667
-27.9083250479429
-30.0803342445078
-30.7342234445658
-30.6366646427766
-31.2156161269245
-32.5331089651841
-33.0448934107728
-31.5538044636202
-28.8118839612729
-26.5962916699534
-25.4149289916022
-23.9137851444018
-20.8925495417471
-17.3113549852261
-15.4967063794645
-16.368257390468
-18.2520945404296
-18.954241823487
-18.4930190109286
-18.836957505359
-20.8007859632562
-22.1349587010752
-19.5988372367342
-12.7284556547936
-4.58151378150622
1.64611327761643
5.96890362762086
10.6592542274643
16.2027134498591
19.5226939318202
17.1345114953121
9.50746974460021
1.03390808843364
-4.65758568101229
-8.34893324302324
-13.3179323976352
-20.4544090828828
-26.9946870678623
-30.8732347673868
-35.0436443750571
-45.3668108486196
-63.4066003627967
-82.2878071197838
-90.7215921727137
-80.5868980108274
-49.1098152988548
6.33337797476659
92.6665212562429
216.376385899427
372.09352297471
536.558138303124
676.215948950221
762.916575644375
783.911212692045
738.998065179262
631.496221260693
464.961986002905
248.879262739194
4.87517649174949
-235.959654760543
-443.924094883721
-600.245032162708
-698.268742824107
-738.833048519378
-727.096443028529
-673.312443998909
-593.185896298084
-503.760838181713
-417.356104159275
-339.5804295327
-272.812273401521
-219.676139897569
-181.2645512693
-152.418487495508
-121.673615590831
-79.0341285578212
-25.1063177787903
28.0731286993778
66.3418706334809
84.1888645697824
86.9720520385135
83.7322447529678
79.1092577808292
72.3594500999961
62.6725565224661
53.3785231831323
50.103763458391
55.4885383911689
66.6390804694559
77.7424769864982
84.5454057618066
86.299018445634
84.4947361934853
81.001272605413
77.5202660675299
75.6324545067111
76.0834853616053
77.8166614844785
78.4367440417131
76.2678460561745
71.9301644907302
67.5904720815079
64.6980378595931
62.7847510076851
60.5387086154451
57.6055306250229
54.8816793636818
53.1590037336379
52.0539224807687
50.604410437483
48.6347093443888
47.0227015430995
46.5352867776722
46.8044623946269
46.7883171906931
46.0728161377664
45.2845654007509
45.0978683737753
45.1815346766631
44.4905554226443
42.5290635057367
39.9525931045007
37.7606626530552
36.1555506146434
34.5250261412704
32.4979931668312
30.6324709584444
29.8181756514986
30.1764286826545
30.8842468475478
31.136486402254
31.008887028945
31.1661077346246
31.8758528244706
32.6413954220888
32.8875503161811
32.739439403227
32.8495025395351
33.5133901319868
34.2454983306008
34.3581124895546
33.7708341306983
33.0078772158353
32.4366627058311
31.7864324605933
30.572916075782
28.8256824730694
27.1112430139123
25.7911695316716
24.4861697259055
22.4690245566678
19.5090092727051
16.1107027874066
12.8803392511957
9.87199755262638
6.75955925532284
3.57498371991413
1.00039309627564
-0.224198707295304
-0.0689554794461671
0.786058632057124
1.69768046249674
2.61532074681007
3.79965281975238
5.14693908538943
6.03829247853079
5.91812754002421
4.8569035560842
3.38898318577749
1.85453064665639
0.0863592202542982
-2.1954528068348
-4.83226878296138
-7.24093649148739
-8.96357487794535
-10.0510214829807
-10.8339985001272
-11.4417196116902
-11.7209697593559
-11.6397050183522
-11.6055692327631
-12.243437805405
-13.881717347158
-16.3621172823615
-19.3572320310237
-22.7430915777463
-26.556578733422
-30.657235998885
-34.6109071474575
-38.0043519295575
-40.8132796722098
-43.3603191791096
-45.9180625140429
-48.4502015257767
-50.7809533648022
-52.9249641740229
-55.1274124315553
-57.5720564788575
-60.1564603560844
-62.6328025237367
-64.9223279587534
-67.1856451614115
-69.5557184784308
-71.8761686611032
-73.7683983885019
-74.9238060610859
-75.2535330607735
-74.7566699892607
-73.3566033021988
-70.9772169528931
-67.7700488215356
-64.1617764088437
-60.6042748689691
-57.296463307747
-54.1902126915527
-51.2304529352247
-48.4907405368569
-46.031737938355
-43.7075012836561
-41.2378491033639
-38.517432271855
-35.7937870352651
-33.4706389640949
-31.7390389753096
-30.446639190361
-29.321882681959
-28.2468301667523
-27.2480991453383
-26.2630501736405
-25.0312917793678
-23.2896454087169
-21.0445642419452
-18.5822202062775
-16.1928872284186
-13.9243517316641
-11.6186584879799
-9.12746511292462
-6.41263698058171
-3.44286493137673
-0.0966717180521446
3.73016374922772
7.9163498509494
12.0857296177362
15.8367836198634
18.986608158702
21.56286086092
23.5957441941644
25.0110957293444
25.7758584921745
26.0866380112915
26.2957749329326
26.5866559766604
26.7543555553465
26.3723811606669
25.1945201244697
23.3669494924615
21.2471146590281
19.0815156862771
16.9379362302375
14.9515295074904
13.541937181819
13.2790574986535
14.4920784284917
17.0286935548384
20.4108215171618
24.19707662469
28.1612829207056
32.1441296866359
35.8176295339391
38.6757550375283
40.2762548431622
40.4716766291229
39.4051972280405
37.3266184644153
34.4596193612886
31.0419625406688
27.4340174528959
24.1213834589323
21.5746847769777
20.0829709306104
19.6796143425191
20.1726924602537
21.2241927021503
22.4431018709981
23.4863992882544
24.140707142687
24.338337414639
24.1091739915899
23.5365651843957
22.7657089616635
22.011641291935
21.4729187029786
21.1676325909441
20.8531608011429
20.1632718701801
18.8786813232265
17.0810556458337
15.0475900438393
13.0267467082189
11.1612162621032
9.62472499077236
8.74786690150012
8.89465544138105
10.1588311031095
12.2103097856022
14.4972672257669
16.6189734024587
18.4889805548376
20.1515889417438
21.5130146651502
22.3256089986339
22.4316890091706
21.9451601362314
21.1277510345374
20.099103920495
18.7284562124685
16.8348500489381
14.4525803438529
11.8550534620965
9.33538843776752
7.02209596903831
4.92440260752306
3.09165132117301
1.64695714138572
0.66022477551187
0.0619876172669551
-0.258344791904025
-0.292886266561393
0.0821204236743647
0.932066106959098
2.14837264825738
3.54899871088135
5.05168715439426
6.66073837259224
8.26078593956855
9.50942594297175
10.041923003121
9.80274445452415
9.10754487315945
8.32535152625059
7.5300651474787
6.52196154710189
5.17164817055378
3.63966791449408
2.18680670274751
0.824194632631666
-0.71729331830176
-2.60281889061227
-4.53138178879954
-5.8426525875995
-6.00028801983799
-4.92984478545828
-2.89194086106479
-0.136965034273025
3.1936982779409
6.83409252066544
10.2079689046447
12.6219313472677
13.6800429569199
13.4718295140657
12.3580818242609
10.6489751353704
8.53661245275681
6.25665679973071
4.14963833861238
2.46984648040947
1.18326984333325
0.0515375425448852
-1.07022707135379
-2.08707823075963
-2.84449334243477
-3.3809862229531
-3.90810297399444
-4.54997752182664
-5.2131222519842
-5.78813605147869
-6.41995871656613
-7.45095934401604
-9.04740862076167
-10.9489635825913
-12.6595670781691
-13.8614414830422
-14.5682885865852
-14.8840744625817
-14.7432285279138
-14.0112336782642
-12.8215143839767
-11.6827189820423
-11.1649842623293
-11.5062697587575
-12.5736679855339
-14.1559569739072
-16.1649823676945
-18.5010621895247
-20.8270167637091
-22.6217808200137
-23.4838843637956
-23.2945185470951
-22.0424091539301
-19.5975080818865
-15.8096271731415
-10.8468535024515
-5.30560489229305
0.115801598551462
4.99733354946761
9.14362678761742
12.1932346234831
13.5015320271625
12.6068705341531
9.79181094482857
6.00816428612583
2.15219691812733
-1.5055592325615
-5.090717547699
-8.45131373357817
-10.976327394623
-12.2142807915696
-12.5213359032506
-12.8387442053207
-13.751170012711
-14.9091200572219
-15.5005750513201
-15.1866882933781
-14.3661067393393
-13.5069483351148
-12.4762606096869
-10.7803536681424
-8.42521504145677
-6.26646871924402
-5.33507547771641
-5.91538391735345
-7.46144824246836
-9.37454134777543
-11.6044189025716
-14.3344992670534
-17.2496565285111
-19.4353535890571
-20.111040252612
-19.2880551585143
-17.5311197610212
-15.1683146976099
-11.9946378239632
-7.8320624230905
-3.16060113544244
1.05500908411477
4.14306653943489
6.11193519276191
7.1970336648271
7.26129025213335
5.93308234947739
3.33839200047017
0.427419905730488
-1.613666919638
-2.17807565924507
-1.30488819065786
0.954598349657328
4.87172887330073
10.5187496492572
17.0926728935449
23.1263700968587
27.5058370908352
30.0983189112978
31.2417896659251
30.8379770365075
28.3362569854398
23.6861093876217
17.9367781573676
12.5068940044
7.89542364630999
3.45819971321498
-1.41224450660972
-6.20585566530482
-9.76045043009589
-11.7233463054097
-13.0886134434231
-15.0214562890819
-17.4343820660629
-19.1909974039742
-19.7326391387073
-20.007998319229
-21.4084686795137
-24.0087066123492
-26.4003759605297
-27.3957580879951
-27.4193212485913
-27.7599729806076
-28.661587010677
-28.8248885692883
-27.0856038406327
-24.1064452834261
-21.7731580900187
-20.957427357428
-20.5465594745617
-19.0776908725505
-16.8613656721809
-15.7094477037962
-16.4958524934276
-17.7758194507779
-17.4737662600438
-15.5841584664036
-14.2587217716738
-14.9248659571111
-16.1312064957022
-15.1882177669341
-11.7970341845815
-8.95713246282526
-9.61371654818398
-13.0409980583547
-15.6679471929332
-15.5809854609749
-15.0293256970093
-17.4496480674754
-22.4930719115181
-25.5056731936269
-22.7159974576168
-16.2013691855604
-12.6490825490328
-17.3697966141514
-30.6849160923063
-50.4049526348796
-75.9428643326212
-107.42929159961
-140.279473157735
-162.893006351564
-162.384129053497
-132.934856493875
-76.7140139546885
4.33724049408555
115.300783299082
262.674408632051
439.421601535838
616.72751308633
754.150774011416
821.189446615291
810.73385391786
733.131892609688
599.971666992572
416.482100159946
189.906366358038
-58.112633379972
-292.070103161955
-478.401511648768
-601.820955049356
-667.064003962646
-686.651386339685
-668.844156362613
-617.01222763941
-537.459521595198
-444.219406086924
-354.7411696218
-281.379362427356
-227.105513975821
-187.693460498253
-156.011980041737
-124.597362972804
-87.4215376275341
-42.9024629651739
3.65660126052412
42.3010767582937
65.3817286959931
73.2355660036622
72.7492827100235
70.3117837460383
66.8462596658503
60.0332062320224
50.3324510428097
43.0896404245202
43.9551522226475
52.9611661827358
64.1733566189896
71.2681905121002
72.7792015921308
71.7428368260408
71.2291287128938
71.3876817774579
70.7596849775424
69.0878629138468
67.6618010720522
67.1696027521756
66.4346085237735
63.9435120066693
60.0778718161342
56.9362536990761
55.8531580018492
55.7977844842007
54.7087040725399
52.0425920178212
49.3367575486565
48.2233540161258
48.5482020845348
48.9171316686748
48.7341222850483
48.9486321233088
50.5929534694595
53.1532663237583
54.9689058079093
55.1166829608948
54.3064264161595
53.6883018982536
53.2349297754274
51.8447282827747
48.9611817396292
45.4992220685102
42.8440905812209
41.2741886742184
39.898905026664
38.1520425566435
36.8048171008024
37.1127214065665
39.1968492363778
41.7776418591431
43.5995802562856
44.6814961254661
45.8015678894191
46.9866556719644
47.0903521349977
45.0883281218254
41.4271070027572
37.6524832168532
34.7543164852543
32.3003562655053
29.3771103455515
26.0189768159334
23.2356812744508
21.6422676410704
20.5417218259748
18.7066239278071
15.880394081659
13.0882488418181
11.3934009061919
10.7078486546791
10.1209358821609
9.20173894137825
8.5148995780503
8.70500915805557
9.41981319088711
9.53492335993179
8.40972864583967
6.55960816957791
4.91692140388248
3.68830464206231
2.28036005512501
0.302261369677197
-1.75950388589799
-3.10927008592302
-3.67596924707705
-4.20995827984667
-5.29460734800655
-6.57006791151836
-7.1862184637759
-6.88329650938883
-6.29045816167556
-6.08604576772735
-6.16384148874531
-5.91419456520322
-5.22600120926895
-4.84737925775034
-5.58514518592225
-7.35507625062446
-9.30024372775765
-10.8171018682635
-12.181731172401
-14.0315286408311
-16.455062374495
-18.9064631818342
-21.0245383968339
-23.2363509360272
-26.3322879330569
-30.5659085049571
-35.4345847262698
-40.3714259746709
-45.3916219974984
-50.8558555889636
-56.7305063883319
-62.3810911411706
-67.171575355189
-71.0277301316618
-74.182759263569
-76.4703325534307
-77.1898007961894
-75.8201631360272
-72.6975076988617
-68.7753700306632
-64.78303206277
-60.8871013534816
-57.2626302113799
-54.7043361079108
-54.2837282864989
-56.3113797440982
-59.8634801414792
-63.5169739968143
-66.4483750474861
-68.6116114132986
-69.9147746714046
-69.6160007543541
-66.8559774278043
-61.7144337705673
-55.4102649532609
-49.2858951103331
-43.7387882372768
-38.3337623743526
-32.8515225022362
-27.8877502874541
-24.2534083817712
-21.9936757340876
-20.3209950191475
-18.5604684202433
-16.9035353718741
-16.0289215634096
-16.1060024844999
-16.4567523917272
-16.2726949915541
-15.441851571572
-14.4616751911076
-13.6372871295833
-12.6588457262094
-11.0823430886667
-9.01377781670278
-7.046654083451
-5.52239098911267
-4.0903152759944
-2.14237257886953
0.45355611550962
3.26398187427734
5.90416620163007
8.48589732330211
11.2884747356739
14.1268704222001
16.33095149564
17.4447428346509
17.7735786789448
18.0638033196933
18.7040970529705
19.441571547228
19.9177541736258
20.2594498523359
20.9158281491908
21.9647855221653
22.8472547591339
22.9478662813647
22.3279294216629
21.6925458231374
21.6359136473438
22.1062820634353
22.7080240841485
23.3584260726033
24.3873308783347
25.9531929859073
27.5921790384099
28.5652138334931
28.6213088487778
28.2329452028167
28.0204651901943
28.102787829444
28.1662621753926
28.0813699217436
28.1917649661711
28.8681325458208
29.9260221561834
30.7161361656188
30.8282418155923
30.541347926337
30.4590158258775
30.7911544545896
31.1632505283239
31.1313175666604
30.6894928830305
30.1237455759617
29.4643352479579
28.3241417822414
26.3922271324051
23.9802530890039
21.932147707475
20.9967827300769
21.3924842529063
22.9764136648155
25.6389493213361
29.3261744596676
33.6913206541304
37.9403793600698
41.2018234393565
43.048169469211
43.582306987091
43.0565465862162
41.5640293004415
39.1734273254594
36.224797357114
33.2721169505661
30.6638553936862
28.2961794881483
25.8911616070134
23.465908347284
21.3891330469898
19.9490763531009
18.9923224580104
18.0910057351162
16.9901199346406
15.7232824068901
14.2575864533844
12.2030104422928
9.07558866670448
4.86734017287106
0.220821291958954
-4.03934539920661
-7.47066334302686
-10.0283585977298
-11.6236316996018
-11.9166419492342
-10.6986298512499
-8.37597053662191
-5.84694232804961
-3.79370316392222
-2.17415834156137
-0.49294159755461
1.50777952017668
3.58238725939474
5.40486327594241
7.05254104094621
8.86706063530751
10.8513579978297
12.4014258090948
12.7757847042025
11.7807897555893
9.87904618068211
7.64452642190614
5.26425570039968
2.64940948438559
-0.107337500154207
-2.61363109800351
-4.5785284825962
-6.18278582923162
-7.88838171140997
-9.8916481825001
-11.8951571131993
-13.4637248163679
-14.4877853158665
-15.1763273632594
-15.653750376529
-15.7590300698171
-15.3462768817017
-14.6733739393962
-14.3030178394782
-14.5612649852837
-15.1926984759636
-15.632740025489
-15.5604613630372
-15.0747166567478
-14.3533332987996
-13.3208834923341
-11.7993941408844
-9.93582738064605
-8.30008154631325
-7.45621271429263
-7.48880903373647
-8.02988532844734
-8.70703734760208
-9.43914507253636
-10.2644415594538
-11.0217547716149
-11.3699373656314
-11.1305710245467
-10.4725170750082
-9.65899421361253
-8.6716587316782
-7.20584278047018
-5.05065418336906
-2.36994648219664
0.450801004085342
3.14029951006463
5.58391226853059
7.53973833650129
8.4965922372212
7.99524860046832
6.10419910109701
3.47007059388889
0.846995129287555
-1.35787322823486
-3.03362226100516
-3.99716927253323
-3.90910232018861
-2.66705646087355
-0.76819286794035
0.916681734639494
1.80158089934526
1.95027648977037
1.7509092087499
1.33836744195892
0.482850929480947
-0.969314550703642
-2.74249304439686
-4.38287436584389
-5.81785876356129
-7.48744539831904
-9.83053920435368
-12.7298699249801
-15.5850814226056
-17.9067233103534
-19.6986330088167
-21.2107718761207
-22.4675275101287
-23.2323266992986
-23.4440843678615
-23.4996074974595
-23.9405580976705
