Value(bpm)
75.8518518518518
75.9522877706635
76.0514049625228
76.1476029850432
76.2392657920279
76.3247632608237
76.4024534236974
76.4706854150458
76.5278031416374
76.5721496771266
76.6020723747986
76.6159286839186
76.6120926452559
76.588962030439
76.5449660779437
76.478573765929
76.3883025490866
76.2727274734675
76.1304905702601
75.9603104171161
75.761059741343
75.5338324446895
75.2822549833597
75.0100603267244
74.7209218067567
74.4184361022268
74.1061099796543
73.7873506331699
73.4654594223175
73.1436287788844
72.8249420396243
72.512375959575
72.2088056688755
71.9170112345002
71.6387155115753
71.3726757544953
71.1171466648058
70.8704377668032
70.6309085669386
70.3969645829125
70.167054179136
69.9396661528386
69.7133280209992
69.4866049626584
69.2580993742128
69.0264509971551
68.7903375785366
68.5484765151452
68.3003977583016
68.0479693458964
67.7934430793339
67.5390065086242
67.2867828758529
67.0388324284759
66.797154997985
66.5636937460515
66.3403399896748
66.1289390287331
65.9312969132766
65.7491881036797
65.5843639941832
65.4385622893651
65.3134969897462
65.2101333696041
65.128499463476
65.0686018933616
65.0304896659293
65.0142547043875
65.0200325962187
65.048003565081
65.0983936773901
65.1714762964763
65.2675737998066
65.3870595776142
65.5303603344407
65.6979587186289
65.8903963087695
66.1078132652907
66.3473966387977
66.6050912671471
66.8767372885258
67.1580512410949
67.4446091971596
67.7318352635393
68.0149959392772
68.2892008785291
68.5494106294159
68.7904519027068
69.0070408611417
69.1938148052678
69.3453724604966
69.4576536500527
69.5320102266721
69.5712711881611
69.578391743673
69.5564245358113
69.5084927720068
69.4377656452678
69.3474363342581
69.2407027875236
69.1207514192771
68.9907437764252
68.8538061797412
68.7130222968791
68.5714285714286
68.4314751970335
68.2934324012553
68.1570332092894
68.022014930288
67.8881190229983
67.7550909825659
67.6226802476693
67.4906401271916
67.3587277456671
67.2267040067639
67.0943335740874
66.9613848685974
66.8276300819477
66.6928452050544
66.5568586691427
66.4202444156604
66.2841458314612
66.1497030677735
66.0180378790536
65.8902544709962
65.7674407120364
65.650669694301
65.541001632002
65.4394860877401
65.3471645200711
65.2650731489675
65.1942461394882
65.1357191080534
65.0905329602388
65.059536103037
65.0422924705508
65.0378703601468
65.0453531997172
65.0638373496628
65.0924289116517
65.1302408108176
65.1763901378709
65.229995740886
65.2901760594708
65.356047196663
65.4267212262358
65.5013047351735
65.5788976028827
65.6585911443964
65.7393199078741
65.8196932196742
65.8982666105359
65.9735820492649
66.0441690198776
66.1085462584031
66.1652241610478
66.2127078715797
66.2495010506336
66.2741103231733
66.2850503925951
66.2808498009853
66.2600573049436
66.2212488253109
66.1632698565955
66.0872738016485
65.9957028246188
65.8910113800384
65.775641666743
65.6520150312799
65.5225252128505
65.3895333996809
65.2553650490348
65.1223084111083
64.9926146905141
64.8684997776081
64.7521474851877
64.6457142337073
64.5513351398198
64.4707545559194
64.4032945819635
64.3473421151267
64.3013059789626
64.2636140466293
64.2327087867071
64.2070435997492
64.185079922455
64.1652850830828
64.146130896849
64.1260929936391
64.1036508724561
64.0772886776506
64.0454966911638
64.0067735327673
63.9599303708102
63.905726474363
63.8456865911133
63.7813299316752
63.7141658750728
63.6456923183775
63.5773947425941
63.5107459807364
63.4472066729428
63.3882263937561
63.3352454382832
63.2896972567975
63.2530115314204
63.2266178937968
63.2119502891529
63.2103933695327
63.2226384491563
63.2489251960374
63.2895041112715
63.3446460401632
63.4146433467572
63.4998111871254
63.6004888908682
63.7170414613304
63.8498612062009
63.9993695114913
64.1660187733819
64.3502945041214
64.5527176300857
64.7738470022889
65.0138473497523
65.270093356271
65.538769161232
65.8159393384923
66.0975374826623
66.3793566866757
66.6570450817064
66.92610691395
67.1819096496143
67.4196975838427
67.634612376183
67.8217208399673
67.9760501720547
68.0926306210608
68.1671232741905
68.2003351413849
68.1958216700053
68.1572913567194
68.0885454763201
67.9934425924608
67.8758669735334
67.7397012426894
67.5888034536241
67.4269886648783
67.2580149874295
67.0855740042897
66.9132854066438
66.7446956578936
66.5832509193016
66.43069301869
66.286274657059
66.1490632815024
66.018145609565
65.8926257366711
65.77162351514
65.6542731910457
65.5397222869625
65.4271307201055
65.3156701465411
65.2045235230401
65.0928848787849
64.9799592895487
64.8649630471481
64.7471738612999
64.6268713198576
64.505241348228
64.3834864922976
64.2627913653805
64.1443229028622
64.0292310420057
63.9186498106519
63.8136988100023
63.7154850786958
63.6251053279503
63.5436485406127
63.4721989305201
63.4118392626309
63.3636545389374
63.3287195121299
63.3073706579945
63.2989215103849
63.3026260949148
63.3177526807866
63.3435810501267
63.3793999652589
63.4245048207368
63.4781954693925
63.5397742138667
63.608543957087
63.683806506985
63.764861032402
63.8510026686476
63.9415212725413
64.0357099898133
64.1332937447446
64.2346060026689
64.3400305441376
64.449957340963
64.5647830836534
64.6849117637191
64.810755313683
64.9427343079715
65.0812787282459
65.226828797162
65.379835885025
65.5407634943443
65.7100883278894
65.8883014465201
66.0757350303586
66.2714875989214
66.4740977953674
66.6820687736639
66.8938672311777
67.1079209548834
67.3226170571364
67.5363009494006
67.7472761057443
67.9538046698602
68.1541089596266
68.3463739215849
68.5287505839596
68.699360550781
68.8563906458771
68.9985874733832
69.1249263492253
69.2343913414337
69.3259792513254
69.3987044012038
69.4516036358422
69.4837415028781
69.4942155720761
69.4821618484479
69.4467602295661
69.3872399532237
69.3028849779927
69.1930392363669
69.0576737305645
68.8992766315834
68.7210150209145
68.526033249737
68.3174369586535
68.0982800833421
67.8715547697493
67.6401840989544
67.4070174909477
67.1748286365626
66.9463157967984
66.7241043077246
66.5107511360172
66.308751343922
66.1204953562316
65.9469735720568
65.7877050407619
65.6421604083576
65.5098344878378
65.390244337613
65.2829274774739
65.1874402293535
65.1033561714828
65.030264695709
64.9677696588007
64.9154881194995
64.8730491539176
64.8400927426365
64.8162687235375
64.8013018961503
64.7957228964062
64.8005992367783
64.8170180468142
64.846080258529
64.8889047017325
64.9466326323761
65.0204327265872
65.111506580452
65.221094764066
65.3504834880575
65.5010119519494
65.6740804566348
65.8711593782468
66.0937973271161
66.3423255758333
66.6134905364195
66.9033407394347
67.2078102722996
67.5226963167176
67.8436413391816
68.166120373554
68.4854339255897
68.7967070943984
69.0948955394975
69.3747989177209
69.6310823648675
69.8583064959441
70.0510487636301
70.2069765436283
70.3278190884598
70.4157045109887
70.4728822904061
70.501702493426
70.5045958300292
70.4840548376907
70.4426164384789
70.3828460639627
70.3073234952605
70.21863052124
70.1193404779505
70.0120096976159
69.8990576289343
69.781659279443
69.6602361540742
69.5351953258213
69.4069396914934
69.2758676085604
69.1423725811061
69.0068429937399
68.8696618921853
68.7312068091623
68.591849634094
68.4519565251098
68.3118878617817
68.1719982370072
68.0326077819747
67.8935928800686
67.7544901414624
67.614834674115
67.4741693197005
67.3320447193068
67.1880194381259
67.0416601463115
66.8925418531225
66.7402481913831
66.5843717491822
66.4245144456045
66.2602879471373
66.091314121236
65.9172255331924
65.7380172940912
65.5549609659759
65.3695909308429
65.1834087605343
64.997882733111
64.8144480300834
64.6345075754845
64.4594334791643
64.2905690491858
64.1292313416943
63.976714220996
63.8342919077406
63.7032229989825
63.5847549504557
63.480129018635
63.3902759139783
63.3144944429744
63.2515677166624
63.2003042087639
63.1595335281844
63.1281023471746
63.1048707994682
63.0887093249594
63.0784959427726
63.0731139390973
63.0714499599815
63.0723925024501
63.0748307998558
63.0776540993246
63.0797513305132
63.0801943878479
63.0800318619094
63.0815184803559
63.0869267909968
63.098531962126
63.1186154324472
63.1494702171714
63.1934078974998
63.2527673395502
63.3299252131521
63.4273084112734
63.547408507871
63.6927984366599
63.8661516270297
64.0702638979507
64.3075826773838
64.575877474875
64.8701835403433
65.1853769654043
65.5161635830251
65.8570459017359
66.2022982386766
66.5459509458972
66.8817847905158
67.2033366510044
67.503917713563
67.7766452771781
68.0144890866476
68.2103327952277
68.3575512039809
68.4556674412843
68.508443056223
68.5199284652222
68.4943396166604
68.4360097453875
68.3493454863076
68.2387880143432
68.1087796654442
67.963736301814
67.8080255202529
67.6459506690465
67.4817405376725
67.3195445145951
67.1633962347404
67.0155996037106
66.8761327930475
66.744811214946
66.6214579874541
66.5059035584442
66.3979853505063
66.2975474253506
66.2044401664132
66.118519978455
66.0396490030303
65.9676948487834
65.9025303356051
65.844033251748
65.7920861230655
65.7465205707909
65.7067381149106
65.6719412667369
65.6413371633015
65.6141376780986
65.5895585084217
65.5668184540842
65.5451388848153
65.5237433942563
65.5018576389247
65.4787093607677
65.453528591997
65.4255480407896
65.3940036561447
65.3581355473686
65.3174697501045
65.2723859797051
65.2234236266072
65.171120441417
65.1160119502081
65.0586309597596
64.9995071520549
64.9391667670526
64.8781323724987
64.8169227193667
64.7560526813907
64.6960332770934
64.6373717727027
64.5805718643982
64.526135996652
64.4749107931139
64.4284722533608
64.3884823229236
64.3565978994477
64.3344746049015
64.3237714082635
64.3261561104144
64.3433117139654
64.3769437137945
64.4287883593121
64.5006219572303
64.5942713042362
64.7116253629713
64.8546483227565
65.0253088292489
65.2229757601507
65.4438589444549
65.6839267073734
65.9390585475168
66.2050219576113
66.4774541673051
66.7518491684521
67.0235504753565
67.287750136991
67.5394945501891
67.7736976164726
67.9851617344037
68.1686070183931
68.3187716410385
68.4332439090068
68.5136528337374
68.5620431068688
68.5805660760902
68.5714600760394
68.537031590642
68.4796375050317
68.4016686591606
68.3055348695902
68.1936515422499
68.068427958377
67.9322572793484
67.787508284314
67.6365172169505
67.4811836336837
67.3224534000587
67.1611274367251
66.9979927638522
66.8338220760774
66.6693735042125
66.5053905551734
66.3426022215322
66.1817232521983
66.0234545759895
65.8684838702527
65.7174862672111
65.5711251913516
65.4300533218967
65.2949091056615
65.1662179102811
65.0443952763642
64.9298493173545
64.8229862718245
64.7242115142136
64.6339306138886
64.5525504444621
64.4804803458932
64.4181333425222
64.365927420858
64.3242868716511
64.2936437015549
64.2744391205094
64.2671251118911
64.2721026248449
64.2886795962155
64.3152344941511
64.3501208432785
64.3916923713904
64.4382991424503
64.4882845287655
64.5399830247942
64.5917189106966
64.6418057775824
64.6885469284144
64.7302366686444
64.765162498835
64.7916082176986
64.8078579381289
64.8126534054419
64.8086837536427
64.800672187667
64.7933573671917
64.7914742077705
64.799758359962
64.8229576156757
64.8658502927748
64.933270740897
65.030142248128
65.1615178131148
65.3326294866594
65.5489472907073
65.816249105821
66.1406760782736
66.5241865433982
66.9590687290271
67.43610525206
67.9456610571038
68.4775611698287
69.0209935453318
69.5644412085408
70.0956491076775
70.6016319689126
71.0687298033887
71.4827174010068
71.8289729664462
72.0927088560194
72.2619225639562
72.3392409659438
72.3327125021694
72.2510060998409
72.103218526215
71.8986996468619
71.6468975429328
71.3572267274414
71.0389611944839
70.7011527516533
70.3525740723328
70.0016851764048
69.656621595796
69.3252018608191
69.0129168764834
68.7183734747982
68.4388649494712
68.1717843334795
67.9146135071061
67.6649144588156
67.4203225183592
67.1785414076419
66.9373399743879
66.694550487374
66.4480683807273
66.1958533391276
65.9359316163171
65.6663994766387
65.3854842604171
65.0935939158582
64.7938036423448
64.4892630987476
64.1830132952528
63.8779848357213
63.5769989690755
63.2827711888331
62.9979171333076
62.7249605607716
62.4663432024575
62.2244363303142
62.0015539149528
61.7999672915105
61.6219212969342
61.4696518914505
61.3450298813876
61.2470229707959
61.1732948412693
61.1215829552299
61.0896899506307
61.0754687403502
61.0768094035509
61.0916277250977
61.1178552765103
61.1534309635567
61.1962939922418
61.2443782271171
61.2956079338715
61.3478949122313
61.3991370353668
61.4472207339695
61.4910307121413
61.5320027102374
61.5719790591608
61.6128120343487
61.6563638315074
61.7045076649836
61.7591300061856
61.8221339837863
61.8954439747515
61.9810114257065
62.0808219579635
62.1969038269871
62.3313378285713
62.4862687700821
62.6639186565218
62.8660332099411
63.0907662955826
63.3347908707724
63.5947027642856
63.8670036481364
64.148083817564
64.4342086128406
64.7215088065247
65.0059753421052
65.2834588540796
65.5496744216226
65.8002120038869
66.0305529701309
66.2360930680177
66.4122335772954
66.5571555899057
66.672996634853
66.7622968295504
66.8276940040014
66.8719035068844
66.8976997313293
66.9078996073489
66.9053482503024
66.8929069021395
66.8734432560191
66.8498242163215
66.82491111578
66.8015573898491
66.7826086956522
66.7702072300602
66.7637026857048
66.7617505709801
66.7630089908096
66.7661370861789
66.7697940136572
66.7726384636378
66.7733287173036
66.770523242674
66.7628818295453
66.7490672616723
66.7277475221768
66.697598524913
66.6573073603994
66.6056809043019
66.5431498960744
66.4714068206709
66.3921719703045
66.3071555545912
66.218054352867
66.1265492573222
66.0343036905336
65.9429628767451
65.8541539439042
65.7694868329208
65.6905559917877
65.6189428349912
65.5562189529762
65.5039500622513
65.4634276826846
65.4346318080969
65.4171584394626
65.4106163332433
65.4146257655442
65.4288172896446
65.4528305613723
65.4863132264975
65.5289198649497
65.5803109872378
65.6401520789786
65.708112689922
65.7838655643078
65.8670858098006
65.9574594888158
66.0550999986081
66.16071991617
66.2750896761321
66.3989961708894
66.5332449012683
66.6786623573581
66.8360986470928
67.0064303929821
67.1905639205838
67.389438765975
67.6040315336634
67.8353601411802
68.0844884921181
68.3525001162838
68.6383072835245
68.9371225847848
69.243656098703
69.5524301409865
69.8577692272139
70.1537989290054
70.4344544666421
70.693499868384
70.9245584388753
71.121155105929
71.2767709488504
71.3849098486751
71.439176743936
71.4348156211244
71.3757946572762
71.2693679218607
71.1229182673078
70.9438642224142
70.7395860858584
70.5173675936448
70.2843531900778
70.047520498871
69.8136672966914
69.5894121294535
69.3812076706521
69.1953659875019
69.0380950416786
68.9139372710568
68.8204028987535
68.7531806573449
68.7080586451527
68.6808948648262
68.6675931325698
68.6640841165114
68.6663113186911
68.6702218982248
68.671762291084
68.6668786156175
68.6515218627998
68.6216578563292
68.5732819302348
68.503421297087
68.4134721908113
68.3060330163456
68.1837005503476
68.0490579092409
67.9046645522668
67.753048282259
67.5966992117657
67.438065640516
67.2795517749751
67.1235172115398
66.9722781013908
66.8281099166924
66.6932517442524
66.5698844820687
66.4596870322529
66.3639234767882
66.2838469904777
66.2207187479104
66.1758143178561
66.1504305976443
66.1458933353625
66.1635653003136
66.2048551763947
66.2712272692668
66.3642121367923
66.4854182737806
66.6365450072504
66.8193896925185
67.0340849269847
67.2766921517272
67.5426335878884
67.8272291477071
68.1256649516645
68.4329679541538
68.7439871420186
69.053381913928
69.3556183551184
69.6449741841288
69.9155531568389
70.1613096586146
70.3760840881275
70.5539110266095
70.6933978291033
70.7971600089068
70.8680865879005
70.9091890929394
70.923574606689
70.9144208452216
70.8849536126565
70.8384268993584
70.778105812304
70.7072524565956
70.6291148274581
70.5469187234995
70.4638626550887
70.3826645072355
70.303844301925
70.2272643635541
70.1527884269581
70.0802816864187
70.0096107165409
69.9406433988209
69.8732488537406
69.8072973782428
69.7426603884461
69.6792103674721
69.6168208182648
69.5553662212924
69.494721815181
69.434632138342
69.3744805381659
69.3135925849986
69.2512986204577
69.1869339540276
69.1198391865532
69.049360657895
68.9748510157123
68.8956699019492
68.8111847531187
68.7207717099197
68.623816631087
68.5197162056732
68.4078795314381
68.2883197214474
68.162836733425
68.0335430741554
67.9025217896841
67.7718249193544
67.643473218095
67.5194570980685
67.4017387419758
67.2922553444395
67.1929234447526
67.1056443237054
67.032310449075
66.9748129686193
66.9350502661042
66.9147498942804
66.9140332103344
66.9322140699253
66.9686307024792
67.0226489500672
67.0936587878901
67.1810710550993
67.2843143712257
67.4028322164757
67.536080156821
67.6835231972056
67.8446332483702
68.0188866947777
68.2057620529596
68.4046770019061
68.6143864412604
68.8332175566951
69.0594537852837
69.291335889828
69.5270581719076
69.7647655474526
70.0025515483749
70.2384573201706
70.4704716897813
70.6965323800718
70.9145284467096
71.1223040096815
71.3176673729161
71.4990775584825
71.6664358795347
71.8198476205289
71.9594389759755
72.0853564183791
72.1977660087907
72.2968526551059
72.3828193234315
72.4558862079851
72.5162898650779
72.5642823167718
72.6001301297862
72.6241134751773
72.6365867623801
72.6381624595192
72.6295249105767
72.6113668199807
72.5843873763061
72.5492904964449
72.506783196552
72.4575740947398
72.4023720492383
72.3418849345826
72.2768185573373
72.2078757119269
72.1357553763122
72.0610778880193
71.9836608823269
71.9028382696671
71.8179439992597
71.7283197189365
71.6333155712489
71.5322911001017
71.4246162625547
71.3096725397447
71.1868541401421
71.0555692875684
70.915241585587
70.7653114490401
70.6052378878271
70.4349650081598
70.2558496092073
70.0694930596061
69.8774700676646
69.6813260345453
69.4825751360092
69.2826991006295
69.0831466498365
68.8853335639108
68.6906433379976
68.5004283932338
68.3160118100541
68.138689553566
67.9697331644513
67.8104472065521
67.6623551409586
67.5270270764762
67.406019479884
67.300881710899
67.2131632481486
67.1444216256919
67.0962311164269
67.0701922153534
67.0679419942489
67.0911654202679
67.141607754807
67.2210881763462
67.331514802711
67.4744627513419
67.647357055731
67.8452434395039
68.063081194717
68.2957343564873
68.5379439257659
68.7843076334844
69.0292677328
69.2671074198068
69.4919565443621
69.6978072737237
69.8785403039716
70.0279620696254
70.1398532281983
70.2099681599015
70.2412419278459
70.2383664979959
70.2061417523408
70.1494321731576
70.0731297481091
69.9821234898322
69.8812757692244
69.7754055042053
69.6692781280317
69.5676021838854
69.4750323545747
69.3961787360447
69.3356129450396
69.2955875457305
69.2730404352624
69.2641956442128
69.2653006741631
69.2726136829093
69.2823947520159
69.2909012007841
69.294386941198
69.2891058805012
69.2713193718009
69.237307688475
69.1833854553648
69.1059209093394
69.0013846536933
68.868682719398
68.7109490961323
68.5317495908475
68.3346255558945
68.1230744381799
67.9005340949654
67.6703708019906
67.4358708221014
67.2002353615567
66.9665787156739
66.7379293941106
66.5172340173379
66.3073637881973
66.1111233643814
65.9310312107685
65.7675694405435
65.6202066945552
65.4884334090471
65.3717681768267
65.2697556838602
65.181964798901
65.1079868014257
65.0474337346637
64.999936871836
64.9651452849009
64.942724506154
64.9323552739622
64.9337323547421
64.9465634340367
64.9707683519514
65.0071595897088
65.0568085471925
65.1208084136508
65.2002787504884
65.2963705442457
65.4102717666779
65.5432134940698
65.6964766476979
65.8713994286428
66.0693855332577
66.2919132508636
66.5405455631198
66.8169413855489
67.122574356848
67.455000920322
67.80879382408
68.1782582719785
68.5574595311205
68.9401968007119
69.319987322143
69.6900620179148
70.0433740536773
70.3726217283159
70.670286990473
70.9286906354235
71.140064836721
71.2966511364669
71.3940312722211
71.4361982105735
71.4287053106688
71.377324860292
71.2879727264447
71.1666411978376
71.0193411014407
70.8520538512638
70.6706937199544
70.4810803238807
70.2889210853648
70.0998032820559
69.9191952100086
69.7523776171065
69.601617513668
69.465438554917
69.3421628494356
69.2301501468109
69.1277921366602
69.0335075856826
68.9457382658704
68.8629456359981
68.7836082457832
68.7062198378571
68.6292881269951
68.5513342390323
68.4708927936053
68.3865293438511
68.2975805563324
68.2044377131379
68.1075665746143
68.0074292263255
67.9044836297624
67.7991832380169
67.6919766752057
67.5833074782364
67.4736138993555
67.3633287678042
67.252879408823
67.1426876182002
67.0331696905401
66.9247365030184
66.8179217371794
66.7137174750327
66.6132093101766
66.5174705478568
66.4275636294202
66.344541887454
66.2694516253571
66.2033345176918
66.1472303306694
66.1021799655405
66.069228831499
66.0494305590052
66.0438510692227
66.0535730206051
66.0796619716673
66.1223191690736
66.1808789613571
66.2546554211392
66.3429776645724
66.4451867033997
66.5606324682544
66.6886709872564
66.8286617065846
66.9799649421187
67.1419394534858
67.3139401339452
67.4953158115275
67.6854071587209
67.883535372218
68.088485830513
68.2982226854677
68.5105944084116
68.7233956147291
68.9343656559819
69.1411886629469
69.3414951343626
69.5328651649727
69.712833400576
69.8788957967687
70.0285182414708
70.1591470788483
70.2682215437217
70.3534377809733
70.4152153864367
70.4556737772747
70.4770076162276
70.4814507442807
70.4712647358776
70.4487287852678
70.4161309981603
70.3757611377848
70.329904852921
70.2808393977525
70.2308308397233
70.1821327419707
70.1369863013699
70.0969035184803
70.0605205308695
70.025763650395
69.9905679270258
69.9528767870999
69.9106428836463
69.8618301445835
69.8044170010801
69.73640077196
69.6558031708682
69.5606768911413
69.449113209179
69.3192505308874
69.169285417923
68.9986570114926
68.8100864974026
68.6068213144837
68.3920589918893
68.1689356845369
67.9405177761321
67.7097964164144
67.4796848345536
67.2530182573774
67.0325562581997
66.8209873682608
66.6209357970281
66.4349701288083
66.2656138904196
66.1152380416427
65.9845758040977
65.8732155886733
65.7807575132043
65.7068373630823
65.6511247342704
65.6133213531529
65.5931595584567
65.5904009321219
65.6048350674651
65.6362784642781
65.6845735416723
65.7495877605224
65.831212848303
65.9293640570352
66.0436696695163
66.1727428631501
66.3149795948444
66.4687632536149
66.6324583198698
66.8044047705631
66.9829132447846
67.166260995505
67.3526886629423
67.5403979132635
67.7275499929566
67.9122652540216
68.0926237079102
68.2666666666667
68.4326138469821
68.589518141613
68.7366397664769
68.8732359460692
68.9985629577691
69.1118783363385
69.2124432330417
69.2995249218438
69.372399443075
69.4303543728088
69.4726917040127
69.4987308233363
69.5078115652268
69.4992990195575
69.4730088651823
69.4297627849556
69.3705416627346
69.296342928633
69.2081762144903
69.1070592586222
68.9940140807746
68.8700634435693
68.7362276123318
68.5935214210962
68.4429516488247
68.2855147065012
68.1221946327664
67.9539614043828
67.7818242534321
67.6069553880287
67.4305418946345
67.2537471354213
67.0777105706375
66.903547976263
66.7323520358867
66.5651932865226
66.4031213993494
66.2471667780643
66.0983424596335
65.9576463046756
65.8260634674848
65.7045691387819
65.5941122513722
65.495032514985
65.4069647940477
65.3295176531105
65.2623132946831
65.2049864034119
65.1571830612434
65.1185597276703
65.0887822797483
65.0675251071021
65.054470257625
65.0493066300117
65.0517292096658
65.0614383448861
65.0781390605696
65.1016607137745
65.1331356291873
65.1744994491391
65.2277168691377
65.2947768900595
65.3777006277518
65.4785504589572
65.5994405954439
65.7425492052467
65.9101322321158
66.1045391025849
66.3282305557739
66.5837988857311
66.8739909519003
67.2016537461091
67.5661485122976
67.9617141848706
68.3819924426003
68.8203382894877
69.2697717263901
69.7229416585346
70.1721038466052
70.6091150136761
71.0254454017837
71.4122120926255
71.7602352252883
72.0601188196047
72.3023592556056
72.480725540612
72.5990699565462
72.6634813240934
72.6803556971401
72.6563063864672
72.5980834341627
72.5125041624823
72.4063958644609
72.2865512167117
72.1596965966594
72.0324731873326
71.9114305559958
71.8030322965156
71.712959064538
71.6399601549946
71.5789592197266
71.524887514206
71.4727133404434
71.4174357729856
71.354085435126
71.2777322062945
71.1834997173081
71.0665864264271
70.9222929681871
70.7460553322075
70.5334832657302
70.280403553795
69.9850724303632
69.6530944374275
69.2914772930779
68.9070572594027
68.5064522124102
68.0960287388139
67.6818822859755
67.2698292032357
66.8654094309528
66.4738986009589
66.1003283916944
65.7495141171194
65.4260887071653
65.1345424485947
64.8792437633396
64.6623264085132
64.482099307635
64.3366245045631
64.2241063740801
64.1428737830261
64.0913641233845
64.0681089446891
64.0717209556511
64.1008822004249
64.1543332448173
64.2308632330414
64.3293006972231
64.4485050204639
64.5873584704433
64.7447286312364
64.9185383023838
65.1055610746958
65.3024459747171
65.5057684995123
65.7120213406774
65.9176086670726
66.1188442014556
66.3119533464785
66.4930796179761
66.6582956258703
66.8036188031585
66.9250320194913
67.0185091265869
67.0800475166104
67.1072600442509
67.1021594803594
67.0675914647893
67.0064727500959
66.9217670684607
66.816463287697
66.6935560675797
66.5560291531397
66.4068413750938
66.2489153706011
66.0851289907793
65.9183093251293
65.751229247035
65.5866063683616
65.4270560502199
65.2738591064756
65.1268868344037
64.9859460053123
64.8508490857688
64.7214139196508
64.5974634271653
64.4788253197685
64.3653318300015
64.2568194553295
64.1531287151437
64.0541039201431
63.9595929533777
63.8694470622836
63.7835206610922
63.7016750351136
63.6239197391289
63.5504510826658
63.4814770972259
63.4172056582173
63.3578448024304
63.3036030591898
63.2546897956425
63.2113155767351
63.1736925405366
63.1420347896714
63.1165587997394
63.0974838457246
63.0850324475195
63.0794308358359
63.0809082313445
63.0893962923445
63.1041324565686
63.1242582877043
63.1489162245955
63.1772482275076
63.2083946571395
63.2414933859525
63.275679142532
63.3100830905886
63.3438326448243
63.3760515262435
63.4058600595679
63.4323757152146
63.4547138978122
63.4719891593545
63.4841850256027
63.4941711872569
63.5054197306634
63.5214079198107
63.5456214869771
63.5815617525412
63.6327566219996
63.702775550322
63.7952486246959
63.9138899979017
64.06252600835
64.2451284527423
64.4658536385285
64.7290880430435
65.0394579782082
65.3979352420616
65.7984865031586
66.2341532771116
66.6976818647734
67.1814440945078
67.6773723335932
68.1769109526682
68.6709870649001
69.15000385466
69.6038601011976
70.021999520169
70.3934932119212
70.7071577450131
70.9527058786097
71.1296407246002
71.2433237050978
71.2996152868074
71.3047145982259
71.265064328089
71.1872641444314
71.0779945038091
70.943952126651
70.7917978793826
70.6281173503378
70.4593940483008
70.2919948953412
70.1321674907675
69.9846938227983
69.8493680683571
69.7248835430405
69.6099616049125
69.5033479177527
69.4038092236147
69.3101305972053
69.2211131592726
69.1355722300522
69.0523359069519
68.9702440530947
68.8881476851478
68.8049087500726
68.7194003451954
68.6308211715615
68.5394182587185
68.4456516430303
68.3499770682548
68.2528457202502
68.1547040236235
68.0559934988084
67.9571506779749
67.858607078119
67.7607892296594
67.6641187588802
67.5690125225949
67.475882793474
67.3851374945722
67.2973276686294
67.2140417237226
67.1373037598618
67.0691240937982
67.0115020469685
66.9664317242208
66.9359089702169
66.9219395200017
66.9265483792851
66.9517904923074
66.9997627811369
67.0726176704084
67.1725782466127
67.3019552420707
67.4629600703607
67.6543153838035
67.8717045066816
68.1106593723272
68.3666238101696
68.6349259360823
68.9107563573979
69.1891525823009
69.4649901392923
69.7329809939768
69.9876798916791
70.2234992483233
70.4347331512131
70.6155909088339
70.7614376453516
70.8729405724051
70.9523333893373
71.0019640171757
71.0242737161077
71.021777263388
70.9970444305712
70.9526829875503
70.8913234105154
70.8156054233343
70.7281664583088
70.6316320837828
70.5286084133328
70.4216543773781
70.3120720852
70.1993027625569
70.0826434813423
69.9614021260765
69.8348982011146
69.7024637604909
69.5634444530187
69.417200674537
69.2631088184035
69.1005626145001
68.9289745461518
68.7477773334865
68.5564254708962
68.3544139790475
68.1424586003421
67.9232178119552
67.6994705763282
67.4739281608879
67.2492321888622
67.0279548338914
66.8126010167792
66.6056124683704
66.4093735341566
66.2262186130423
66.0584411441034
65.9083040806739
65.778051820417
65.6699235930867
65.5859231911292
65.5254423326852
65.4863186665216
65.4664213580576
65.4636610540068
65.4759783103238
65.501333455192
65.5376978062605
65.583046186747
65.6353507065114
65.6925757921357
65.7526744646325
65.8135858747535
65.8732341140009
65.9295299978937
65.9815860797439
66.0318732650988
66.0834550680952
66.1394143776679
66.2028561456732
66.2769129956051
66.3647538222431
66.4695954811332
66.594717708099
66.7434814641402
66.9193509717564
67.1259197973085
67.3669414438226
67.6463650542103
67.9668918321083
68.3241993460025
68.7116715637207
69.122448981867
69.5493690070273
69.9849186372166
70.421201501364
70.8499212823087
71.2623838310401
71.6495204037828
72.0019343756916
72.3099734602719
72.5638288515802
72.7545325133466
72.8817032296664
72.9500483112335
72.964668975242
72.9309287855355
72.8543785555814
72.7406875119907
72.5955820013174
72.4247926243305
72.2340103183449
72.0288515936628
71.8148328733323
71.5973536900168
71.381669773155
71.1712387762251
70.9664715063578
70.7674654878621
70.5743172768459
70.3871226888386
70.2059770268976
70.0309753104571
69.8622125052097
69.6997837543378
69.5437846114423
69.3943112755472
69.2514608285867
69.1153314758171
68.9860317582458
68.864076512416
68.7505367917306
68.6465155124829
68.5531087734791
68.4714091896285
68.4025095656635
68.3475069180735
68.307506858581
68.2836283582778
68.2770089179428
68.2888101771891
68.3202240030494
68.3724791075761
68.4468261554483
68.5433323105566
68.6602390228589
68.7956453679787
68.9476502879405
69.1143424528502
69.2937911379493
69.4840381054736
69.6830905012958
69.8889147947385
70.0994318062357
70.3125128816018
70.5259772833646
70.7375908786526
70.9451843074359
71.1474717417682
71.3435843877392
71.5326415454714
71.7137495018544
71.8860032384788
72.0484883821346
72.2002834007156
72.3404620452288
72.468096036184
72.5822579899565
72.6820245777844
72.7664799069092
72.8347800068171
72.8870315236355
72.9240962970217
72.9468792226165
72.9563050872639
72.9533150440586
72.9388632807089
72.9139139004851
72.8794380316766
72.8364111782715
72.7858108215593
72.7286142795732
72.6657968287598
72.5983165221429
72.5265131497036
72.4498762971676
72.3678394114603
72.2798435292569
72.1853381531427
72.0837822020603
71.9746450310618
71.8574075148069
71.7315631886441
71.5966194405005
71.4520987461935
71.2975399401759
71.1324995131365
70.9569213144424
70.7729017985748
70.5832739022744
70.3908167426244
70.198251615157
70.0082412485759
69.8233911202674
69.6462527182112
69.4793286432619
69.32507945976
69.1859322214893
69.0642906237209
68.962546760227
68.8830944966886
68.827832998345
68.796229874598
68.7870606553751
68.799147450246
68.8313516394636
68.8825669865434
68.9517132599913
69.0377303103125
69.1395725575489
69.25620385272
69.386592683845
69.5297077038407
69.6845135636377
69.8499651705308
70.0245363013442
70.2055851971907
70.3902638505194
70.5756648502352
70.7588191878975
70.9366965080232
71.1062079371521
71.2642116220942
71.4075210937176
71.532916547937
71.6371590995985
71.7170080173919
71.7692408888242
71.7912279779058
71.784320172455
71.7516317384747
71.6963326385518
71.6216205281684
71.5307022104807
71.4267779064844
71.313028406159
71.1926051129204
71.0686229512918
70.9441560762958
70.8222363024951
70.7058541604396
70.5979526788449
70.499790748669
70.4091297909972
70.3233161289329
70.239724474764
70.1557552149436
70.068833648815
69.9764111311883
69.875968068559
69.765018712712
69.6411176840012
69.5018681401237
69.344931485218
69.1680384892329
68.9690329461362
68.7480317308625
68.5087438196102
68.2551430589607
67.9911154854742
67.7204464713908
67.4468123989616
67.1737765829622
66.9047891364334
66.6431904697294
66.3922181249291
66.1550166740855
65.9346504484051
65.7341189144216
65.5563745712081
65.4041832860772
65.2783845573409
65.1785899232292
65.1044524672553
65.0556876380767
65.0320713566401
65.0334384941338
65.0596817028834
65.1107505863512
65.1866511981697
65.2874458637219
65.4132533212421
65.564249182806
65.7406667189689
65.9427972196658
66.1697886753825
66.417144656225
66.679570579148
66.9516208187784
67.2276765373616
67.5019323279584
67.7683924454547
68.0208774735988
68.253042277961
68.4584060126678
68.6303947718463
68.7623971962513
68.8478329575026
68.8802414042645
68.8565147592139
68.7817525818396
68.6624820617788
68.5053331522327
68.3169608337118
68.1039799355265
67.8729130043033
67.6301512389841
67.3819281489935
67.134305338164
66.8931696667513
66.6642409884975
66.4530896882786
66.2651633474119
66.1054061544698
65.9737224071453
65.8667767981529
65.7812754445875
65.7140030655422
65.6618037051315
65.6215647926302
65.5902043466373
65.5646611890108
65.5418880796967
65.5188477166174
65.4925115661741
65.4598615000622
65.4178942132482
65.3636283862968
65.29487713163
65.2128315912942
65.1196036817315
65.0172950577185
64.9079906999652
64.7937539065159
64.6766226406504
64.5586072022169
64.4416891816303
64.3278216516177
64.2189305509885
64.1169172170256
64.0236620283208
63.9410291278337
63.8708722064801
63.8148476895479
63.7736837055341
63.7478433002412
63.7378094297904
63.7440874256491
63.7672075621439
63.8077278041382
63.8662367575811
63.9433568484923
64.0397477592108
64.1561101544746
64.2931897341933
64.4517816547292
64.6327353662223
64.8369584653212
65.0643617899008
65.3119380675604
65.5761093775343
65.8532011203507
66.1394237730706
66.4308585479854
66.7234472944265
67.0129870499556
67.2951296939142
67.5653871790999
67.8191428116407
68.0516690101668
68.2581518985911
68.433723997998
68.5751395138069
68.6841731174126
68.7636609845805
68.8165495222357
68.8458710220002
68.8547214031939
68.8462403490298
68.8235940644215
68.7899608151329
68.7485193479393
68.7024402414631
68.6548801982382
68.6089792607924
68.5678603362334
68.5337118738905
68.5059324299342
68.4834018657959
68.4650057487524
68.4496338253741
68.436178860282
68.4235358361444
68.4106015121835
68.3962743393084
68.3794547303488
68.3590456837405
68.3339537584106
68.3030903965386
68.2653735984466
68.2200571034237
68.1675933621297
68.1087072330326
68.0441226409518
67.9745613136182
67.9007416741701
67.8233778894585
67.7431790731294
67.6608486416857
67.5770838211053
67.4925753011088
67.408007033818
67.3240561733282
67.2413931526212
67.1607308080889
67.0832000990733
67.0101403613157
66.9428823930872
66.8827487224144
66.8310562050554
66.7891191339838
66.7582528618685
66.7397779436361
66.7350248126723
66.7453390116339
66.7720870072837
66.816662628369
66.8804941764966
66.9649953905033
67.0694917710399
67.1905931961529
67.324707647944
67.4682020887333
67.6173899692752
67.7685226073497
67.9177845873503
68.0612933634253
68.1951032619768
68.3152140722121
68.4175843842754
68.4981497817613
68.5528459181522
68.5777135847046
68.5717458023367
68.5377093725582
68.4786740290555
68.3977480876363
68.2980574391519
68.1827272859164
68.0548667278669
67.9175562408797
67.7738380366044
67.6267092513761
67.4791178812332
67.3339613604557
67.1940876717537
67.062298420276
66.9406350288209
66.8289442032464
66.7266745160351
66.6332886298989
66.5482618602875
66.4710808468859
66.4012423267049
66.3382520022755
66.2816234992759
66.2308774086479
66.1855404089184
66.1451444650288
66.109226100505
66.0773257402712
66.0490467601874
66.025034077011
66.0068141903495
65.9959408101151
65.9939698727775
66.0024633788516
66.0229939800303
66.057150337134
66.1065432801042
66.1728128131021
66.2576360215929
66.362735954395
66.4898915724005
66.6409488775338
66.8178257915284
67.0206292451936
67.2450919852906
67.4862435455817
67.7389928423231
67.9981051626828
68.2581866882283
68.5136771399232
68.7588512152541
68.9878295176132
69.194599644174
69.3730479924099
69.5170026594767
69.6202875379646
69.6769162364857
69.685869543989
69.6524879917242
69.5826608468466
69.4823582560066
69.3575745131921
69.2142814110161
69.0583919768304
68.8957345979975
68.7320373190307
68.5729219475815
68.4239075334351
68.2904227798097
68.1778270036868
68.0913932788729
68.0331667315505
67.9999625132776
67.9881784598909
67.9942626627101
68.0146929525517
68.0459601895749
68.0845552364505
68.1269595573815
68.1696394342462
68.2090438241334
68.24160589983
68.2637483162092
68.2718922305923
68.2624891053924
68.234318925139
68.1906580898111
68.1353026800046
68.0720394221507
68.0046348783638
67.9368288537759
67.872331964829
67.8148272912952
67.7679760332368
67.7354271110347
67.7208306814467
67.7278555951527
67.7602108916637
67.8216706824747
67.9147799830578
68.0381696336083
68.1897699009526
68.3675441135756
68.5694714258447
68.7935308644056
69.0376865497046
69.299874025291
69.5779876640455
69.8698691543967
70.173297101313
70.4859778065778
70.8055373205465
71.1294737717733
71.4544686557896
71.7764605943669
72.0912227787891
72.3943865444781
72.681451131202
72.9477991993243
73.1887184455016
73.3994295676549
73.5751206992547
73.7109882662366
73.8022840175451
73.8443677463878
73.8330492069379
73.7693098787781
73.6585393998361
73.506391194926
73.318582410614
73.1008358055802
72.8588304346265
72.598161403303
72.3243086827418
72.0426147471259
71.7582706300745
71.4763098886004
71.2016099094331
70.9388999564379
70.6917052977608
70.4595921384793
70.2412753959607
70.0355136363577
69.8411044546853
69.6568803784161
69.481705252468
69.3144710694164
69.1540952138439
68.999518094059
68.8497011380532
68.7036251336092
68.5602888949747
68.4187082405345
68.2782862257675
68.1399134484441
68.0048341840964
67.8742734406143
67.7494384751662
67.6315207282972
67.5216981616277
67.4211379888459
67.3309997934953
67.2524390313834
67.1866109202919
67.1346747250658
67.0977984521502
67.0771639742793
67.0737959921664
67.0868382097781
67.1142939706514
67.15416384598
67.2044541862548
67.2631702896157
67.3283107534453
67.3978630024849
67.4697999994463
67.5420781538714
67.6126364518496
67.6793968330443
67.7402658422185
67.7931375799248
67.8359610440414
67.8679421265484
67.8894551373232
67.9009287434164
67.9028013873451
67.895520012425
67.8795388277333
67.855318118114
67.8233231040216
67.7840228553801
67.7378892630347
67.6853960707836
67.6270179704185
67.5632297616619
67.4945036188728
67.4211733202891
67.3433478225282
67.2611163838147
67.1745693652786
67.0837981259524
66.9888949191011
66.8899527900456
66.7870654756317
66.6803273054881
66.5698331052036
66.4556781015483
66.3379578298524
66.216768043645
66.0922046266487
65.9644659274512
65.8345496987457
65.7038158405919
65.5736053613509
65.4452381634218
65.3200136224113
65.1992116808927
65.0840944365195
64.9759082066294
64.8758860545858
64.78525076692
64.7052182748226
64.6370015186831
64.5818147601938
64.5408783530518
64.5152714200996
64.5052809415387
64.5109483864803
64.5323378533342
64.5695365408213
64.6226551361947
64.6918282926106
64.777215199198
64.8790002480604
64.9973938031811
65.132633076996
65.2849831212619
65.4547379397955
65.6422217316922
65.8477734599287
66.0705782130535
66.3078619396678
66.5566027275977
66.8136957957804
67.0759431694107
67.3400461636056
67.6026009107676
67.8600971951438
68.1089208739633
68.3453601658629
68.5656160717886
68.7658171589612
68.9420388828377
69.0903953743128
69.2095518801987
69.3014995676099
69.3685344976038
69.4130292119637
69.43741632837
69.444173501054
69.4358099179273
69.4148544645059
69.3838456477016
69.345323339668
69.3018223740043
69.2558680041879
69.2099732173257
69.1665634595411
69.1265695128838
69.0895534119845
69.0550289169029
69.0225123183174
68.9915221210242
68.961578795869
68.9322045992446
68.9029234594152
68.8732609290129
68.8427442031041
68.8109022022275
68.777265719783
68.7413676330822
68.7028214192704
68.6626052771272
68.6228491105355
68.5857097560017
68.5533351077803
68.5278664433012
68.5114420836401
68.506202386449
68.5142960801287
68.5378879629351
68.5791680093017
68.6403619481988
68.7237434052394
68.8316477320631
68.9662053187131
69.1257849653686
69.3059883196639
69.502301207707
69.7101294226826
69.9247794702426
70.1414452775472
70.3552012147431
70.5610018399982
70.7536888050979
70.9280053433963
71.0786187008284
71.200150759498
71.2872216876141
71.3364000281358
71.3491697943535
71.327880637691
71.2749787083987
71.1929843063314
71.0844707609534
70.9520447973668
70.7983285885133
70.625943639199
70.4374965967889
70.2355670375248
70.0226972372412
69.8013839012823
69.5740704142888
69.3430813432149
69.1105977178318
68.8787378560608
68.6495640200469
68.4250838683858
68.2072530793139
67.9979790646378
67.7991257028863
67.612519031091
67.4399538474784
67.2832011919927
67.1440166878682
67.0241497454135
66.925353647672
66.849354594245
66.7977532975925
66.7721561230104
66.7742224358231
66.8056780803283
66.8683301335988
66.9640831343046
67.0949570279218
67.2631071185464
67.470846375957
67.7206705170069
68.0152863659635
68.3576441030231
68.7509735999209
69.1961465675041
69.6852267212849
70.208043989219
70.7538637129659
71.3112843748972
71.8681669753315
72.4116018527705
72.9279196500445
73.4027534821764
73.8211589669136
74.1677974405515
74.4271852361436
74.5840347901696
74.6302424374082
74.5739317388647
74.4262159844486
74.1987641201576
73.9035401027162
73.5525745412278
73.1577736742628
72.7307680012231
72.2828006203775
71.824653603757
71.3666095727113
70.9184449888569
70.4894514748334
70.0881923458874
69.7171611695052
69.3735789098372
69.0546246440203
68.757615833433
68.4799904372975
68.219291551648
67.9731542975159
67.7392947301826
67.5155005804748
67.2996236707602
67.0895738737174
66.8833145019761
66.6788590320989
66.4742695451249
66.2683912418848
66.0623112752933
65.8575048036936
65.6554106565589
65.4574324867493
65.264940514552
65.0792738259899
64.9017431919227
64.733634379312
64.5762119315933
64.430723401327
64.2984040251441
64.1804818384582
64.0781832354943
63.992738837355
63.9251505433588
63.8757156092876
63.8446231166322
63.8320924733451
63.8383747621201
63.8637542441221
63.9085500320683
63.9731179483423
64.0578525858287
64.1631895914421
64.2896081949143
64.4376340083635
64.6078421255463
64.8008605535628
65.0173502200998
65.2563522660775
65.5141429133625
65.7866477125178
66.0696704931015
66.3588754426466
66.6497743842873
66.9377197377398
67.2179037124988
67.485364314021
67.7349987372001
67.9615846701223
68.1598099288223
68.3243106855739
68.4497515863683
68.5338658833641
68.5799017009322
68.5918180886522
68.573690151449
68.5296709064123
68.4639575454275
68.3807625151668
68.2842896694852
68.1787156149584
68.0681762613249
67.9567585064525
67.8484969303806
67.7473753443029
67.6573322868192
67.5810873087289
67.517769252954
67.465854807457
67.4238423109241
67.3902470304481
67.3635971380403
67.3424303601217
67.3252912810382
67.3107292872326
67.2972971430578
67.283550192386
67.2680461821822
67.2493457050964
67.2260132578921
67.1968307634591
67.1620898596667
67.1227334236914
67.0797047505487
67.0339437936019
66.9863862776813
66.937963076919
66.8895998543521
66.8422169597804
66.7967295821041
66.7540481524075
66.7150789943835
66.6807252193052
66.651887863642
66.6294752428819
66.6146953041085
66.6091402211933
66.6144328403041
66.6322066637989
66.664111569639
66.711820387301
66.7770363765535
66.8615016706548
66.9670067632106
67.0954011385336
67.2486051694031
67.4286234343197
67.6375596395569
67.8776135664801
68.1487035208713
68.4460834784396
68.7643440922819
69.0979030064692
69.4409722481076
69.7875343332911
70.1313279935983
70.4658445856764
70.7843363333013
71.0798375537503
71.345199921743
71.5731426086537
71.7563177892828
71.8886363025091
71.9714139300556
72.0088321017525
72.0052775423881
71.9652857735433
71.8934924644377
71.7945898392616
71.6732887302657
71.5342866506794
71.3822420728888
71.2217549402696
71.057353318246
70.8934860021439
70.7344952966013
70.5828637515807
70.4381237851988
70.2995498517088
70.1664303475483
70.0380664134951
69.9137708927156
69.7928674373101
69.6746897568158
69.5585810028432
69.4438932846126
69.329987310627
69.2162321520823
69.1020051238721
68.9867051281146
68.8702378143826
68.7531452965039
68.636003756357
68.5193816056532
68.403839557557
68.289930790319
68.1782011996732
68.0691897369121
67.9634288297754
67.8614448835565
67.7637588601562
67.6708869331764
67.5833412175623
67.5016325974469
67.4267746815472
67.3609405810664
67.3064561539595
67.265641977167
67.240822058462
67.2343341636135
67.2485418110475
67.2858480191778
67.3487109303593
67.4396614808997
67.5613233400204
67.7164354037996
67.9078772052128
68.1386962701802
68.4098730481767
68.7156142159694
69.048695277519
69.4016654859457
69.7667919684728
70.1360193335428
70.5009464122385
70.8528221266935
71.1825626538155
71.4807920248939
71.7379080291824
71.9441747343103
72.0898420716011
72.1665190922267
72.1757552054952
72.1240328487761
72.0181555816285
71.8651139402065
71.6719891699266
71.4458697083273
71.1937814684042
70.922632353569
70.6391709262663
70.3499587630261
70.0613557595707
69.7795174937629
69.5104037005751
69.2588196642984
69.0251824085329
68.8087538946603
68.6088341616414
68.424758242348
68.2558932959476
68.1016359646469
67.9614099328219
67.8346636689882
67.7208683332077
67.619515834416
67.5301170238317
67.4522000120888
67.385308599059
67.3289585802469
67.2822708868852
67.2441514316381
67.2135155515604
67.1892879619656
67.1704005388349
67.155790453472
67.1443986516087
67.1351686714388
67.1270457968611
67.1189765435573
67.1099084764339
67.0987903574148
67.0845726225961
67.0662476593229
67.0442896453528
67.0210605438657
66.9990392578361
66.9806983129674
66.9685056662494
66.9649283331457
66.97243783288
66.9935174653478
67.0306714529507
67.0864360063592
67.1633924052565
67.2641822241615
67.3915248804183
67.5482289285151
67.7350087311652
67.9475167147641
68.1806232692963
68.4290934137809
68.6875573926456
68.9504890680133
69.2121926517677
69.4667984466122
69.7082683353534
69.9304117633678
70.1269128908237
70.2913694393691
70.4173435152761
70.4987348007809
70.534962695755
70.5302187724899
70.4889915205861
70.4158714496229
70.3155069500767
70.1925657905976
70.0517026403664
69.8975328115864
69.7346122553908
69.5674237173397
69.4003688669534
69.2377661584908
69.0838541554946
68.9425561314296
68.8148062341511
68.6995980021145
68.5959166461507
68.5027707507826
68.419189125051
68.3442179799045
68.2769184120507
68.2163641774746
68.1616397406962
68.111838588317
68.0660617975205
68.0234168519823
67.9830166991245
67.9440254049732
67.9065348178721
67.8714870519949
67.8398524824761
67.8125987048685
67.7906916537741
67.7750969955418
67.7667817959172
67.7667164653643
67.7758769869555
67.7952474342527
67.8258227895033
67.8686120757875
67.9246418205085
67.994930020925
68.0793983662671
68.1765477505001
68.2847825078704
68.4024976905104
68.5280740726106
68.6598738857264
68.7962372973653
68.9354796529328
69.075889507655
69.2157274801552
69.3532259628552
69.4865897261573
69.6139974533122
69.7336738115619
69.8447717493098
69.9471250295305
70.0405878875829
70.1250203713823
70.2002886512735
70.266265322733
70.3228297007798
70.3698681049813
70.4072741339508
70.4349489282511
70.4528014206397
70.460748572624
70.4587155963303
70.4466208376098
70.4243300737353
70.3917029106218
70.3486085350459
70.2949261216479
70.2305452220001
70.1553661337839
70.0693002481731
69.9722703735732
69.8642110339491
69.7450687400564
69.6148022319976
69.4733826916383
69.3207950679222
69.1574940467884
68.9850862083003
68.8053339248774
68.6199704447813
68.4306968969841
68.2391801907503
68.0470517701062
67.8559071803351
67.6673064023862
67.4827749114561
67.3038054178235
67.1318602511449
66.9683743536945
66.8147588533423
66.6724631799038
66.5433744151258
66.4295764145817
66.333143365817
66.2561490361861
66.200678591454
66.1688417682792
66.1627874958593
66.1847201004902
66.2369172709218
66.3217500134863
66.441704885735
66.5994088679745
66.7976573164847
67.039337475419
67.3241383990036
67.6478070573466
68.0058070331059
68.3934919523724
68.8060561611749
69.2384908293037
69.685545916948
70.1416987052333
70.6011298332412
71.057707993907
71.5049846077056
71.9361999008792
72.3443068921134
72.7240457417992
73.0752400728503
73.398620382725
73.6950318973376
73.96542753279
74.2108604175832
74.4324761063536
74.6315046141019
74.8092523955094
74.9670943876235
75.1064662262869
75.2288567375692
75.335765645121
75.427411116936
75.5023423950741
75.5590085618658
75.5958750039079
75.6114310171332
75.6041979296466
75.572737678675
75.5156617652733
75.4316404978344
75.3194124233323
75.1777938339732
75.0056882269483
74.8023337038331
74.5706977239378
74.3165730232302
74.0457276924777
73.7637998363166
73.4762780788427
73.1884907479309
72.905603168237
72.6326224591941
72.374409249093
72.1356957728043
71.921109912792
71.7352048659362
71.5824851049515
71.4651723023144
71.3802892093927
71.3242375012391
71.2935161214142
71.284694870003
71.2943917464131
71.3192537774091
71.3559411470106
71.4011145154882
71.4514254714224
71.5035101046685
71.5539857195805
71.5994507270938
71.6369169376347
71.6667607180845
71.6909588163671
71.7115062046516
71.7304040835339
71.7496584062289
71.7712795204816
71.7972829352506
71.8296912197141
71.8705370452988
71.9218673873083
71.9857489113724
72.0642745815036
72.1594796270867
72.2709739892297
72.3956976853933
72.5304289242292
72.6719069158044
72.8168240585081
72.9618210366908
73.1034849410527
73.2383505377172
73.3629048140238
73.4735949184154
73.5668395874765
73.6390441145015
73.6866851081453
73.7083525055283
73.7051419795213
73.6783414985298
73.6292822576789
73.5593304849247
73.4698795805028
73.3623426554196
73.2381455237089
73.0987201923509
72.9454988823287
72.7799086044543
72.6033663044929
72.4172747102047
72.2230499187008
72.0221583470689
71.816050357525
71.6061477800463
71.3938423707367
71.1804948443453
70.9674344510692
70.755959066986
70.5473357675361
70.3428018543464
70.1435663072389
69.9508116354434
69.765696104739
69.5893587783296
69.4230116089754
69.2679660072549
69.1255257777295
68.9969841846609
68.8836291854105
68.7867491268896
68.7076389216375
68.6476067296634
68.6079811826821
68.590119198981
68.5954144501006
68.6253065550762
68.6812910945322
68.7648618272313
68.87542044916
69.009859047065
69.1649250411457
69.3373452150086
69.523807018654
69.7209428575718
69.9253174321379
70.1334182502333
70.3416494832509
70.5463293704913
70.7436913980153
70.9298894836026
71.1010073876942
71.2537462272838
71.3880430274571
71.5048521997247
71.6051697671716
71.690028297806
71.7604921943496
71.8176531854763
71.8626260572644
71.8965446585666
71.9205582090251
71.9358279336438
71.9435240432875
71.94482307627
71.9408617774852
71.9321068103551
71.9185005508131
71.8999733876465
71.876457861143
71.8478887585697
71.8142032085275
71.7753407739598
71.7312435435952
71.6818562215992
71.6271262152123
71.5670037201488
71.5014418035345
71.43039658836
71.3538689437401
71.2719675623828
71.1848191283957
71.0925517042177
70.9952945607886
70.8931780108492
70.7863332456515
70.6748921753391
70.5589872732338
70.4387514242439
70.3143177775896
70.1858196040174
70.0533901576582
69.9172033953375
69.778712959121
69.6408523972819
69.5065951748433
69.3788695390374
69.2605630168448
69.1545292896642
69.0635973760729
68.9905830819978
68.9383027135162
68.9095890910116
68.9073099549259
68.9343889137127
68.9938291551801
69.0885277557335
69.2172610428367
69.3749487717855
69.5563476482955
69.756155776522
69.9689792724964
70.1893067435151
70.4114919713766
70.6297452829155
70.8381341842444
71.0305938691272
71.2009481793779
71.3429414884146
71.4502830511906
71.5186989849468
71.5500577663563
71.5474954032541
71.5142497939158
71.4536315458798
71.3689973135486
71.2637259682334
71.1411978191442
71.0047770175175
70.8577972007951
70.7035503708779
70.5452789506357
70.3861709261324
70.229298676621
70.0758226053885
69.9247056708133
69.7748044774614
69.6249951464214
69.4741730001361
69.3212526035564
69.165168145528
69.0048741441871
68.83934645959
68.6675835958728
68.4886082739704
68.3014692543723
68.1052433876001
67.8990589078575
67.6835415430615
67.4616983831658
67.2366857347639
67.011579959334
66.7893766390788
66.5729924869309
66.3652698148657
66.1689833887803
65.9868495207995
65.8215372799268
65.6756817386781
65.5518992162628
65.4528045278995
65.3810303052658
65.3390382495478
65.3264999624475
65.3411101098728
65.3805854886729
65.4426922325973
65.5252293904319
65.626014182218
65.7428688101791
65.873608741503
66.0160324156286
66.1679123598447
66.3269877242161
66.4909582703167
66.657479867972
66.8241659189306
66.9891106400089
67.1514028800798
67.3102339366374
67.4647813604312
67.6142098029956
67.7576720799832
67.8943104569103
68.0232581627456
68.143641135338
68.2545800009805
68.3551922884422
68.4445948755732
68.5219066641084
68.5862554792299
68.637262355478
68.6755050290392
68.7016871929936
68.7165280260505
68.7207597231456
68.7151251468581
68.7003756122345
68.6772688156603
68.646566916538
68.6090347787443
68.5654383771648
68.5165433730592
68.4631138606128
68.4059103382821
68.3455299647514
68.2822290826046
68.216220097096
68.1477145421113
68.0769229253869
68.0040545873117
67.9293175732159
67.8529185190185
67.7750625500742
67.6959531930326
67.615792300501
67.5347799882816
67.4531145849375
67.3709925934289
67.2886850567798
67.2067952053762
67.1260121147293
67.0470182918367
66.9704899876195
66.8970976469624
66.8275064908035
66.7623772277415
66.7023668931811
66.6481298146895
66.6003187029962
66.5595858689171
66.5265845674467
66.5019704713215
66.486385970313
66.480134080225
66.4832071140289
66.4955933421733
66.5172888526935
66.5482975329486
66.5886310677155
66.638308953613
66.6973585298913
66.7658150256899
66.8437216239272
66.9311295420539
67.0280981299678
67.1346949854574
67.2509941954123
67.3768485370785
67.5116676302705
67.6548062150271
67.8056132848883
67.9634304198154
68.127590231954
68.2974149259631
68.4722149769083
68.6512879299147
68.8339173269028
69.0193717667697
69.2069041063385
69.3957508102542
69.5851172503442
69.7737416780366
69.9598028689736
70.1414107991051
70.3166383101842
70.4835238170051
70.640075137498
70.7842744856702
70.9140846573004
71.0274564252325
71.1223371449956
71.1966805523728
71.2484577125906
71.2756690562902
71.277052965864
71.2544558388414
71.2106077410168
71.1482669078843
71.0702044641345
70.9791912574639
70.8779868465581
70.7693306672704
70.6559353688006
70.5404822866632
70.4256190014065
70.3139589212087
70.2080828223161
70.1105251509888
70.0222492650429
69.9414620987119
69.8661083508459
69.794153389829
69.7235806414224
69.6523901647958
69.5785983894329
69.5002389877553
69.415364857699
69.3220511862026
69.2183995587762
69.1025430721525
68.9726523966909
68.8269782230532
68.6657921196432
68.4923381508905
68.310057015233
68.1223279337231
67.9324620998691
67.7436994843583
67.5592088229074
67.3820906107561
67.2153829350164
67.0620699949206
66.9250931888541
66.8073646850112
66.7117834390599
66.6412536771863
66.5979852060898
66.580761727447
66.5873842653968
66.6157064198381
66.6636198597197
66.7290411517912
66.8099000208269
66.9041289575787
67.0096541203209
67.1243875015838
67.2462203539238
67.3730178875788
67.5026152686827
67.6328149593313
67.7614649010773
67.8870744946425
68.0084905549201
68.1245480882345
68.2340689110662
68.3358636187774
68.4287339809612
68.5114757683752
68.5828820126354
68.6417466954011
68.6868688587071
68.7170571224232
68.7311345886151
68.7279441059109
68.7065912130407
68.6680731824365
68.6142875152743
68.5471473786412
68.468568510013
68.3804623937497
68.2847305144268
68.1832596908264
68.0779184823257
67.9705546499024
67.8629936470221
67.7570381111831
67.6544683247844
67.5570436141116
67.4664311971779
67.3830060252889
67.3060607052756
67.2348636289555
67.1686923014209
67.1068321814785
67.0485756845411
66.9932213427645
66.9400731180562
66.8884398642784
66.8376349355091
66.7869759376468
66.735784620923
66.6833869110518
66.629115043264
66.5730935473354
66.5174321071221
66.4645345533938
66.4167898703515
66.3765750731453
66.3462597813319
66.3282124774265
66.3248084560107
66.3384394902349
66.3715252692037
66.4265266920356
66.5059611429677
66.6124199176515
66.7485880250446
66.9167532886884
67.1152774176356
67.340633223965
67.5892478582872
67.8574855579458
68.1416226934943
68.4378264225885
68.7421371574195
69.0504551477532
69.3585315622233
69.661964513097
69.9562005106167
70.2365418478183
70.4981639194661
70.7375539098374
70.9547626447245
71.150457553772
71.3253681452832
71.4802813145313
71.6160365469375
71.7335210743144
71.8336650396774
71.9174367227826
71.9858378746896
72.0398992053818
72.0806760639641
72.1092443462859
72.1266327247026
72.1334715177394
72.1302382495994
72.1174185780357
72.0955053789522
72.0649974770822
72.0263984335094
71.98021539429
71.9269580037743
71.8671373855918
71.8012651936575
71.7298527349827
71.653410165537
71.5724346338685
71.487071527386
71.3970564782088
71.3021062955587
71.2019430480502
71.0962944619127
70.9848943339616
70.8674829575795
70.7438075598534
70.6136227479036
70.4766909623331
70.3327829356232
70.1816781532088
70.0231653148775
69.8572260090371
69.6856120490027
69.5110298584974
69.3361450909273
69.1635706682049
68.9958678572945
68.8355492522932
68.6850835669387
68.5469021552681
68.4234071960224
68.3169814989454
68.2299999181568
68.1648423892809
68.1239086432058
68.1094228351182
68.1207862109574
68.1553833756343
68.2105937111049
68.2838201577495
68.3724743240747
68.473963604861
68.5856802527227
68.7049923863358
68.8292369506639
68.955714670544
69.081687058958
69.2043755549447
69.3209628730244
69.4287693989879
69.5264486751355
69.6132920617842
69.6885980692789
69.7516707461894
69.8018219734111
69.8383738741416
69.860661328407
69.8680345789598
69.8598619135322
69.8355324066234
69.7944587022677
69.7360798176033
69.6598639455782
69.5655621859128
69.4539576454104
69.3261004788388
69.1830508786934
69.0258745295323
68.8556383650395
68.6734066444741
68.4802373601137
68.27717898261
68.0652675468863
67.8455240773586
67.6189523478686
67.3865369687871
67.1492417912795
66.9080867572547
66.6649033470499
66.421979332611
66.1815442136304
65.9457633327571
65.7167408009243
65.4965237353304
65.2871077153019
65.0904433753967
64.9084440717868
64.7429945769148
64.5959607784816
64.4692003819578
64.3645746411398
64.2839611690345
64.2290831297987
64.2001030247013
64.1964173788912
64.2174768233299
64.2627886799411
64.331913104373
64.4244595955725
64.5400838313503
64.6784847938008
64.8394021524691
65.0226138766255
65.2279340509951
65.4552108718539
65.7043248026112
65.9751828662178
66.2667109786678
66.5754684345077
66.8975681591935
67.2289796413748
67.5655130222082
67.9028079029556
68.2363273998648
68.5613580319422
68.8730160551707
69.1662608497364
69.4359159183533
69.6766979575479
69.8832543145588
70.0503497211663
70.1765628738108
70.2647119157264
70.3179841841851
70.3396985985923
70.3332740270968
70.3022001957364
70.2500115542136
70.1802644038197
70.0965174931413
70.0023161990463
69.9011803361719
69.7965955789145
69.6920084362597
69.5905763209918
69.4927484093111
69.3973438167884
69.303171968667
69.2090553226536
69.1138291057681
69.0163414471981
68.9154538957322
68.8100423099572
68.6989981084963
68.5812298661812
68.4556652402148
68.3212532081456
68.1769665968883
68.0218989799191
67.8566082116926
67.6827712984546
67.5020701668657
67.3161578288577
67.1266556886346
66.9351516789126
66.7431991881615
66.5523167380686
66.3639883695112
66.1796646958386
66.0007645840717
65.8286774275949
65.6647659779025
65.5103697078617
65.3667778222165
65.2351166107384
65.1164601514426
65.0118799468143
64.9224496204473
64.8492499622625
64.7933743537431
64.7559346030415
64.7380672281941
64.7409402360064
64.765760454627
64.8137814896748
64.8863123873008
64.9847271031361
65.1104690267246
65.2635941775753
65.4407998076594
65.6382791391212
65.8521699062907
66.0785315338071
66.313326656308
66.5524071962606
66.7915053027042
67.0262295180974
67.2520665800617
67.4643892757797
67.658470744898
67.8295055677666
67.9726381472679
68.0843334515224
68.1655385242319
68.218217790883
68.2444241607036
68.246282261537
68.2259725314937
68.1857163659678
68.1277624809851
68.0543746172734
67.9678206749686
67.8703633373671
67.7642522142266
67.6517175112287
67.5349652125973
67.4160500388307
67.2962058427176
67.1763363808508
67.057331889615
66.9400700405482
66.8254163375375
66.7142247358675
66.607338475347
66.5055911205678
66.4098078024013
66.3208066560754
66.2394004526117
66.166398422021
66.1026082684586
66.0488276654653
66.0051074911425
65.9702794533231
65.9430741877161
65.9222323580936
65.9065019894288
65.8946362902485
65.8853919548922
65.8775279394778
65.8698047076975
65.8609839441388
65.8498287336508
65.8351042053614
65.8155786393018
65.7900250322215
65.7574854319458
65.719544476542
65.6792024375078
65.6394618125206
65.6033107890756
65.5737251710034
65.5536730055248
65.5461218935623
65.5540489887858
65.5804537238623
65.6283733459397
65.7009013982119
65.8012093516973
65.9325716729671
66.0983843802193
66.2996091122476
66.5312855239819
66.7875379710777
67.0623606217895
67.3495759418064
67.6428035793517
67.9354404572228
68.2206530941918
68.4913833072606
68.7403684724352
68.9601774267259
69.1432628601924
69.2820306597773
69.3690148485154
69.4018410662212
69.385832361196
69.3271405095937
69.2320494347173
69.1069043132051
68.9580516444363
68.7917908914235
68.6143378903988
68.431799902949
68.2501619529053
68.0752839487005
67.9129080353313
67.7686756412896
67.648147850849
67.5544752526524
67.4848540239482
67.4356300416107
67.4032115153829
67.3840492312427
67.3746207424663
67.371418355429
67.3709408191278
67.3696886721859
67.3641632294912
67.3508692030029
67.3263209477626
67.2870523048443
67.2296299780987
67.1515334234423
67.0553266752778
66.9453908138546
66.8260743371149
66.7016759502681
66.5764355592791
66.4545307829286
66.3400787878769
66.2371432480282
66.1497462537022
66.0818850458869
66.0375535248993
66.0207685806917
66.0356014145197
66.0861545141344
66.1733291955468
66.2931109832673
66.4411100399397
66.6129342142085
66.8041534406573
67.0102697947099
67.2266932357439
67.4487232268904
67.6715365452791
67.8901816900015
68.0995803532883
68.2945364385839
68.4697530819356
68.6199023462683
68.7420928553226
68.8372048845976
68.9065075278944
68.9513417620757
68.9731104235957
68.9732683984452
68.9533131411105
68.9147756238305
68.8592118025841
68.788194671298
68.7033069611405
68.6061345277938
68.4982604565652
68.3812601394012
68.2567131062848
68.1262095297215
67.9913224030917
67.8536027632277
67.7145781722231
67.5757519105352
67.4386028539096
67.3045860059975
67.1751336591303
67.0516571574745
66.9355492396077
66.8281869413758
66.7309350446228
66.6451500630141
66.5718857846708
66.5106157413987
66.4603076752799
66.4199464623829
66.3885312762014
66.3650727573846
66.3485905050269
66.3381108765238
66.3326650859948
66.3312875938428
66.3330147822008
66.3368839128224
66.3419323654215
66.3471971555699
66.3517463902907
66.3556441590062
66.3601279159871
66.3665031332981
66.3760765122924
66.3901569859816
66.4100572386655
66.4370957474022
66.4725993528622
66.5179063709759
66.5743702615866
66.6433638761241
66.7262843132024
66.8245584191294
66.939648243055
67.0718871739624
67.2180770542492
67.3743077932188
67.5366060615301
67.7009252991165
67.8631404007717
68.0190473121067
68.1643677852048
68.2947595341235
68.4058319930654
68.4931678125051
68.5523501294604
68.5789955172672
68.5687934586028
68.5192876334587
68.4334149028737
68.3151916253415
68.1686806904996
67.9979564354944
67.8070743047148
67.6000454273971
67.3808161503728
67.1532524507126
66.9211290660612
66.6881231185826
66.4578119702412
66.2336750306016
66.0190992411052
65.8172947441
65.6295531510993
65.4554541455962
65.2945367785646
65.1463622051922
65.0105121026422
64.8865871994024
64.7742059062181
64.6730030395945
64.5826286297311
64.5027468055359
64.4330347500697
64.3731817204007
64.3228881264141
64.281864663631
64.2498346908366
64.2265792325793
64.2119254994907
64.2057090108967
64.2077721413121
64.2179637130311
64.2361386086299
64.2621574018249
64.2958860052409
64.337195333752
64.3859609821527
64.4420629160019
64.5053851745656
64.5758155848575
64.6532454858416
64.7375443368041
64.8283650051684
64.9252468721058
65.0277259891396
65.1353351261918
65.2476029536826
65.364053287194
65.4842043955631
65.6075683737219
65.7336505820229
65.861949154177
65.9919545762811
66.1231493397237
66.2550076710337
66.3869945415441
66.5184935903381
66.6487484616475
66.7769776406662
66.9023880836111
67.0241757330495
67.1415262309704
67.2536158356464
67.3596125475443
67.4586774485284
67.5499662573544
67.6326311029644
67.7058225153767
67.7686916320021
67.820393033013
67.8603903309122
67.8889954553458
67.9066769317656
67.9139151758043
67.9112009697603
67.8990339845214
67.8779213540949
67.8483763091016
67.8109168747856
67.7660646383001
67.7143435892523
67.6562790367515
67.5923966054944
67.5232213127564
67.4493417611433
67.3716880628561
67.291296972976
67.2091964680809
67.1264050257523
67.0439312909575
66.9627740496346
66.8839225017643
66.8083568264059
66.7370490317286
66.6709640839763
66.6110613105388
66.5582960738699
66.5136217148682
66.4779999225427
66.4526131468556
66.4388854504185
66.4382616939449
66.4522010537458
66.4821831028001
66.5297146100916
66.596337110766
66.6836353139191
66.7932464312527
66.9268705288375
67.0862820263233
67.2733424937833
67.4900149267881
67.7383508247021
68.0178984064927
68.3235161477792
68.6494321285348
68.9896799174237
69.3380649877887
69.6881411949424
70.0331984018152
70.3662625005951
70.6801091509385
70.9672925214105
71.2201901599497
71.4310648130491
71.5921435487585
71.6971405342011
71.7482910861698
71.7511159368366
71.7113531656567
71.6348814516528
71.5276555803952
71.3956510852518
71.2448186468959
71.0810485277144
70.9101450362656
70.7378108061156
70.5696405335775
70.4111237472515
70.2676426208987
70.1422236835702
70.033057011439
69.9377660269778
69.8540172445284
69.7795117970086
69.7119785835736
69.649168968449
69.5888529782213
69.5288169574938
69.4668626512659
69.4008076868905
69.3284874291479
69.2477581789994
69.1565239694483
69.0539583658075
68.9411171390905
68.8192065943721
68.6894248173955
68.5529588518571
68.4109823074766
68.2646533921094
68.1151133580924
67.9634853505842
67.8108736438556
67.6583632502705
67.5070198860323
67.357890277619
67.21200284157
67.0706052725983
66.9357075845609
66.8094513258745
66.6939505167563
66.5912980148765
66.5035731543628
66.4328506506533
66.3812107856594
66.3507509130185
66.3435983521922
66.3619247733099
66.4079622126963
66.4840209029598
66.5925091526809
66.7355645551049
66.9107145550316
67.1123584649675
67.3347680080647
67.5721010500259
67.8183688272997
68.067413091409
68.3128938463614
68.5482884987169
68.7669033017764
68.9618979442048
69.12632399645
69.2531776743609
69.3354670013952
69.3673161189923
69.3502945128933
69.2893164301486
69.1894543888799
69.0558668159739
68.8937450340279
68.7082677017317
68.5045630736193
68.2876791868899
68.0625618736619
67.8340403387895
67.6068199354493
67.3854817101518
67.1744882713994
66.9780845080586
66.7978877893432
66.6329704560042
66.4823316277189
66.3450046123123
66.2200530086645
66.1065671691033
66.0036609907545
65.9104690096475
65.8261437751524
65.7498534856301
65.6807798690712
65.6181162950285
65.5610661063522
65.508841161154
65.4608785008967
65.4180205135414
65.3816611734186
65.3531929383105
65.334008449354
65.3255042109942
65.329084875014
65.3461681458556
65.3781903328408
65.4266125845999
65.4929278521902
65.5786686402456
65.6854156203188
65.814807197723
65.9685348695107
66.1469795765556
66.3480858555773
66.5695315609348
66.8089653880188
67.0639921614325
67.3321596221402
67.6109467608053
67.8977537840922
68.1898938365846
68.4845866327646
68.7789541805379
69.0700187991109
69.3547036484636
69.6298823011574
69.8935887301294
70.1451778998507
70.3840734711
70.6097026530694
70.8214980070597
71.018899316951
71.2013555185903
71.3683266792374
71.5192860172269
71.6537219510682
71.7711401663127
71.8710656877093
71.9530454345286
72.0170064485404
72.0638896990487
72.0948358338388
72.1110118319634
72.1136059981633
72.1038232757417
72.0828809089528
72.0520044799395
72.0124243395629
71.9653724462106
71.9120796219149
71.8537732309007
71.7916752820666
71.7268490879984
71.659031877379
71.5872857128391
71.5106757923093
71.4282772193695
71.339176369976
71.2424724814778
71.1372794534683
71.0227278482912
70.8979670771185
70.7621677554941
70.6145242101089
70.4542571163983
70.2806168419539
70.0938271837284
69.8969583940286
69.6935566721219
69.4870938819414
69.2809633578085
69.078479142192
68.8828784558986
68.6973272067158
68.5249283604511
68.3687330271752
68.231754154175
68.1169827649112
68.02740673983
67.966032200395
67.9349177803
67.9318426293211
67.9534652605237
67.9964947467927
68.0576683206896
68.1337322426218
68.2214258339678
68.3174686099559
68.4185505054265
68.521325232518
68.6224068429511
68.7183695886385
68.8057511822427
68.8810595686484
68.941336428279
68.9856380868382
69.0134973490608
69.0244687829433
69.0181308198698
68.994087821465
68.9519720972786
68.8914458570754
68.8122030813579
68.7139712937797
68.5965132193476
68.4596283127518
68.3031541418132
68.1269676119015
67.9314768879157
67.7194735577556
67.4944172360071
67.2596997200721
67.018634315449
66.7744487970128
66.5302816674068
66.2891815004775
66.054109151741
65.8279426238357
65.6134843912231
65.4134710135849
65.2305849002383
65.0674681275162
64.9267352940897
64.8098098607202
64.7151591937001
64.6408517103271
64.5850129442419
64.5458144389195
64.521463899786
64.5101965025273
64.5102672780449
64.5199445140338
64.5375041297831
64.5612249948319
64.589385173809
64.6202590892831
64.6521156018523
64.6832199303753
64.712035397211
64.7373559919606
64.7580040091789
64.772800483534
64.7805670995156
64.7801285289615
64.7703151909438
64.7499664246851
64.7179340617159
64.6730863784748
64.6143124050701
64.5405265600456
64.4506735748431
64.3437336653439
64.2187995153743
64.0782383900055
63.9288641174128
63.7777055517084
63.6316627989426
63.4975115050851
63.3819216679103
63.2914903789868
63.2327881346456
63.2124187047272
63.2370930153657
63.3137180967387
63.4495028907677
63.6520836457219
63.9296728051069
64.2910170538243
64.737466809788
65.2601689780063
65.8494109880498
66.4950502241825
67.1862873908772
67.9114637385555
68.6578867728761
69.411692085035
70.1577517577645
70.879642204139
71.5596859427232
72.179082249926
72.7181666793892
73.1633998590859
73.5169572123924
73.7841241860446
73.9710445101941
74.084573685863
74.1321319522366
74.1215624299803
74.0609992136454
73.9587491540245
73.8231900252965
73.6626867905105
73.4855268205573
73.2998730631764
73.1119093649439
72.9221903338224
72.7302278592121
72.5355449889929
72.3376761879434
72.1361676505105
71.9305776636734
71.7204770155267
71.5054494450641
71.2850921284979
71.0590161972866
70.8268472828905
70.5882260831136
70.3428363407407
70.0911051920559
69.8342383264617
69.5734508994454
69.3099261245332
69.0448144617442
68.7792332160171
68.5142665177747
68.2509656578896
67.9903497499263
67.7334066935864
67.4810944147077
67.2343423589124
66.9940532180002
66.7611048990718
66.5363977448488
66.3209462139969
66.1157679283307
65.9218609723668
65.7402075301027
65.5717777722745
65.4175339934258
65.2784350032813
65.1554407823504
65.0495174174531
64.9616423390331
64.89280988878
64.8440372533626
64.8163708080921
64.8108842413858
64.827908052216
64.8664156797811
64.9252743310786
65.0033824631853
65.0996628718195
65.213056252545
65.3425151858671
65.4869985068111
65.645466028015
65.8168735930748
66.0001684439794
66.1942848930732
66.398140296166
66.6106313292233
66.8304516330813
67.0552107971987
67.282071197779
67.5081171881463
67.7303544154446
67.945711229441
68.1510428805258
68.3431386772436
68.5187322536609
68.6745150641952
68.8071531773605
68.9133073797914
68.989656528015
69.0329239985812
69.0408420422698
69.0153499873133
68.9596073843047
68.8768389491015
68.7703081138497
68.6432934206941
68.4990679299179
68.3408817595095
68.1719477981526
67.9954305710352
67.8144381882287
67.6320172686687
67.4511507085026
67.2747581499786
67.1055206068146
66.9441522954399
66.7901940798709
66.6431823332628
66.5026647946962
66.3681996665584
66.2393547862388
66.115706867646
65.9968408085332
65.8823490600439
65.7718310552676
65.6648926939343
65.5611458806736
65.4602081145301
65.3617021276596
65.2653991326593
65.1716459233356
65.0809284400483
64.9937277922081
64.9105207687144
64.8317804152984
64.7579766777143
64.6895771101027
64.6270476482706
64.5708534480843
64.5214597896698
64.4793330486449
64.4449417361879
64.4187576103653
64.4012568733505
64.3929396858735
64.3943685236142
64.4061249000063
64.4288007560134
64.4630004048707
64.509342619517
64.5684628749693
64.6410157598125
64.7276775731199
64.8291491255306
64.9461587659234
65.0794656581953
65.2298633361438
65.39818356842
65.5852422570316
65.7900541012932
66.009444803851
66.2400453515466
66.4784010337728
66.7209605378543
66.9640685812103
67.2039623536028
67.4367720716528
67.6585259589848
67.8651599561312
68.0525324319211
68.2164441099506
68.3526633379094
68.4570272635306
68.5280571130064
68.5677481895474
68.578416855651
68.5624603650137
68.5223373816252
68.4605498553195
68.3796264575275
68.2821077308933
68.1705330595425
68.0474295243044
67.9153026699612
67.7766291801474
67.6338514301354
67.4893723865875
67.3451863262113
67.2024048285615
67.0620016473712
66.9249344446902
66.7921456988235
66.6645638700478
66.5431048142034
66.4286734358513
66.3221655745314
66.2244701197441
66.136471352595
66.0590515146021
65.9930936069561
65.939484426587
65.8990367582075
65.8714742853066
65.8557444420664
65.8507926622092
65.855576306408
65.8690614163336
65.8902198158015
65.9180265466001
65.9514576302206
65.9894881498856
66.0310906499966
66.0752338524284
66.120881690986
66.1669926668222
66.2125202153628
66.2569105419633
66.3009860565801
66.3458100888672
66.3924517601303
66.4419864068432
66.495496353365
66.5540720399415
66.618813513392
66.6908322897107
66.7712536001783
66.8612190355079
66.9618896060941
67.0744492406408
67.2001087503939
67.3397736498427
67.4922036448061
67.6552834533362
67.8268639614342
68.0047579039596
68.1867347338172
68.3705168695721
68.5537773954714
68.7341392971015
68.9091763211322
69.0764155483539
69.23334176501
69.3774037077814
69.506022257359
69.6171442023334
69.710701822792
69.7871076259868
69.8468045299485
69.8902635934357
69.9179817032637
69.9304792378356
69.9282977249383
69.9119975109263
69.8821554573506
69.8393626799057
69.7842223432967
69.7173475243007
69.6393612464658
69.5511449526876
69.4540703587541
69.3495580198773
69.2390174666585
69.1238445594532
69.0054194271439
68.8851049775997
68.7642459642054
68.6441685909236
68.5261806373785
68.4115720853498
68.3016162287943
68.1975712510077
68.1006813406157
68.0118142676786
67.9309119393713
67.857779049979
67.792227011152
67.7340735501721
67.683142328634
67.6392625800988
67.6022687653858
67.572000244269
67.5483009624386
67.5310191526737
67.5200070492493
67.5151206146734
67.5162192779192
67.5230398178924
67.5347140394179
67.5501916883867
67.5684220967068
67.5883531975703
67.6089308299671
67.6290983707508
67.6477966959783
67.6639644735099
67.6765387886937
67.6844561043534
67.6866535552553
67.6820705757429
67.6696508573043
67.6484240523774
67.6181192973631
67.5788290933401
67.5306557264888
67.473708075475
67.4081013523635
67.3339568346588
67.2514015894858
67.1605681909248
67.0615944315191
66.9546230289641
66.8398013289803
66.7172810053534
66.5872177581104
66.4497845510531
66.3061024316197
66.158819967571
66.0106839387325
65.8643929767079
65.7225982285827
65.5879061692938
65.4628834677109
65.3500638250855
65.2519567244817
65.171058055732
65.1098626121811
65.0708784930532
65.0566434890696
65.0697435796463
65.1126882073789
65.1855350810717
65.2862577674922
65.4128093448358
65.5631732930656
65.735347444543
65.927329238055
66.1371021824029
66.3626234732182
66.6018127408345
66.8525419384167
67.1126264084242
67.3798171919725
67.6517946696732
67.9261668035127
68.200582105833
68.4727662044247
68.740383072808
69.0010268572114
69.2522251979732
69.4914443778877
69.7160964039486
69.9235481116224
70.1111323567541
70.2761613291484
70.4159419836724
70.5277935395901
70.609066947284
70.6576706599759
70.6751738218479
70.6647845360543
70.6297847159967
70.5734995819418
70.4992762026733
70.4104650812028
70.3104048973674
70.2024104536885
70.0897638167941
69.9757086054969
69.8634473482748
69.7561418170614
69.6569162131319
69.5678884894858
69.4876199751122
69.4138875896258
69.3444913973585
69.2772511234752
69.2100040712062
69.1406044076311
69.0669237892671
68.9868532989571
68.8983066623682
68.7992247059488
68.6875810086456
68.56138868728
68.4187082405345
68.2589381325413
68.0866167327067
67.9074805227174
67.7271554071072
67.5511508195687
67.3848629898359
67.2335868883588
67.1025364216483
66.9968725615325
66.9217392524931
66.8823071509689
66.8838255103961
66.9316828412204
67.0314773565391
67.1883550237957
67.3997545860331
67.6583482208198
67.9567118689416
68.2872934538232
68.6423269895567
69.0137624018388
69.3932121353901
69.7719162546414
70.14072822973
70.4901239036369
70.8102362135915
71.0909180391409
71.3218605406786
71.4970243645029
71.6197170630035
71.6947179665682
71.7270549246391
71.7219402725577
71.684712426152
71.6207842160662
71.5355987504829
71.4345933016502
71.3231714600709
71.2066835976429
71.0904155310558
70.9795851800396
70.8788804784966
70.7879222654655
70.7032873381175
70.6215461471107
70.5393021651534
70.4531906376091
70.3598805662589
70.2560798417302
70.1385434264465
70.0040844643751
69.8495881572875
69.6720282009187
69.4684855199411
69.2361689801402
68.9731106245704
68.6822311088553
68.3684731277367
68.0366781632231
67.6915518148853
67.3376446141428
66.9793395575637
66.6208458452084
66.2661982676829
65.9192616777072
65.5837400030136
65.2631893018511
64.9610344254582
64.6805889295401
64.4250779659797
64.1970648406639
63.995933588686
63.8201023763801
63.6680772496437
63.5384419195073
63.4298479596242
63.3410059504743
63.2706774573406
63.2176677463786
63.1808191578961
63.1590050686978
63.1511243863914
63.1560965281541
63.172856844873
63.2003524589639
63.2375757249157
63.2838845470056
63.3388437931587
63.4020247059121
63.4730014947753
63.5513502200622
63.6366477367605
63.728470695951
63.8263946018799
63.9299929233449
64.0388362585772
64.1524915532977
64.2705213720858
64.3924832236418
64.517928940932
64.6463585536857
64.7769702470559
64.9088323817238
65.0409978166727
65.172503892507
65.3023724064735
65.4296098794212
65.5532081266674
65.672145144292
65.7853863215267
65.8918859886081
65.9905893077109
66.0804345123373
66.1603554978181
66.2292913739289
66.2865523157521
66.3320132450179
66.3656073938739
66.3872805924469
66.3969914304962
66.3947113852665
66.3804249148562
66.3541295165919
66.3158357500713
66.2655672247171
66.2033605518635
66.1292652615775
66.043343684595
65.9456707999266
65.8368400463796
65.721408868032
65.6057416375631
65.4961260825598
65.3987680548717
65.3198092368449
65.2653563236607
65.2415215526476
65.2544747261759
65.3105072417764
65.4161091108217
65.5780605337784
65.8035403357883
66.1002544971507
66.4764835354793
66.9338564057247
67.4620774422869
68.0493785567178
68.6833716734622
69.3508230308243
70.0374666162912
70.7278650724562
71.4053295602641
72.0519125238477
72.6484886527177
73.1749390549985
73.6104511625163
73.9341358681415
74.1390664985143
74.2418172607086
74.2622010388395
74.2207251486548
74.1381937397651
74.035420598616
73.9330580051342
73.851541943496
73.8111513200411
73.8321788940576
73.9352142953904
74.1407071790947
74.4508758508397
74.8492164866794
75.3182968797407
75.8401935021604
76.3961721358328
76.9664492990534
77.5300446842415
78.0647392859061
78.5471564300992
78.9529828619686
79.2573436573929
79.4357181321962
79.4785339171298
79.3957285300772
79.1995915750453
78.9032189945557
78.5201735713105
78.064180598108
77.5488670390675
76.9875486634789
76.3930663112508
75.7776698114664
75.1529461787688
74.5297875275633
73.9182385577547
73.3236107174568
72.7465113892327
72.187287425198
71.6462584831025
71.123720793892
70.6199507935142
70.1352086268276
69.6697415330386
69.2237871234743
68.7975765637443
68.3913376734796
68.0052979579059
67.6396875865352
67.294743309777
66.9708734209107
66.6688338779185
66.389421974844
66.1334383606016
65.9016940658367
65.695017735199
65.5142631189172
65.3603168866701
65.234106836847
65.1366105856655
65.0688648336194
65.0319753217541
65.0271276078171
65.0555988129868
65.1186765913516
65.2152449928326
65.3415332610395
65.4936596680882
65.6677339182219
65.8598276636204
66.0659494942189
66.2820244426502
66.5038781629132
66.7272260377053
66.9476675431672
67.1606862485247
67.3616558483286
67.5458526127086
67.708495297185
67.8466332545708
67.960689142028
68.0514957134163
68.1199457606862
68.1669858662403
68.1936101347927
68.2008539754
68.1897879988471
68.1615120894233
68.1171497035344
68.0578424407316
67.9847449257979
67.8990200336537
67.8018346482183
67.6944754694991
67.5785541305623
67.4557248807072
67.3276238235076
67.1958660962896
67.0620438567211
66.92772505149
66.7944529389945
66.6637463364886
66.5371005621277
66.4159890437206
66.3018655686192
66.1961671529716
66.1003175134456
66.0156511873621
65.9422752242546
65.8793509019815
65.8260304655903
65.7814802475678
65.7448783611579
65.7154126254274
65.6922787109661
65.6746784972186
65.6618186342931
65.6529093036994
65.6471631738411
65.6437945472586
65.6420186975763
65.641051394875
65.6401086187827
65.6384064589582
