Value(μV)
780.40858025841
1124.04691870596
1240.6920980063
1162.65193109649
1013.41402042803
878.982287042472
749.841627445907
574.803866146895
345.956864126586
115.944733944937
-59.5714928764029
-176.319084430566
-270.525867339076
-365.39337953435
-444.274424650152
-478.750302601402
-470.206089422913
-451.807392329179
-451.617475955233
-464.898342609776
-467.65260070007
-450.093590103942
-427.034882496556
-415.672561717767
-413.022535528277
-402.404654546308
-378.323502068924
-355.65163223965
-351.051103894912
-361.203810109274
-365.948728025561
-351.880488143206
-326.428270206104
-305.894303219892
-294.340105264649
-280.359597921266
-254.293311167045
-222.358026764002
-199.579288841965
-191.522788819905
-188.533205656096
-178.907086950443
-163.018195087733
-150.477496989201
-145.433576530452
-140.198117159216
-125.455584108297
-103.133280217612
-84.8250357213412
-77.879833519455
-77.1320744721245
-72.3662380008496
-61.0973037901393
-50.096652960166
-44.604853498185
-40.3005832713989
-28.8378284524566
-9.43107874479977
9.00390170808129
18.1120680768137
19.5727960974994
21.9330103942492
29.5171120179164
37.9784342859996
41.6813794673894
42.3962472744102
47.4489722933098
59.7991274604093
73.3059484639732
79.6024874160197
77.8309687052077
74.9461140721845
76.6939886887001
81.2075416314101
83.1315231113679
82.0858204403826
83.8177900617801
92.4578819399215
104.260065930523
111.296977170545
110.536153299139
106.80240103016
106.220335532665
108.953993246925
110.451541885222
108.855976199818
108.222251391205
113.100894847018
121.764469714938
127.277365480436
125.325356184162
118.900231713132
114.102939423667
112.810982979692
111.648131236805
108.018410526372
104.624603665343
106.176258641634
112.642974825376
118.193599166323
117.583302931388
112.009945543361
107.155139265076
106.218980379233
106.958739605436
106.1007239459
104.692318560957
106.945774465933
114.041563872802
121.262916910297
122.598022444181
117.213652078049
109.772635631553
104.520045024477
100.888568918255
95.9453327243955
89.7932386379785
86.2909593698874
87.9597477136447
91.9057932593108
92.4237753342371
87.2448563292123
79.645681912461
74.0149878216684
70.8151944842169
67.2809342337824
62.3698776108295
58.9079006503323
59.8432969646349
63.6091108690711
64.9880436491209
60.7330023899893
52.9633347220124
46.2144313896638
42.1446189703657
38.6403965713084
33.9869131876618
30.0632197796562
30.0244394882763
33.5112330676674
35.9381554638044
33.1832866551089
25.9417550394713
18.4013907158262
13.1777143155008
9.04034139901938
3.97389317884318
-1.0155820847709
-2.7622604548126
-0.432980637101238
2.44492930944546
1.4343162550544
-4.02072847931797
-10.3932828576459
-14.4969156849016
-16.7583684317026
-19.3861824322093
-22.3643696563914
-22.9794424256199
-19.6669033986145
-14.9812959986258
-13.4503380240247
-16.7327814624682
-22.0759240398669
-25.8591388811254
-27.5605993079465
-29.2164207951841
-31.5643472723849
-32.4039375428715
-29.5644543189349
-24.5130877233925
-21.5620622695475
-23.3145618962426
-27.9483278261154
-31.6428367524435
-32.9222631402155
-33.4483645269554
-34.6729280121581
-35.2192050512326
-32.7158748934386
-27.669013350684
-24.0299986289023
-25.3178372339116
-30.9675374195536
-37.3626555883017
-42.0615548273147
-45.8248363999892
-50.2021792838572
-54.3558371923935
-55.6591350720979
-53.3723339125644
-50.3955738091509
-50.4734201096377
-54.1594441347676
-58.5242798527287
-60.812365677877
-61.2970753985058
-61.8865292827228
-62.7479311229664
-61.7497697427719
-57.5830259561503
-52.3228943818614
-49.7491077186299
-51.2601630799407
-54.430263117062
-55.9338778624806
-55.0546291330529
-53.4734848811199
-52.0625595303167
-49.2954419599411
-43.5422095095289
-36.1455622869155
-30.9490244581601
-30.5197055431482
-33.6564786995492
-37.1820803313124
-39.5873247499035
-41.926203730051
-45.187655673829
-48.0389726669272
-48.1858721572113
-45.5823960797019
-43.0794808649027
-43.3726161282861
-45.9811683049904
-48.02428229109
-47.700811402041
-46.0106955516587
-44.7402462560643
-43.7043714842262
-41.103733497762
-36.5295303131192
-32.445030481431
-31.8609526017606
-34.9380317437838
-38.7653562054076
-40.5531304490138
-40.1919542117049
-39.1511488688225
-37.5864966086262
-33.7982301243558
-26.8632960612146
-18.8336270592918
-13.287881902574
-11.7738841034185
-12.5149438797087
-12.9080564545345
-12.5322630682829
-12.9018982033203
-14.6095882999926
-15.9351946206508
-14.9252384686749
-12.1731611032042
-10.4445741010443
-11.388647982019
-13.4605906624876
-13.6990739244736
-11.0722799251232
-7.18801273439651
-3.7312983389704
-0.282149131369233
4.49901253938234
10.0136793577225
13.2979834459862
11.9872946033601
7.07628957983839
1.98228490862323
-0.879037581458162
-1.67748837964701
-1.16779485362013
1.7945868443564
9.49442079228094
22.1082876944301
36.3335800283034
48.0607440473873
55.9888200682595
61.7112290813256
66.2901770309405
67.9111097692647
63.8132340616763
54.0361186337619
41.9982616801472
30.9582412002416
20.8366977262844
9.55469066186408
-2.77784289852364
-12.318756055339
-14.8590616679731
-10.1030138713224
-1.62595778723183
7.30060400632892
16.6747135511112
27.9127737485012
39.922554718582
48.5713385901194
50.5924108911395
47.126713878341
42.4096845675188
39.1910874004026
36.487761588528
32.1113793522762
26.2763909896217
21.4394495946849
18.7191486333537
15.8728861016755
9.7768178513951
0.372390830451778
-8.9885826225982
-15.2552882814439
-18.695713825952
-21.5010075768525
-24.1281206926058
-24.4658893290616
-21.0178204748323
-15.7591463935268
-12.5756945930842
-13.018856000647
-14.8161174047118
-15.1166839941963
-14.2488363225494
-15.0359483708021
-18.5867736375296
-22.2654941594046
-22.7816951552108
-20.4649790273002
-18.9211433465751
-20.1917708210118
-21.6822254703977
-19.203930025272
-12.5626205922642
-6.42713759647687
-4.9362076603573
-6.65212761131461
-6.44184573005283
-2.21920459270559
1.94224250705671
0.517729983772339
-6.72092886098425
-14.6812891847615
-20.1981433009845
-27.7449899476103
-46.2262842714011
-80.2369975534588
-125.930044306378
-175.843446852334
-225.972551373924
-276.043051748335
-323.248486363945
-358.580446498297
-371.670423860345
-358.778471531445
-323.988812041797
-272.198697065188
-203.261305848881
-115.182232751823
-11.7102891402748
97.5595044119863
207.491824920991
325.973083617093
467.315377464976
634.006875178505
806.329429424825
953.639884417357
1057.49291238045
1121.89428900426
1158.73340352423
1164.31632492325
1114.42752548605
986.077229420685
784.458406351653
546.649087464373
317.434878985897
121.183323245099
-43.9227687042023
-188.016753048564
-310.591007539747
-400.354359757907
-450.399155149934
-468.846248712041
-472.950583390241
-474.866529673917
-475.547830273564
-471.661674807017
-464.771048976066
-461.11773501557
-463.507332416836
-466.731503399687
-462.853118583277
-449.960153489215
-433.814065059088
-420.799951265422
-411.011820055943
-399.464410047461
-383.103448398423
-364.612928991652
-348.73626663028
-336.299346267572
-323.46088146452
-306.661755651373
-286.707588891545
-267.059494819613
-249.028579864563
-230.253033272905
-208.247738845091
-184.236229443343
-162.296379922737
-144.953423016641
-130.743285789684
-116.540801321101
-101.415207553212
-87.1722993557005
-75.2914079825403
-64.5524716231596
-52.4702487140279
-38.5380569644568
-24.9763743960805
-14.0200641205821
-5.25472729569801
3.65194839101103
13.9006523144184
24.1422807940388
32.3673896549309
38.4832532107801
44.2205356768778
50.6277651634239
56.5540125426581
60.1451548890463
61.4038140808736
62.4995181733461
65.4516244092681
70.1421119759363
75.057868094158
79.5717237904225
84.6839228864125
91.3337443157953
98.6662791522505
104.684487692205
108.535987074135
111.500105249205
115.404212053658
120.496788465576
125.432640182048
129.224077310963
132.491174747372
136.37441595541
140.632502068528
143.55511754693
143.933737438368
142.602277977445
141.562536110181
141.784298950128
142.418487963617
142.281711237831
141.554387093207
141.464857201723
142.457406257756
143.352180485659
142.687085350584
140.551069295051
138.551108786246
137.947530547656
138.308033507695
138.28993715695
137.397031357427
136.391805139134
135.926250752796
135.335345299226
133.284055537318
129.459464546468
125.084070636434
121.548644461266
118.895276251122
116.033775652978
112.293818102242
108.231005357584
104.699288307853
101.558947849918
97.8559560341296
93.2862287998191
88.9676610951136
86.3886351789889
85.7799270613699
85.925983371071
85.5765370357454
84.589272954348
83.3930444685127
81.6668423860585
78.1973603877313
72.2766711365056
64.8575362239578
57.869440653666
52.4210065836002
48.0467132469671
43.8144467436593
39.7413432126476
36.6569517865412
34.7816498967505
33.0314117464724
30.1117163248976
26.0681284868359
22.278418022274
19.8251675227002
18.251233902725
16.1990132560479
13.03309252482
9.36013107616472
5.88476551098131
2.23389389828873
-2.62433653664711
-8.89432573505431
-15.3731910952752
-20.5997691748281
-24.3319638712193
-27.5530031435955
-31.1059744401967
-34.7437482434045
-37.702696300806
-39.8528784718779
-41.7894283897447
-43.7596667222196
-44.958484786861
-44.2662668989636
-41.5791210927794
-38.070828132872
-35.0986439188931
-33.1761662524026
-32.2229484567332
-32.503907072228
-34.7479694120725
-39.1355533098561
-44.5271531706419
-49.1474325989849
-52.0799286347683
-53.8221055397349
-55.3029955408927
-56.69432399996
-57.5204153886619
-57.771554579626
-58.3502796608073
-60.0759813669253
-62.467598072186
-63.9563831953297
-63.4225212565147
-61.262023034262
-58.7695024732156
-56.7185947553866
-54.9269836563015
-53.1862764197635
-52.1198606857128
-52.6912632997045
-54.9594784906066
-57.7493154977446
-59.7556011980659
-60.7627159342157
-61.5501231538509
-62.7690969237816
-64.3185362906759
-65.9177457066649
-67.8731789880345
-70.7977756692798
-74.5675453034489
-77.9700607686148
-79.6657411382223
-79.3324497713178
-77.5748800168015
-74.7940890550171
-70.5863329306294
-64.5031532065751
-57.1112587058073
-49.8009848587367
-43.4384718171969
-37.5865787084492
-31.4055542064696
-25.187063903915
-20.5729466855534
-19.1039223397526
-20.831036158003
-24.6184966425377
-29.6026355765149
-35.8468909417678
-43.377940749049
-50.9870832550511
-56.5554119523254
-58.720647523768
-57.9632101667426
-55.8808864218486
-53.6182766016531
-51.2995327833669
-48.8486837966307
-46.7863204326145
-45.7969670162175
-45.6743471923682
-45.1815607930473
-43.1825591386868
-39.7281961967755
-35.8452577837976
-32.4436055145105
-29.7748350567128
-27.9469236030697
-27.4819291817753
-28.9009097027091
-31.800011642173
-34.7514161531741
-36.3654725540142
-36.3107116216775
-35.1140956678854
-33.1507251992188
-30.2401245137599
-26.3304900681282
-22.1688239764539
-18.8303610622625
-16.592762053949
-14.6736444871758
-12.3050465877831
-9.82777008612775
-8.38647707770199
-8.61139850581601
-9.99784720339863
-11.7282902660705
-13.6935186901735
-16.1777296157139
-18.5555194118184
-18.8864990945625
-15.2996566069179
-7.71419691752855
2.14413126460652
12.4046165092134
22.2819662113935
31.4347662058062
38.5981150778206
41.699732075931
39.7029841597006
33.9617024928719
27.2381751631993
21.3948878118057
16.4459999821324
11.9142009720906
8.49987917352636
7.76247074215462
10.2397965833914
14.5825272447171
18.9821007930887
23.117946218033
28.1103049081129
34.5684403605202
41.3341626284292
46.573665405628
49.7048796292785
51.5234081189798
52.3852187714809
51.0852036371624
46.2704562584496
38.7238237069621
31.3210222294453
26.2104003467996
22.4439622087299
17.0584254470825
8.49309618005283
-1.66232183895617
-10.5604440959143
-17.1497517315085
-22.642240513841
-28.0806438870305
-32.3483660679083
-33.2086623470214
-29.9453805328394
-24.2092854298866
-18.1944878421566
-12.7561771050196
-7.87126061970657
-4.38081301719084
-4.09605122199427
-7.7111723364876
-13.2981374185319
-17.7386440160811
-19.6120989921046
-19.9520786736932
-19.9562121366545
-18.8045430662555
-14.703434348157
-7.93286598298917
-1.71188274541055
0.747618049880508
-0.35857005735841
-1.81920381189918
-1.23587724708621
0.368813147718283
0.245326461754745
-2.47769117668374
-6.00760904520852
-8.91590121931023
-13.107719735705
-23.1074631474894
-42.748907440551
-73.1261006892408
-113.121063954697
-160.09915204942
-208.992285959904
-251.825776094146
-280.438142024948
-290.627689691428
-282.474790959347
-255.439259165378
-204.393852556182
-123.490322783157
-15.3414886111516
105.873685144749
224.290755799779
336.838524678883
455.669796650843
593.026788689362
743.148461563126
881.412483040636
983.127104183878
1042.01508695907
1067.75020528537
1065.4072096889
1021.1696302574
912.69798669078
734.811328000704
512.880177814851
288.684632362231
92.7457625050973
-69.4806043764338
-206.758268442492
-322.365828742485
-408.024334494548
-455.419216352735
-468.92476577137
-464.031549520042
-454.4624156078
-443.561785930686
-428.364979274315
-408.803076303063
-389.90248286042
-375.668863198517
-364.320652124013
-351.763781346104
-338.431629671745
-329.83547915894
-329.478043898386
-333.037796698344
-331.535483501073
-320.118867433596
-302.240773995629
-284.776347227462
-270.448453940418
-256.392289053254
-239.453400842753
-220.77977528725
-204.172563445031
-191.125709168479
-179.314505933632
-166.142517073935
-152.237585743789
-140.289670133916
-131.134252316123
-122.560411988182
-112.412056787739
-101.699649097856
-93.4979644029034
-89.0888737263672
-86.4029479349771
-82.633510459108
-77.3683364877512
-72.1005124719311
-67.0251571809654
-59.7248742146687
-47.7649350697871
-31.89315924267
-15.6204210383423
-1.65410506437733
10.2922874227981
21.7206671663097
32.2802538813824
39.6870215702982
42.7788478323189
43.5599293554969
45.3517448993537
49.295080782126
53.6336638737215
56.578692457614
58.9203163285107
63.0026562621634
69.5422920294451
76.582758868581
81.9668378394812
85.9989266051817
90.7206485217714
96.7404213316612
101.839602172829
103.282478255427
100.920339487888
97.1659407865325
94.0196705447444
91.1195152129638
87.3010406377147
83.4130019875239
82.4216817573807
86.402946952952
94.1605985267343
102.489951005891
109.483465023286
115.778375363586
122.451423953221
128.615982486354
132.002705582104
131.737742262327
129.594851249809
128.004766345703
127.329278015618
125.797269574452
121.993089122695
116.573145834965
111.116611538548
105.896018387692
99.6829754304789
91.8232493183807
83.6949533275109
77.4938378085821
73.8964162814419
71.6569793995188
69.5929968899515
68.2284105286579
68.8804999841666
71.4831347000046
74.1969803053277
75.4680612049154
75.8443433559171
77.0713296585529
79.5589329977199
81.5236916570265
80.9802046233633
78.0357220410403
74.5259238746145
71.4926504000804
67.8161326029042
61.7885979564867
53.5555318346433
45.2123379003103
38.404034204646
32.5191876306732
25.7780405762134
17.7683865209151
10.1785145805504
4.89374692946302
2.01487222775417
0.304996743317888
-0.728700372506897
-0.0328076851411527
3.40603349599757
8.71604643439658
13.5189233754637
16.0794022067868
16.503455996149
15.6352819372836
13.3908454229776
8.9046073133554
2.25756893662927
-4.71463245382158
-9.86484067929655
-12.7178259756377
-14.4851969541958
-16.1612468761968
-17.254013905239
-16.7933064450689
-15.1418181000374
-14.0097104571607
-14.4877481454566
-15.6576920610915
-15.6986629924828
-14.1578035336467
-12.4854492835108
-12.1696205889669
-12.9305560243533
-13.3277906311584
-12.9205925555621
-13.0515611926865
-15.1453011327169
-18.7321991866858
-21.8272998454555
-23.2369133628164
-23.8468015594104
-25.2797164116719
-27.7348507718083
-29.8319521029717
-30.5792336953674
-30.7704391687869
-31.9119534526007
-34.1028016542943
-35.7123306811291
-35.333787544815
-33.4825352951639
-31.8472837304584
-31.1308579083346
-30.3444702125684
-28.433798492623
-25.9804507563166
-24.6248187334066
-24.9279176508647
-25.529096797374
-24.788762780337
-22.8216723396693
-21.2870854159069
-21.2409521396839
-21.8888857107002
-21.8516786046937
-21.1984615236099
-21.4770445542783
-23.6460340173873
-26.6398241842773
-28.5108908081811
-28.7149771697526
-28.5987355111989
-29.5100073488354
-31.0558419648943
-31.781751299152
-31.292852431425
-30.9157882070786
-31.9627115137723
-33.8884276725829
-34.8216534502009
-33.8320136986344
-31.9998097865739
-30.9331791157957
-30.7353539712373
-30.1080762230159
-28.3888404722666
-26.7159436567456
-26.6759387036889
-28.1765990761589
-29.3840083358524
-28.8768862225103
-27.2502520095041
-26.1250469317786
-25.9403344406883
-25.4836679188603
-23.7560510454368
-21.6143631622844
-20.9012295476361
-22.1286134646308
-23.7630948214227
-24.100133510867
-23.3131340269826
-23.031860458331
-24.0685626209202
-25.348125083726
-25.4680783798989
-24.7748245196025
-25.1111167099086
-27.4713818467341
-30.6204024747489
-32.5218488421312
-32.7488283967507
-32.7623794314049
-33.760420071843
-34.9984475415367
-34.8241560569094
-33.0238549386026
-31.2964183066766
-31.1406679260863
-31.9012389438885
-31.5605541617503
-29.2672479405386
-26.3089763478022
-24.3035246365721
-23.0636885497429
-20.9975710701972
-17.4897013588938
-14.0192096144763
-12.417945693458
-12.4966164897749
-12.1777178144083
-10.0134988308829
-6.82933944984124
-4.38956649662566
-2.92364771613836
-0.849284465816794
2.92298646458562
7.20927624155885
9.76590066645986
10.005217181855
9.68240339976981
10.6459803531425
12.5911114893065
13.7293698552742
13.413349133159
13.1689929511955
14.7348163713445
17.7324925769931
20.1206772175502
20.880018937492
21.3683376969946
23.5115411148344
27.1942235530735
30.2883704095813
31.2485009503107
30.7815726793751
30.3672265416576
29.6935163199948
26.6158631271338
19.8905217139628
11.1198259396479
3.24259564585249
-2.56870092339795
-7.59890959125025
-13.0528932095291
-17.8137968100012
-19.668466247515
-18.4761909184988
-16.9660782920216
-17.8334172749692
-20.7451551536484
-23.1516212303541
-23.8694153074474
-24.6962835585572
-27.8601620230682
-32.6790389266303
-36.0158979766462
-36.1694087769891
-35.165521181407
-36.2989237102335
-39.9463546829953
-43.0578704019507
-43.0410671293268
-41.0096293334949
-40.1386365534738
-41.2509257270758
-41.4064635828735
-37.3496370913057
-29.3443545718333
-20.578835316313
-13.3616002549253
-7.5349799976545
-3.09731680792275
-2.64101348625059
-8.98668933161133
-20.2894405337126
-29.6898600002195
-31.9025461493296
-30.0146222771344
-34.0861884429107
-52.1523469945148
-83.3234143868098
-120.298407310741
-157.3125708762
-193.447426649174
-228.090704732905
-256.128529873254
-270.70843586606
-270.360616631106
-259.725962083958
-240.433722003023
-202.671286809771
-130.051784681351
-15.4664253116616
129.191944820743
281.862307331252
429.3163202878
575.190283937698
727.636810184708
880.850535784063
1012.39543473022
1100.02638844361
1138.60209018324
1137.35501498785
1101.1795624357
1019.16091812298
875.729679136255
673.27600430893
440.749956727392
217.495553650923
28.373555179009
-125.327505141422
-253.153356696957
-358.08333039175
-433.662730822576
-475.710490123443
-492.083617679332
-498.360246579061
-505.1156154003
-511.646437275049
-511.970010626799
-504.340119135272
-493.012303740039
-481.919689698167
-469.65192621418
-452.229991770533
-429.663417682425
-407.751733627694
-392.906497009474
-386.192306298908
-383.056129485796
-378.04877756704
-368.67481371127
-354.982979577462
-337.237609053022
-315.449906139413
-290.815247927779
-266.073343782066
-243.563820784295
-223.374299604176
-204.146799011698
-185.552013262023
-169.117353500092
-156.250040381008
-146.058858109428
-135.907249422492
-124.093566559779
-111.331005196381
-99.3156369855063
-88.4096334316513
-77.4317171825656
-65.6196955550712
-53.9790765384827
-44.156586950589
-36.3146662435333
-28.7877164648767
-19.9494104296354
-9.89980614968643
0.0532527534142453
9.22564913676067
18.2342601387328
27.7693811622707
37.2891454294472
45.4804176962348
51.8913070960558
57.5680110072849
63.8642998024553
70.9720991996281
77.9915361680061
84.2672411809592
90.1185775193229
96.0549121144025
101.686290986223
105.935737842016
108.3545528275
109.813637514144
111.638147651202
114.275786678079
117.14341274799
119.698907654974
122.210664578379
125.215296329761
128.494489770949
131.062932281345
132.281045347071
132.670306177452
133.369507067801
134.922897189643
136.903332841633
138.716511626817
140.399486558317
142.344818274671
144.416739613094
145.769195594943
145.709768421769
144.515047508224
143.135538794494
142.170547143182
141.405875293409
140.401337994445
139.21864667208
138.271354419678
137.554571883725
136.402138726641
134.207981890125
131.211590070946
128.3080256344
126.100386228673
124.382996163691
122.637717726613
120.777729761115
119.098849522948
117.544602593811
115.38162911508
111.857754609324
107.072227494727
101.939882711264
97.266811255107
93.0770418836301
88.9583017237815
84.842928219583
81.11463696378
77.9127282528213
74.6479183853612
70.4970728233898
65.3318759586027
59.9177608497482
55.1288320190937
51.1608486356279
47.6632307552525
44.4676947503603
41.8418831511701
39.9212579410838
38.157165959903
35.6427003892195
32.0022024636431
27.742869770046
23.6366574140676
19.9377974806006
16.3985191472975
12.9341081083305
9.92327266750462
7.67820641765763
5.8219742462908
3.51108437777248
0.332658376425627
-3.230918499306
-6.36021590279701
-8.75946645921249
-10.7344210454108
-12.4728409558252
-13.5865195490826
-13.6026183523845
-12.7655277768523
-12.0194360228203
-12.0825696339438
-12.7389809916797
-13.2373658828253
-13.2783922336803
-13.3332577866974
-13.9385002472128
-14.9618551657461
-15.8448200309677
-16.4891254183193
-17.5524029777109
-19.6689228603286
-22.5400253558375
-25.0597674673563
-26.3478760445723
-26.4359846465067
-25.8504022204647
-24.7773210611039
-22.9832412940458
-20.5807013945359
-18.5399183418635
-18.1354753156782
-19.8994082860355
-23.3048405290889
-27.483719745513
-32.0140848085674
-36.8408536070966
-41.6169189705626
-45.5075649489846
-47.8117266294611
-48.5973816427685
-48.5010052317769
-47.9486477324877
-46.8055516333594
-44.8493543398801
-42.3444981398776
-39.8995052661967
-37.8238376514914
-35.9185565141009
-34.0261079786628
-32.5641965178675
-32.2258082133358
-33.1592564175974
-34.717329283249
-36.1707836484273
-37.4930986238847
-39.1865177896006
-41.3834489338442
-43.4587969743521
-44.7397962156289
-45.4005931285381
-46.2849146329396
-47.7556412587465
-48.9972601906319
-48.714345974945
-46.4248556061191
-42.7831065940152
-38.6074313417332
-33.9500831491468
-28.4638427328185
-22.5752504406379
-17.8376439230728
-15.822066338775
-16.7728965923145
-19.597294731276
-23.1170131082977
-26.9885567563758
-31.231870597874
-35.1703267517724
-37.3461861490914
-36.6688990314895
-33.4077449370329
-28.800345700455
-23.7868912093366
-18.4316214597253
-12.6295352162245
-7.02268938383314
-2.84529526409644
-0.881920277164495
-0.885281744440133
-2.15525136680398
-4.44479985470583
-7.98540768255479
-12.6636465405364
-17.5328188964607
-21.3771610953555
-23.6310180007267
-24.5111054894349
-24.3125766102101
-22.9290729191174
-20.2722013118499
-16.9417578778081
-14.0828101824824
-12.4595398567305
-11.8890170076283
-11.7567450698927
-11.9096567437705
-12.7266432512681
-14.3102732827859
-15.9923716993536
-16.966215306584
-17.3010395815198
-17.9646403654823
-19.7088652016842
-22.1867123745067
-24.4258078622547
-26.0297713491601
-27.5145792675887
-29.3318766967585
-30.9108566589382
-31.0851980434359
-29.4506863707262
-26.9067778474738
-24.6303199772202
-22.7640265338042
-20.4974994115293
-17.404697058544
-14.238650235815
-12.0893907771569
-10.9949892534191
-9.87020105125797
-7.90484602124916
-5.60921329250374
-4.09039880133877
-3.46773319196875
-2.52881301286768
-0.15094118371267
3.32555162328618
6.58701531421855
9.08609800905957
11.7069788107806
15.3574089199521
19.2326265909623
21.090463492122
19.4288395541136
15.011821536939
9.89242370009874
5.11482811906274
-0.146389919500393
-7.09440061811327
-15.4535078942006
-23.5632103300649
-30.1898245455901
-35.717827904874
-41.3313555653239
-47.4113574445756
-53.2246058375167
-58.0998020124054
-62.3091817620687
-66.4268509810026
-70.1528537186706
-72.3801267402285
-72.5495086407289
-71.4811107611256
-70.4977749750664
-69.9851582630748
-69.371631005047
-68.5971085446594
-68.9866321404166
-72.0638613677198
-77.6020199945858
-83.4654335765745
-87.668400223218
-90.1595996268372
-92.0066970545037
-92.951081507691
-90.6041351574385
-82.741416125569
-70.249813476816
-57.1441960973736
-47.2951900783256
-41.3126173077163
-36.8407410457071
-31.6141056114197
-25.7143204461994
-20.8686731224463
-18.3165675301547
-18.163025084434
-20.8430296590615
-28.536687018243
-44.5411256898728
-71.1478202203637
-108.101001674662
-152.621702443577
-200.211673176186
-245.362579603989
-282.371648019557
-306.485597626624
-314.37265655246
-302.867303410402
-267.225685671484
-202.016570248291
-105.673366371853
15.205837512403
147.529012023325
279.969101371358
410.779637669244
546.807762555431
693.354218923064
844.175869369868
981.48181482657
1085.85034257747
1146.01067490183
1159.3518344675
1124.79373302629
1038.11214743115
896.411913326193
707.195331722569
491.316623762364
275.108032330951
78.3580481256153
-91.0419690640756
-232.330354803887
-343.892648250472
-421.12834961055
-461.680638733956
-471.262096572653
-463.084711895762
-450.985314950094
-442.481848964958
-437.218143469704
-430.656677316995
-418.880544654695
-401.141869603806
-379.874172740957
-359.434015642655
-344.264000713647
-336.671559397841
-335.178823530281
-334.978798653543
-330.778040172966
-320.066999035198
-304.19384595647
-286.544633478124
-269.716356216836
-254.143164865407
-238.84257374028
-222.931843390853
-206.336451260622
-189.434752343544
-172.486175371688
-155.528558945781
-138.622795923438
-121.992465923045
-105.945394744345
-90.7940171158777
-76.8741761797484
-64.5130933017037
-53.8602763508115
-44.7547016756698
-36.8161505727233
-29.6588511995986
-22.9553770778971
-16.3003460190506
-9.13782240821143
-0.966407011837362
8.33710205816443
18.4295232162923
28.7446170587779
38.78633653099
48.184000689011
56.5740672690698
63.5990429768815
69.1176700591187
73.3852415162292
76.9512310959393
80.3502683140775
83.8964222943803
87.7358110231918
91.9934592139349
96.7836937603049
102.091315401168
107.725080403467
113.440924761104
119.096530546678
124.658846979296
130.079138556774
135.202108422394
139.80017135908
143.659558439868
146.622928717884
148.604729201648
149.638572293221
149.922447599695
149.766717903046
149.452616628372
149.140720812435
148.915182628314
148.857580484808
148.994121592884
149.160099889888
149.009884758185
148.270473803882
147.010188103249
145.606735481595
144.420800452602
143.53458240298
142.832306894499
142.261280521061
141.883716614311
141.628691815247
141.098349838922
139.76671072285
137.41561554929
134.313326809856
130.922509827713
127.488104499324
123.977141175939
120.36257878424
116.795400256881
113.390646187056
109.921407454058
105.895208735636
101.008651816656
95.4577819317211
89.7255421132097
84.1118355766206
78.578695057181
73.0452359505666
67.6641938130516
62.6535073226964
57.8951698102524
52.8869599134678
47.2092823323957
40.9826696126543
34.7572078134477
28.9696672179192
23.6337487199578
18.5973736639144
13.9432714388199
9.93279469702712
6.54031862718631
3.23272202281301
-0.618842721690015
-5.12898388924403
-9.82006057594985
-14.1622323758338
-18.0543148738535
-21.6793475005606
-25.0077872874967
-27.6804610799359
-29.4724709857999
-30.7218126938887
-32.1001336211086
-33.9422689239008
-35.9433303368116
-37.5896482374855
-38.7756465093746
-39.8558178298499
-41.1400862216133
-42.5539616868288
-43.9187533529962
-45.4337155474181
-47.6375630536335
-50.8060188151192
-54.5072262550823
-57.8716598089077
-60.2515169259673
-61.5013004741583
-61.6661225425627
-60.6497346107387
-58.3979120468395
-55.348785006073
-52.4580103666556
-50.6257613988001
-50.1436502579892
-50.771146272134
-52.2454792266826
-54.5083291796654
-57.3928644865585
-60.3130552891911
-62.5206373333424
-63.690674526394
-64.0730227793002
-63.9693912269921
-63.2021093383487
-61.2926953613967
-58.1399868805264
-54.2989050626209
-50.4675356545855
-46.8565268024921
-43.3039722317106
-40.0003961298763
-37.8045800780858
-37.5881253199953
-39.3201172074302
-42.0288614006133
-44.7331661989811
-47.226324743169
-49.7995029018869
-52.3737720047025
-54.277179138809
-55.0309357652955
-55.1203138055434
-55.6594992940756
-57.2513054621133
-59.4020310001446
-61.1809663875743
-62.2570908294687
-63.0156463508456
-63.7072370879542
-63.864407517756
-62.8414673574497
-60.7908523040257
-58.7359482755205
-57.5357271918476
-56.9926416163649
-56.2069335533398
-54.693263570702
-52.8184309572142
-51.0508713441072
-49.1056915494386
-46.208619993389
-42.1861921573911
-37.9248068824013
-34.5055798234468
-32.0503043209477
-29.7313068010996
-26.9185242290636
-23.9760399151073
-21.7013797000833
-20.2074377979086
-18.7967397014535
-17.0526988807869
-15.6965953143587
-15.9677730872331
-18.1721267682984
-21.1770722835392
-23.5033682763635
-24.686926215529
-25.2872366371299
-25.6765407242488
-25.284668415132
-23.3267218840859
-20.0744636669627
-17.0017904686659
-15.55651407392
-16.0147685729454
-17.6853329938051
-19.9833990447242
-22.9066697595052
-26.4317134926056
-29.8700270507453
-32.2091253737004
-33.0043327800362
-32.5576080126883
-31.1044744149183
-28.170909316255
-23.1081120291795
-16.1795840277213
-8.68445995276486
-1.78343438792007
4.53072946587954
10.9297242940576
17.2917378346944
22.2160779486216
24.2924720874542
23.6273251901783
21.6769492015526
19.5157093766753
16.6739060008994
11.9959496908954
5.39591682825674
-1.78345519337919
-8.31172283802024
-14.5155462401991
-21.6549137859346
-29.8502752990499
-37.0784958388881
-40.5320379434547
-38.8038530974273
-32.4557504325432
-22.6209408688391
-9.67723561725455
6.27700835203657
23.8990721668755
40.2140612830113
52.1399794272916
58.3329472780417
59.4249873850209
56.7153027791763
51.0679105822416
43.1337898665409
34.1277946374259
25.7918848092963
19.4780886942153
15.5446075325249
13.7689146589761
14.0499846171826
16.3562177221918
20.0697240825175
23.8196556337758
26.2193365376233
26.6078967540196
24.8740951905669
20.7847396935163
13.9944982458665
4.8787867728155
-5.08009173636509
-14.255301484162
-22.200221081228
-29.5523474904832
-36.4428861508395
-41.5063832945332
-43.1393783050941
-41.7547332236464
-40.0651959226612
-40.4656064523868
-42.1986945759936
-41.6533334028044
-35.7211049797987
-24.6330395548139
-11.4007973684498
0.997313119547311
11.2360506259725
18.75307485713
22.5461436476006
21.9637822573097
18.4244736169327
14.9869630974885
13.2567176356248
11.1577095188127
4.94931279471946
-6.06594669529189
-17.4819285886883
-23.1755445494536
-20.6394025780882
-12.3358532972131
-1.83947324877283
10.210397353096
25.2009484608274
41.7614849322829
53.1086344517518
50.130430675476
27.1809321947254
-15.1696973947209
-72.0761899399321
-137.422481984262
-204.391058278354
-264.621597259775
-309.174086829502
-331.403350731526
-328.321496320146
-298.757892467276
-241.575706256186
-157.819694730863
-54.7186835076332
55.3811452568807
163.633039197868
273.051690300651
395.722908507152
538.611020048137
691.659242393798
832.003121854782
941.586311379398
1019.71067855904
1076.04271427238
1110.88254268634
1104.90409905714
1031.86257713957
883.291671095716
680.608084081079
462.449432903727
259.984449911081
83.4969106688561
-70.393947401309
-203.107728733179
-308.043532068331
-378.107617569992
-415.213720098109
-430.160989572139
-434.298060743101
-433.388023822778
-429.337976507089
-424.885170860213
-423.767045845581
-426.474296314606
-428.430780845659
-424.36584000089
-414.13942284617
-402.787654361994
-394.491274343965
-387.692102672962
-377.148690644825
-360.21038783847
-339.670255959496
-320.117582592327
-302.725227692509
-284.898982194637
-264.754318614285
-244.400022894677
-227.847883741419
-216.296804814975
-206.705454224779
-195.289422113253
-181.560194969122
-168.218370334355
-157.550571813053
-149.0105769302
-140.634144298083
-131.931996246748
-124.366909982193
-118.987379809545
-114.446557760528
-107.898748021497
-97.4907306537067
-83.3823576835524
-66.4604954920001
-46.8925878378639
-24.5156016756675
-0.305860865766554
23.3094292223848
43.8853126074702
60.3642106476967
72.825564102019
81.2565158424146
85.2403051115569
84.9766770962073
82.0159678370242
78.3827829703636
75.009837445625
71.4829020450234
67.4362950026752
63.7070657347412
61.6023539595016
61.1537005534239
60.7346586459473
58.8342620831347
56.033835205626
54.8150038435204
57.3009036929645
63.3455653322787
70.7883585219504
77.1498239254466
80.7994078828053
80.9368344973027
77.4568770125831
71.4784964292467
65.6218214244026
62.7291757982186
63.5944447042442
66.0373555905189
66.7103970594262
64.09425410362
59.6812722530426
56.255836009316
55.3004580626994
56.2586538626641
57.996133731809
60.3284535345068
63.8119525041328
68.4137149350407
73.0140370805299
76.414518615216
78.4985893902926
80.0749266517163
81.7310956401425
83.2600582797637
84.3031689454645
85.1150402280174
86.1889824979043
87.1245019754327
86.3517397373924
82.4226453574362
75.5968557805379
67.908136389382
61.5469804542788
57.2635607026556
54.3621425883243
51.9784649060191
50.0141590183916
48.8078526967857
48.2805255931218
47.8095280492004
46.9686797971444
46.078964482994
45.7638996555566
46.0103398843978
45.9208235842805
44.5644771584581
42.03829391439
39.548447033047
38.3277413004633
38.4082782679293
38.4457651893807
36.8310039480448
33.1580567576104
28.7608289948133
25.7681152096466
25.387793914541
26.8892019985665
28.2622101070734
28.044368657554
26.6230751649343
25.7153098878636
26.5251721591319
28.4987249936599
30.005481724876
30.1542912659482
29.6307657153046
29.5384474916118
29.5961712920849
27.915885743694
22.8041880674612
14.6012868584027
5.41094760116615
-3.00970824140891
-10.757229635855
-18.9402624238362
-27.544014796845
-34.6285515886677
-37.9337237560236
-37.1197474293845
-34.1146115116236
-31.2243369426825
-29.1541085078479
-26.9943975828307
-23.8307906847619
-19.8925179573855
-16.0177469664536
-12.3960165793714
-8.31790281880969
-3.24081919047693
2.19442617193472
6.43107140619976
8.18037288655586
7.16378867501442
3.78562670435262
-1.55212368134892
-8.54205886002945
-16.5034576517263
-24.1753770440614
-30.2033255498213
-33.8247928389758
-35.0300302651204
-34.1299184554628
-31.2696482100467
-26.3180927193143
-19.1217759838527
-9.977266712805
-0.229052273450506
7.37434040824074
9.3209951690777
3.30375379632449
-9.56684161634101
-24.3814897168348
-34.943704068632
-37.657925148816
-33.6779516386591
-27.5056147779278
-23.3592872269462
-22.4533817171302
-23.0999702960885
-22.7976887353107
-20.1277796927801
-15.2941248938497
-9.77465224708567
-5.83934758621914
-5.86131475962404
-11.1039101360638
-20.5837406216726
-31.269802126764
-39.922862428849
-45.120453931883
-47.6205352007175
-48.8908976864772
-49.5105643888676
-49.0356018427582
-47.0419957500399
-43.7792177754946
-39.6850802442036
-34.690660925394
-28.5077364569905
-21.6292918814956
-15.6167153855074
-12.0342270677395
-11.1505385301589
-11.928813490541
-13.2708034052958
-14.9473184752165
-17.1261334757583
-19.2813548079046
-20.0890935086023
-18.6048241647268
-15.2906205734674
-11.5841577050423
-8.52613298752924
-6.1131539449468
-4.03378487250149
-2.62694534769309
-2.6740564917564
-4.27994632090252
-6.40463474939284
-7.80854522352721
-8.29704556306364
-8.68789345466429
-9.53479274896122
-10.2428183683964
-9.70281178829468
-7.6000977161673
-4.69269547566465
-1.734336659647
1.47413739085789
5.5729801665308
10.2760238779974
13.946726875553
14.7884930802474
12.3054101848614
7.37590654556406
1.04358694684601
-6.33256164162445
-14.5663625739844
-22.6699283077722
-28.9471430239068
-32.244844256254
-32.8771927081797
-32.1103418514136
-30.8915184613494
-29.3499718078909
-27.4343076437069
-25.5197475083519
-23.9980446644297
-22.4557513210007
-19.7988917215396
-15.4703571918213
-10.322292220432
-5.95162635860891
-3.18861054069799
-1.51590177268709
-0.0236213257675679
1.43032679621904
2.35534267830486
2.75279875935232
3.56217485097934
5.6848360162161
8.82869594972598
11.770124359002
13.7971981946317
15.487926493333
17.789427221629
20.6054526209265
22.8044462856148
23.7140452104708
24.1453873161252
25.4979968478729
27.9662301404411
30.1044780706179
30.3422992245919
28.5763478154828
25.8912394327466
22.8816986663335
18.8162387468319
12.7044011672657
4.77878922116981
-3.64492935204948
-11.7894152979224
-20.3680526848578
-30.5567755431504
-42.2631980582462
-53.8793812319089
-63.7347555927286
-71.2639588798751
-76.4245004070473
-78.4174241953778
-75.8181726263318
-68.2950137670638
-57.7454220977325
-47.1820520679619
-38.5427174217932
-32.0257897770391
-27.5565082996979
-26.1445751402044
-29.0463094693418
-35.7089612974982
-43.3544878157904
-49.0684179063541
-51.9020460209795
-52.3400280358667
-49.9923239600245
-42.9579493303551
-30.2798718239346
-14.6133330962901
-1.35694973563689
5.37896132214252
5.48340531022126
1.06276892129623
-7.61374462631936
-23.4495891248173
-49.5499082050763
-85.6280289760674
-127.905780506199
-171.87066039133
-213.812546503857
-249.57010713773
-273.703526999453
-282.202949753521
-276.267829575567
-261.330267369641
-240.244699313472
-207.587611306016
-152.624051948767
-69.1133475251923
38.702595068474
161.196616619873
293.766303669151
439.549277555729
599.974720082848
763.940878272082
909.708227329714
1019.36296207388
1089.92634631778
1127.51590672079
1130.52090163543
1082.25386361674
964.724576341524
781.30676026788
563.954654207135
355.126725635257
180.706582651981
39.4365785072755
-83.2528987732021
-193.956293647544
-284.762954991375
-345.400252584767
-377.804132350117
-396.54801692847
-415.980477410133
-438.969560934503
-458.158626059034
-465.786603284352
-460.418174533408
-445.37334430566
-424.047179851218
-398.883425305762
-373.642348075799
-353.593677608533
-341.805204127243
-336.093501907161
-331.214526495184
-324.274658773205
-316.963848343698
-312.018511972284
-308.534612152023
-302.128305705487
-289.753238450294
-273.139283146166
-256.643354544196
-242.302209630438
-228.160596479966
-211.597739449547
-193.145920531363
-176.002503755532
-162.106076763161
-149.881339503258
-136.374624017363
-120.887108561904
-105.578020426374
-92.6225705477043
-81.8091147704255
-71.5265364720681
-61.4891636889609
-53.4001563177313
-48.6699825865067
-46.2357843963605
-43.3326170569057
-38.1946761657385
-31.2884321280395
-23.7861071429411
-15.6118616317251
-5.7423207038375
5.77735132960884
17.0230129101222
25.8964679241772
32.266163642112
37.8282987724067
43.9107900342095
50.0509523207152
55.0502575182226
58.9045776795774
62.9142044979668
67.7964199037653
72.3694866132945
74.6959368560763
74.3565048791837
73.0048442002023
72.522913288
73.1248918688522
73.7243550479092
73.8907649625612
74.707671343432
77.3908409156791
81.5353503889177
85.3730741474292
87.7953309546223
89.590336591655
92.3546222323606
96.5076649850285
100.906432892064
104.405421096513
107.212355536095
110.284266501727
113.681051094597
116.180462677441
116.761625403835
116.061721535292
115.899557881812
117.429847536256
120.199679154035
123.137039600233
126.003438060274
129.364891072874
133.227239734025
136.314886766743
137.123202656366
135.499605297386
132.75997375083
130.201485654802
127.881890226658
125.091652455912
121.697894010599
118.472781600861
115.989368043599
113.654555348239
110.288782308864
105.585216497184
100.569383961285
96.4505893868664
93.3261509211915
90.3402071920089
86.9563761261806
83.5755966289087
80.6962123114149
77.8440614958618
73.8513961238074
68.2466720636422
61.9603717190059
56.3648025965658
51.8129600267279
47.492191480992
42.6893473734058
37.7377851716044
33.3991152097521
29.5835387611072
25.259797845013
19.8460251602331
14.3335114290942
10.5961191613659
9.59401046217346
10.5916205595606
12.2315026274818
13.9761350676494
16.0580823766427
18.1284003891155
18.5737180079621
15.6440998847347
9.15774280824291
0.710176047539505
-7.88207254308433
-16.0331955699149
-24.1043371794853
-32.0069679452705
-38.6591664032631
-43.0191812202242
-45.291007637986
-46.669213266705
-47.9130678013574
-48.5619489438683
-47.7541914601772
-45.5448828789504
-43.0362619977724
-41.234583732284
-40.1736265872506
-39.3841621318312
-38.9328422255039
-39.5116599937037
-41.3976805651757
-43.6952716463841
-44.9695483220552
-44.5747609682414
-43.0713605088264
-41.3106710484673
-39.4653173968546
-37.253547742147
-34.9235443146255
-33.5050056788493
-33.8261262823025
-35.5080476217357
-37.2779464392159
-38.2793413071779
-38.7853011421325
-39.5138884501694
-40.5517031855303
-41.3273502990434
-41.5936243073334
-41.9818390105108
-43.2635620976152
-45.2333301831934
-46.7177985665492
-46.7933050553688
-45.7172088151414
-44.4413162361889
-43.4119692097911
-42.246744432168
-40.6455501212395
-39.1969071055976
-38.8619564397188
-39.7225485232658
-40.6599479946171
-40.500905067498
-39.2685188456626
-38.0065085673704
-37.4599006014317
-37.3311893341202
-37.009245868563
-36.6804945557511
-37.2169029681075
-38.8919589898222
-40.6167770761022
-40.8128444694111
-38.9522726684365
-35.9171382077422
-32.8193550973912
-29.8484893268312
-26.5755971327109
-23.15082795183
-20.6348971843467
-19.8846337119704
-20.4027730023452
-20.7092251585399
-19.8660863684514
-18.3029811707775
-16.9918726645047
-16.1288211191302
-15.0379418949368
-13.3205118316928
-11.5973696250301
-10.7596998328086
-10.6868115327331
-10.1742452723869
-8.27091147821915
-5.37552029435752
-2.73463131521878
-1.03869782417851
0.0760206909253753
1.08919004110403
1.63014038761393
0.895375634861963
-1.0701889657218
-3.00900768977484
-3.64230292922271
-2.99340428066874
-2.18843538222313
-2.02696102166897
-2.18128343890101
-1.98783370979407
-1.62751499824623
-1.96244752042473
-3.14894316516839
-3.91616962385255
-2.66163511589949
0.846142946956149
5.2472715610849
9.11346181071218
12.2768747726525
15.338723391622
18.1649172689922
19.5316184968637
18.5448006941336
16.0240621884753
13.9419208198417
13.4486918779738
13.8455599836947
13.6953848407754
12.5843282201065
11.325432432055
10.5229362313578
9.56809866683768
7.49593522821581
4.58794036696459
2.55251846920127
2.94699095484384
5.78495375202835
9.987710263
14.9045205377035
20.8060522538564
27.7778772771434
34.693922056656
39.8476301603383
42.4949925596024
43.2174527959163
42.5603235100654
39.7983456811193
33.6162491926429
23.9276568740871
12.4157938705508
0.985491330507145
-9.87308051782357
-20.6082764277957
-30.6598640174546
-37.8286874168122
-40.1806871834739
-38.2951154549304
-34.9383882489892
-32.3738085575986
-30.5548902010197
-28.3562911764213
-26.0518464531256
-25.5865180408781
-28.1024656815371
-31.9463631760167
-33.9965769650627
-32.9394613762026
-30.5208030684326
-29.2771527059801
-29.6675327175582
-30.1255664233446
-29.5714358399268
-28.7003560799424
-28.2702898337526
-27.0721551043796
-23.0395154819705
-16.6178183064292
-11.7931832931872
-12.5366837734342
-18.3840169340236
-24.6562757927644
-27.4800844048937
-27.6612299429564
-28.6060118184136
-30.9588397581164
-31.1091024911349
-26.1420293568686
-19.5140311438551
-20.2032791842189
-35.6203756225386
-65.9689603948219
-105.780245245259
-149.581642605689
-194.320651002699
-236.610686273034
-270.480352958777
-290.476420568318
-296.497894172961
-292.462678395917
-278.042225953265
-243.06555593822
-173.555278721782
-65.2473562919445
69.9320451007502
212.668807105209
351.380104130786
486.869330772665
621.723784001652
747.999154622729
849.120899604348
914.50836339573
948.810997710886
962.793258248582
955.065164550818
906.821272088556
798.7516786844
633.95441983802
442.167325658995
259.625960530903
104.540194026599
-27.9951479960948
-149.485964959058
-260.01829588642
-347.557846425678
-402.193100192191
-427.156790848944
-434.844894051123
-434.637581690264
-427.459315843559
-411.729245110716
-391.052685398176
-373.195045800433
-362.078934664802
-353.585931139174
-340.888883818106
-323.015762601759
-306.489106241429
-298.390724557049
-299.098862117568
-302.503336967696
-302.298813113801
-296.665430627543
-287.069712045499
-274.489024825141
-258.428189144281
-239.164353503745
-219.117635583102
-200.951704071644
-184.964219700258
-169.476600326246
-153.819236757627
-139.886951217651
-130.059587173905
-124.095114276981
-119.00093030828
-112.067400305708
-103.26603038325
-94.2127101832235
-85.4075264077487
-75.5311412598103
-63.634432672513
-51.132304700804
-40.7716066258325
-33.7402023733033
-28.5184344485659
-22.823854994243
-16.0997611388545
-9.50751900470613
-3.7759520708499
2.01460832577859
9.07589873870741
16.8932981741523
23.3772574321736
27.155984706269
29.1613232055565
31.5586926540064
35.4415164352878
40.1440701638805
44.7700760759082
49.6645058047333
55.8149377875718
63.077106584003
69.7500023632585
74.2483369391391
76.8373337678531
79.2773061492466
82.8805808625346
87.4093849853422
91.99296987737
96.5733057106415
101.83438262257
107.765210180514
112.945156521567
115.729136978613
115.979348330049
115.201492103648
114.931513944875
115.372832805088
115.828451616584
116.087796822672
116.774946958025
118.195903591281
119.33350545722
118.514262522594
115.091343356945
110.128942879719
105.296571248715
101.368689538168
98.0675628108734
95.1523977870257
93.1162780033165
92.5603344548538
93.2022207982293
93.9843878971869
94.2493034480958
94.4974048179913
95.7665149002151
98.428458513074
101.852509514384
105.147653050809
107.809403615938
109.416199294195
109.017028619026
105.396149642087
98.200191392588
88.6030813155008
78.6004053427233
69.6845728407472
62.3690189861785
56.8498477089778
53.5998682297269
52.893474732709
53.8862973462691
54.6972090632104
53.7658458482155
51.0684965308495
47.8136736916464
45.0328047475458
42.7542700976656
40.5817423788355
38.6516838976308
37.5369990371338
37.1939400788365
36.4544198586217
33.9504196523729
29.4990255811312
24.3084899197765
19.7791047424679
16.3513107655942
13.6580516308274
11.4921358330299
10.1212947964193
9.51817915303168
8.67695336879525
6.18037181016261
1.54348932515988
-4.2420711524832
-9.62795250756461
-13.7950114313509
-16.8621412448684
-19.0442336383284
-20.1042104799971
-19.8987426731099
-19.1943444738352
-19.439321382136
-21.5046855416341
-24.8104556330763
-27.8710283029738
-29.6005415601925
-29.89224322549
-29.0389440650294
-27.0506425275187
-23.8977899186663
-20.280137978524
-17.6710775585034
-17.2878342499237
-19.0925713948469
-21.9856784696824
-24.9122473164103
-27.5483310194114
-29.9169642725776
-31.74059558916
-32.6009314540592
-32.7252621181507
-33.1948033240921
-35.0270402405442
-38.0958466406484
-41.1903933507485
-43.160502695584
-43.7827876926645
-43.4192589991192
-42.1433353391701
-39.6523360960252
-36.1201827267518
-32.7394140273414
-30.9786153476827
-31.2432483181165
-32.5063642806305
-33.3723070293508
-33.3259224727545
-32.7818802060929
-32.1295279695943
-31.1958121575557
-29.8479981735326
-28.8054335283343
-29.3486633240541
-32.0384117808854
-35.9247175214661
-39.2279712141898
-40.7258733932051
-40.3154631778979
-38.3691655220602
-35.0154318033807
-30.3857188178483
-25.3801004419964
-21.6622200794105
-20.5534087932233
-21.9884857504192
-24.7311767156081
-27.5534615158352
-29.9933780544703
-31.9961546920632
-33.238108606746
-33.2386228402088
-32.1314039635449
-30.9187500018951
-30.6320698506342
-31.2902669500337
-31.9081007487881
-31.5391034072938
-30.0895597702536
-28.0354449920386
-25.6494464744368
-22.9125457142475
-20.2053576371501
-18.6541370006377
-19.3612275387218
-22.2633447389882
-26.0000055138781
-29.0132706619805
-30.6108721564562
-30.85759825333
-29.7351454108994
-26.9248440445131
-22.5915573082962
-18.0024297228711
-14.8416833903857
-13.7532144747815
-13.7785565770173
-13.3854397454749
-11.8736365131402
-9.55310477065106
-6.73213834155632
-3.08452735424694
1.63469936796167
6.4987901930279
9.60385644327096
9.64431852348707
7.13251267351131
3.83544271294113
1.12517363209528
-0.814647312741329
-2.19022795173294
-2.53673426213794
-0.963870709069766
2.58224354913182
6.80167754009472
10.1412123074806
12.2843071187507
14.2431124058776
16.9956075216095
20.3855753408432
23.5397823615766
26.0267731620251
28.0915681751273
29.6918689214035
29.8092457457646
27.213806349718
21.8815735886826
15.2635340784553
8.98698368907924
3.5531762139687
-1.44979074486915
-6.12976213021908
-9.88489861604017
-12.4333275722535
-14.798601571349
-18.6428237348312
-24.4848707269437
-30.958856192249
-36.1189858711626
-39.2577734048843
-41.073859106492
-42.1858091063107
-42.1422004984893
-40.3597729520001
-37.7212565960401
-36.4699163016049
-38.1310680861385
-41.8467817269079
-45.2144607726688
-46.6965950441579
-46.7323843088053
-46.3570339307767
-45.3230991680954
-42.3237337287379
-37.1280195486784
-31.8272251983518
-29.3461434451679
-30.7322212951435
-34.2692231102018
-37.2881023353074
-38.4583819381935
-38.1256241753106
-36.8962098342026
-34.6334761988882
-31.0480470274613
-26.886029589753
-24.3346297797696
-26.7048974304675
-38.085896243825
-62.471643898833
-101.259081626342
-150.135915769098
-198.951855117357
-236.681767730782
-257.966476732914
-264.319692215282
-257.596001563256
-232.338258762802
-176.687850886566
-83.2289850026862
40.6944155715791
175.185419390595
302.181149671773
418.088724158302
531.567963281538
648.913648602388
762.957205195487
857.35795942662
920.687190831102
953.598451121181
960.6174172221
936.514954666081
864.579915683188
731.410019406591
544.018872729348
331.274073602077
127.32947082887
-47.3571610566034
-190.743149965652
-308.713923645678
-403.018683292985
-469.686531413664
-506.306155802588
-517.333983774169
-511.153197789296
-493.533761302702
-465.844949685364
-429.472909642078
-389.95958444786
-355.166542818579
-329.569985303139
-311.557572189845
-296.752444074411
-283.180065059697
-272.387384810262
-265.972703536286
-262.392707053749
-257.967103594749
-250.491725646299
-240.870344012328
-231.03359945799
-221.082391975845
-209.233902496838
-194.374950895846
-177.84795099146
-162.307364560578
-149.183204837232
-137.754660441618
-126.568656056934
-115.126280394367
-103.864709304863
-92.9368322494584
-81.7281363269366
-69.7693736813518
-57.6832389354609
-46.7796081608058
-37.7739193421776
-30.2578840377608
-23.4987919561697
-17.3801309642765
-12.1929074962703
-7.6231676882794
-2.4268550973216
4.587172428984
13.3671211430561
22.6366582781679
31.0595999119267
38.1503452899137
44.0071226408322
48.5182582092866
51.2773577465428
52.3460309334555
52.7549562989638
53.9107045938464
56.4967497600933
60.1387414861375
64.1578166525882
68.4065508104785
73.1817192149785
78.4817656021217
83.7219931696632
88.3447557828051
92.4964635136053
96.7876265490469
101.333991914214
105.258299748161
107.321478316239
106.982670134294
104.694869514278
101.229618616247
97.0058536497367
92.2760657748244
87.8010291073292
84.9331240698927
84.757298040769
87.174666076306
90.9748400221909
94.8178606937422
98.039086952983
100.522032441475
102.074688198303
102.27611724805
101.016401505101
98.9538893149323
97.1608136262053
96.2474076325476
95.9330437260371
95.5156526043099
94.6426905696452
93.5089752574469
92.38923843149
91.222882586687
89.8025660512858
88.2557091625816
87.0926367430426
86.6519129919494
86.5706446610752
85.9273947160929
83.9325019880369
80.4390204171353
75.8205922764949
70.5080080968774
64.7630797777132
58.8245505572951
53.0446756509411
47.7182960583892
42.8128815357759
38.008445904308
33.0661204788305
28.0926644146872
23.3756958662072
19.0098929727348
14.8100444323875
10.6446968595101
6.7773603437602
3.76219496840962
1.95738986064085
1.15332411634561
0.657384907036727
-0.326896257844144
-2.41180972550466
-5.95412278262322
-11.0150309813644
-17.2364423671308
-23.8162114987842
-29.7938598642425
-34.5043416363379
-37.7842100312862
-39.7420983128553
-40.4017809313638
-39.661634134649
-37.5869794560728
-34.5946080366548
-31.2086605873119
-27.6403222499337
-23.7328885595839
-19.4041315561841
-15.0857720503441
-11.6064791850056
-9.59815203708058
-9.06780653109156
-9.57513391301692
-10.7347809076528
-12.4140116966851
-14.4423885570253
-16.311041097365
-17.3672870461159
-17.3658856268673
-16.7418317636225
-16.2605641267583
-16.4236017455769
-17.261413465304
-18.6299888939182
-20.5152836640272
-22.9161550673673
-25.5064763928774
-27.6244038909997
-28.7295598463266
-28.8311646905021
-28.3668533836379
-27.6644405330062
-26.6256054141274
-24.9781931269196
-22.7202358286357
-20.1526857527784
-17.4624993300594
-14.4400385218859
-10.772271860071
-6.6051334126629
-2.67203397902034
0.226991327464586
1.8310569380383
2.44909363582445
2.46297002878288
1.9666880191611
0.961721361443757
-0.238106393261668
-1.02752589078472
-1.02885720511551
-0.500100798446998
-0.113047011281937
-0.339007075000336
-1.13941694983501
-2.24434747168112
-3.56364918687258
-5.16686083093947
-6.90581669854182
-8.27537855107307
-8.81008543127018
-8.58334658992105
-8.18290273190484
-8.1596764838297
-8.59277480430278
-9.24542388830245
-10.0240545757249
-11.0902060526047
-12.4813716555436
-13.7959254162881
-14.4516257582061
-14.2772651555909
-13.7226164175603
-13.4118745365394
-13.5695234470197
-13.9815896837048
-14.4527140844298
-15.1010433299361
-16.1000906170579
-17.2585761311006
-18.0743300577354
-18.2698374730501
-18.1472538703676
-18.2916690426067
-18.9693837404064
-19.9401606454378
-20.8394092755738
-21.5428347009401
-22.0011126830302
-21.8229018947138
-20.304286093278
-17.0400132493941
-12.4294268878757
-7.43325553007196
-2.85019641183899
1.01899616265161
3.98731416170452
5.53438896027679
5.06498956542019
2.66828034125393
-0.615010967754639
-3.50356802162248
-5.42106063566903
-6.57610911427126
-7.13266183792772
-6.58886427993828
-4.22651816862779
-0.0890799058705181
4.80627408568009
9.39052524310614
13.4989415462838
17.656555799445
21.9478967287644
25.4168773644342
26.8128492039603
25.8067399274126
23.1959392227517
19.8858937699515
15.9647921121398
11.0167723122654
5.18025379265782
-0.515936389200236
-5.04986571380751
-8.41966049655758
-11.4925594619301
-14.9229306110123
-18.5557295779192
-22.0168343938839
-25.5460995304813
-29.790250053505
-34.7409165847181
-39.3039002732022
-42.2778184364515
-43.6362475951692
-44.465801561262
-45.567408979395
-46.4910521236998
-46.267358389023
-44.8685901727545
-43.3941008571622
-42.6160829373425
-41.7836283635089
-39.4184530619709
-35.2724821657152
-30.9493530095097
-28.260272759889
-27.3340914721853
-26.9549262292498
-26.7334900973641
-28.1287076888209
-32.580461754627
-38.8180608916044
-42.9249296619896
-41.6739094436519
-35.5340178495349
-27.8314709790504
-21.0874456378919
-15.1017983533835
-9.32827711749388
-6.68429217367918
-13.7407588315862
-36.169611523934
-73.8594998128848
-120.642213940072
-168.488432494953
-211.439684485103
-245.733424371368
-267.612332401157
-272.727292179172
-258.126751810638
-223.850722141053
-171.567304970067
-101.890412492368
-14.1633269935579
90.6111869481541
207.424389013436
328.906890753969
449.354548352331
566.291083693885
677.793806111265
779.377018624565
864.72166582605
928.807123210966
967.702028432184
973.28960382492
929.704651321443
819.934532785181
641.134223982897
415.33956650573
182.855201776404
-19.2993095989539
-176.528479432202
-297.381974105362
-397.02058742547
-480.144072237975
-538.463024299823
-561.935082526048
-550.304779443598
-514.203249976239
-467.710484889155
-421.797499364899
-383.630766889063
-358.156056600178
-346.881177830886
-345.014989541733
-342.587670439919
-331.214230670628
-310.628226147773
-287.992224298654
-270.462036733489
-258.888228909601
-249.000937225649
-237.751920462771
-226.939398586352
-220.096094369617
-216.87276764971
-211.925427008948
-199.744134097148
-179.981401509014
-157.637400173071
-138.505046736369
-125.046569015223
-116.264810716924
-110.093326055968
-104.778612686817
-98.4023285271643
-88.721153907999
-74.7406560185511
-58.3196612500131
-43.2728085632124
-32.30927328502
-25.0011178139115
-18.9680275717
-12.7298814208012
-6.87493675535973
-2.49589367396003
0.765971733539679
4.50303313240569
9.58960836219799
15.1689119955177
19.9078683037481
23.838186495868
28.3869915872445
34.6175983184592
42.0049410514411
49.275922039199
56.0872850242094
63.250219268871
71.1979732204172
78.771702721041
84.0394952860209
86.2448353369453
86.5160535774049
86.534041373657
86.8945034795336
87.1512451176235
87.2467564312777
88.2420543654122
91.2563615525351
95.955824896277
100.598812195389
103.696545485322
105.319298461997
106.564597311574
108.022164944468
109.221464330074
109.625857240244
109.680874800113
110.413459705754
112.058228644852
113.518670769803
113.424676879917
111.517588394193
108.715593721896
105.921949075548
103.17336891129
100.132129362207
97.0762767228111
94.9102457252636
94.0986315865879
93.9382383756676
93.2026463762094
91.4226613114474
89.2421409851864
87.4856895141944
86.2058428315227
84.9109272844656
83.5405501681748
82.7460040708237
82.9898866461814
83.6248435102417
83.2433286158818
80.9951055416296
77.3138908131677
73.2196328468076
69.135243886368
64.6915211180674
59.6339771344813
54.4961923224627
50.0562861834212
46.2576248341443
42.0491685555366
36.4608289672496
29.6554453183545
22.725920677445
16.5753259420471
11.2896410643902
6.64683961485717
2.87753673752477
0.527048548389237
-0.429617009640671
-0.976301735357087
-2.29480275643113
-4.69609771325097
-7.50493680398023
-9.95371581542027
-11.9054956524149
-13.5698575863925
-14.7938772809553
-15.076595385284
-14.4050032423679
-13.7704902999337
-14.5090738222674
-17.1032968984002
-20.8269505031709
-24.5912158296968
-27.8713429644561
-30.5894342821704
-32.2988687923669
-31.9976001513994
-29.0549047347153
-24.1575816330034
-18.9837073402893
-14.8400119103125
-11.8121367790754
-9.35181308204812
-7.43013390024583
-6.7258928705545
-7.64357491285335
-9.53578727104424
-11.2631631529734
-12.4551072181211
-13.8464426755348
-16.1850818829172
-19.0282045421677
-20.9241838080322
-20.76456217086
-18.6662446332622
-15.4120503690378
-11.3424473604913
-6.23248381819555
-0.299728130269511
5.09004966233795
8.14373352583841
8.0989822522806
5.75262908978794
2.50878844186193
-0.83328872558279
-4.15796679673668
-7.16136881042263
-8.94071416871674
-8.75314819639916
-6.99215966486582
-5.03095743711475
-3.98483260486534
-3.81885387855807
-3.78755763743148
-3.52706640086555
-3.39076260313879
-3.72501391737113
-4.21052239720423
-4.25575364092818
-3.94326399152306
-4.20851779069909
-5.88984510412806
-8.76950981352407
-11.7710488034931
-14.0231635555318
-15.4541509841779
-16.2931851513723
-16.3393860606021
-15.1231927846913
-12.7883224219243
-10.4325060230615
-9.26747466433208
-9.50763961693352
-10.3154025187661
-10.8280068598964
-10.9555276408147
-11.0218003597983
-10.9026402969352
-9.98276679952371
-8.09952444169274
-6.20300157884502
-5.69805378907467
-7.10630390609996
-9.62113207071518
-12.0637813319365
-14.0278473721017
-15.8441102324259
-17.5947454231694
-18.648182343021
-18.4367717213617
-17.4567080721338
-17.0617201353334
-18.1320777374784
-20.173114050174
-21.8971614564846
-22.5065436477567
-22.1050978349162
-20.9168906108119
-18.5882743701388
-14.6640186736738
-9.62958240079672
-5.01077027228857
-2.18002118534982
-1.23080045590772
-1.25484675918807
-1.58143001031942
-2.34679531017493
-3.74336868868834
-5.14405974535217
-5.50552775182075
-4.68602169790962
-3.92108336215806
-4.6344338602483
-6.90507998117698
-9.45106083500499
-11.1225652476008
-11.989668656483
-12.6680519671226
-12.8713677557105
-11.2489222138517
-6.90246621873517
-0.700504341215408
5.37430527991482
10.1591292946615
14.1872087895568
18.4779982933859
22.8398443045634
25.8535148962954
26.4916697059445
25.2158758453427
23.124388634701
20.3240099014027
15.7439652794131
8.71643058265698
0.29849940910703
-7.40444444172329
-13.1002873044511
-17.0674230854823
-20.0361443900175
-21.8907667490427
-22.0213050378621
-20.7968566659875
-19.9839950379946
-21.2664617139156
-24.6005593227551
-28.485194620756
-31.7893262702789
-34.7704127503028
-38.0565128853398
-41.1743572289945
-42.8774637109881
-43.0364159662025
-43.4920354410675
-46.3650738401089
-51.6517416198359
-57.1205421858999
-60.7571601009624
-62.6947518926486
-64.1118248095885
-64.5277708708782
-61.2583696680309
-52.2827160151338
-39.3435005789433
-27.3663979290823
-20.4236840714044
-18.5453282189806
-18.7121818257861
-18.5463635506475
-18.4052075157409
-19.9891778058836
-23.9036834361163
-29.4839354938905
-36.9011584326772
-48.6093349384915
-68.1817845827259
-97.8022819567044
-136.838779976288
-182.055728871648
-228.279079998144
-269.059530055091
-298.185866258232
-311.847671303613
-308.999143881345
-288.2859281914
-244.447124225157
-169.74807558546
-61.4628987279243
71.7367724806103
213.162084433028
350.426487889046
484.599658085964
625.077358808555
773.795767913103
915.422564457808
1025.39814198718
1088.43120100641
1107.45146689682
1092.6656961043
1042.92286182619
941.664692609071
774.59352306809
551.586181894787
308.87387890657
87.2598220229922
-92.9619143884162
-236.750481120643
-356.835172140722
-454.45108890148
-518.04332756079
-538.607200921144
-523.106156663721
-491.757151241253
-463.524704505155
-445.319578399409
-433.64369928089
-423.223671027469
-412.159862513051
-400.530057177839
-387.817195103643
-373.832293055394
-360.987651920039
-353.140914673017
-351.188027983166
-350.845695024985
-346.070420196741
-334.640332464933
-319.553244150666
-304.856260609547
-291.089215240734
-275.578144231945
-256.607639130327
-235.976916308039
-216.97690039267
-200.725859951566
-185.516711335216
-169.614414843613
-153.592811558225
-139.298660803865
-127.149599100677
-115.507238810599
-102.881526981484
-89.9286525184028
-78.6033446763731
-69.6741313093335
-61.8936786623223
-53.7810541746796
-45.4836386301953
-38.1978170820229
-32.0074385697401
-25.1606797629817
-15.8906592610051
-4.49354102356475
6.9838810356764
16.9926495944123
25.770274909538
34.1646285491624
41.7878592480608
47.1198848665971
49.4962360887848
50.3301138053394
51.8594886551064
54.9181875046926
58.4825116228736
61.4315849920602
64.144687844981
67.8979182363531
72.9863116200084
78.1533546159477
82.1263158964483
85.2443194174708
89.0331973907882
94.2604134315173
99.9553119407546
104.586041692067
107.802746409079
110.526510902455
113.420617657755
115.883435238743
116.911018530582
116.626979901909
116.381648278493
117.232220582474
118.756823732172
119.700841364275
119.551460480954
118.983843018063
118.700347388892
118.338103026929
116.978126241413
114.579247009571
112.36428136242
111.545390637385
111.983236977861
112.494193975004
112.386623778091
112.234107703129
112.93947442689
114.403807220053
115.601626884725
115.957352577431
116.161677820441
117.285644377631
119.291105478031
120.846949691196
120.686777133823
118.790986088453
115.979504606774
112.606566628947
108.163498193797
102.291975057329
95.7705255097482
90.0466720994038
85.8139656116701
82.4100851478472
78.7590363270297
74.6060837239693
70.4947211079044
66.6584250506766
62.4279234350045
57.0080781362661
50.5921393830768
44.2888816726074
38.8933521112244
34.0610988823903
28.9233473828668
23.3096100059166
17.9962584216246
13.7294635244208
10.3807845937613
7.35419405388738
4.63668892630086
3.00397175385001
3.03184741037508
4.18675908596045
5.20160051813146
5.27689265079234
4.60032438278769
3.62458644680359
2.19459319469168
-0.240066412869673
-3.62562978212846
-6.94531054476931
-9.11630807792804
-10.0762829201744
-10.6935287157203
-11.6368587049703
-12.6647561248107
-13.1948889222521
-13.3048287531351
-13.7699254213612
-15.0734382537507
-16.7333563222835
-17.8882164890241
-18.4065989578283
-19.0725033245397
-20.6015913549988
-22.7590119632538
-24.6729297369043
-25.8358696688491
-26.4195740005497
-26.5419029165127
-25.613245086185
-22.8114266141
-18.1770208737481
-12.900534519077
-8.37154140190047
-5.16584240101452
-3.19595858391153
-2.65643654471218
-4.30814049559845
-8.56789581931698
-14.5888840434335
-20.6821943377654
-25.7268293763479
-29.8717482049952
-33.6880164390335
-36.9279776515651
-38.5625704988382
-38.0725677686693
-36.271220628072
-34.5027772355097
-33.1956216475105
-31.6430236454655
-29.3120962290364
-26.9660687521006
-26.0843594439247
-27.2615861602852
-29.6046608698604
-31.8639730146442
-33.7984068735313
-36.0157189653782
-38.5871311318744
-40.3889115046842
-40.1740930898711
-38.0609257949421
-35.5055699297656
-33.7521881264225
-32.7104246922796
-31.6223323052731
-30.5181801133532
-30.4420859253936
-32.1045076581229
-34.7679777906916
-36.9245449103626
-37.970483071085
-38.7293299676904
-40.1412011483228
-41.8280024490448
-42.4130686206351
-41.1766265751147
-38.8776954777483
-36.6808671406166
-34.6406562066786
-31.792407575629
-27.7670143022066
-23.7861949453754
-21.6416812786326
-21.868327559177
-23.378239879954
-24.9387170352638
-26.5189225569084
-28.7853478936024
-31.5352475442932
-33.2913407850988
-32.7386058329987
-30.206003932686
-27.2698521030053
-24.965150051175
-22.868078202625
-20.1249761391749
-16.9377746229836
-14.470579161487
-13.316166360951
-12.6331288738717
-11.1873963419684
-8.96975580624677
-7.2470361162825
-6.95531324156828
-7.54148274442088
-7.7617276225724
-7.33018977060181
-7.17487105179595
-7.94704828866638
-8.83092357283671
-8.35967282748023
-6.25148553561371
-3.82354286116687
-2.34370858803822
-1.41915618993894
0.45867590416406
3.90377329153484
7.80849234237546
10.8126254456413
13.1203263152325
16.1923039762514
20.6275130980111
25.010785445386
27.3367119549124
27.271130506143
26.3670355333981
25.9741022268001
25.5734137090344
23.6883117851572
20.1013513971284
16.3569034943696
13.8013526218804
11.7349894489842
8.19354265878745
2.44188358244414
-4.03707373697126
-9.34593875963305
-13.3894065057073
-17.5820858552972
-22.4876289325972
-26.6534314777913
-28.3629920248133
-28.0701559299461
-28.1876979359677
-30.2849769401391
-33.2378759621771
-34.7739358202445
-34.4435391714702
-34.100333176122
-35.2036250436942
-36.5480756424472
-35.655822421408
-32.2844506130497
-29.4806189791105
-30.4910639387766
-35.152212949871
-40.2586748631787
-43.4970404433797
-45.965780702456
-50.0028371861423
-55.0227330583439
-56.7787992393614
-51.3746121001106
-39.4987645303263
-26.0326695111231
-15.6999890378653
-9.8407944824437
-7.4001615228313
-7.77200391374385
-11.3501009750798
-17.4999326887665
-23.6769134838709
-28.050021647444
-33.0185053903618
-45.0912720458824
-70.440616104392
-110.277855481844
-160.115459884365
-212.534044610616
-260.114668448822
-296.825198312624
-318.925296021022
-325.935494607679
-319.738296629034
-300.586578357821
-263.330062017163
-199.239990474475
-103.523829527909
19.0862337193433
158.030379042337
306.931603714775
467.975938665872
643.532260099724
823.210870455502
982.539765577992
1098.26133182564
1165.5234178312
1197.15959364048
1203.4293538467
1173.41407774297
1080.24574403949
907.974644232352
673.759763732151
422.176174198038
196.359560997705
13.5633323189248
-133.669064038424
-256.90293706923
-355.975970619183
-422.729485493215
-455.598251097285
-465.973800282345
-469.615625634643
-474.487267204993
-478.835123344188
-479.38137686455
-477.712571779021
-477.199175006027
-476.134967654425
-467.72063536488
-448.225948954599
-423.486057712374
-405.087517812867
-399.668183350569
-402.882554959273
-404.192761020494
-396.613410902271
-381.046005674022
-362.178196238191
-342.387789742443
-320.732387122899
-296.639911870436
-272.40009521941
-251.224138035272
-233.919300175273
-218.730928319017
-204.294357095083
-191.510310143938
-181.863485555074
-174.602020695036
-166.674098024143
-155.614861049258
-141.754000267049
-127.120240369284
-112.712844511713
-97.7070152698731
-81.3741402736963
-64.8947677765574
-50.524385948126
-39.1717651368629
-29.5333677411175
-19.8515596680698
-9.98664925460718
-1.22311336579403
5.73362290677695
11.8422452017615
18.5399437195241
25.9822404666009
33.0808689054667
39.2391125628861
45.421832626371
53.1056874126884
62.4529613762129
72.0381676260041
80.4073674543192
87.4244343437943
93.7721567634579
99.4759096877188
103.561159937809
105.356586980582
105.695886754652
106.347884943407
108.289717010267
110.923018002398
113.109408522666
114.608295927482
116.107802292364
117.974694290491
119.523178433523
119.853109708774
119.182828616972
118.906148712827
120.2206213987
122.978186020714
126.088627333731
128.839618052708
131.442215960748
134.251676896787
136.871288442164
138.428147383077
138.686051686904
138.512699702416
139.034194520885
140.485987594474
142.125754485553
143.200943847622
143.682775913592
143.910719342275
143.783231850328
142.694011273916
140.352321226947
137.390781368653
134.89142975113
133.339352433182
132.240057044447
130.79210752016
128.712983646315
126.228399573907
123.398038661488
119.805582584987
115.095600855835
109.658271002997
104.511936515684
100.431495651777
97.3147657132479
94.4702026110293
91.3817143743865
88.0080002752313
84.3805277363849
80.1929442872907
75.0214307680612
68.9091595514725
62.5172346586512
56.5794544660402
51.2795724949316
46.2535051228288
41.1285988615454
35.8916893565027
30.698420141324
25.5164496032949
20.1842671096016
14.8412223943126
10.1111585994823
6.68816955339494
4.74233065298526
3.82711894039582
3.37378448102714
3.16101445459611
3.23463263888718
3.48999362382645
3.55562314868563
3.18557616452124
2.64912625029326
2.54187100943486
3.13705882999784
3.98512091912478
4.21436685784258
3.19624101213471
0.870622990845213
-2.50741167394106
-6.75011269935989
-11.7309110500896
-17.0547536044026
-21.9347141370727
-25.5679268385326
-27.678798527717
-28.6655519035075
-29.2182615781669
-29.8308186201069
-30.6559000584128
-31.6827342480137
-32.8705370694102
-34.0474862339292
-34.7946601693847
-34.6109015998156
-33.2956767196525
-31.1670580155025
-28.875867251718
-27.0141556344745
-25.9056122814648
-25.6885725139236
-26.4334956162202
-28.0535933580058
-30.1327066751052
-32.004728526259
-33.1591427094586
-33.6180045861183
-33.8850241243644
-34.5070308262892
-35.7017254226708
-37.3914595759303
-39.4804936204076
-41.946222275725
-44.6149439486246
-46.971553909905
-48.3781579046985
-48.5794208521189
-47.96250372087
-47.2561821874751
-46.9710496746318
-47.1594150085227
-47.6688244551368
-48.4764118800408
-49.6501882920061
-51.0272871645462
-52.1188953992409
-52.4869034983
-52.206720047445
-51.8476307489768
-51.9371592758659
-52.4851882371895
-53.0653563167858
-53.2782762897092
-52.998386987919
-52.1583818565982
-50.4787273542518
-47.6379916605682
-43.7706658392485
-39.6667021412936
-36.3302130913057
-34.3119960387898
-33.5061153299105
-33.5343917423977
-34.1518317880491
-35.1704982953816
-36.1162006340484
-36.2409679202694
-35.0531081962207
-32.7887278126515
-30.2234548285763
-27.9911730670271
-26.1711165816808
-24.5557290572912
-23.1615404338627
-22.2885961282852
-22.0897254231064
-22.2980326825403
-22.5558088012308
-22.9541094106979
-24.0470606918376
-26.2393916712476
-29.2508349301326
-32.27941925409
-34.6160330952461
-35.9446398386253
-36.0668892909741
-34.6158925364143
-31.3326812705201
-26.6394061651737
-21.7060880874253
-17.760116736327
-15.3478156110053
-14.3400940723314
-14.5270571885561
-15.9139581011297
-18.3137520976912
-20.8985680876126
-22.5461092433227
-22.772571129579
-22.1412640540227
-21.5608021437632
-21.2654251395271
-20.7107132162539
-19.4624216010561
-17.8544297258571
-16.4817849299316
-15.1733191885754
-12.8912148617973
-8.88100901436234
-3.71828843761771
1.11610887302964
4.70795693882009
7.45147783337844
10.1645773512477
12.7425584110204
14.1161321009736
13.5940949215689
11.8408803316211
10.1617006816568
8.95654548991681
7.33852629724195
4.47088206869228
0.968295118021572
-1.41540501145508
-1.43795279199121
0.683412712865692
4.09794405803721
8.66611247890836
14.9397461114063
22.7874847266787
30.5771161937262
36.1861320047879
38.7338327553707
38.9499848615686
37.8391656806242
35.4787137572544
31.5052979512714
26.4715884130726
21.9922874402284
19.2131682312487
17.513236908493
15.2380773298096
11.6663318177013
7.73289319052048
4.59791957493773
1.9962070474912
-1.36590308719854
-5.84093426187219
-10.0001759138642
-12.2617449251115
-13.0139340042469
-14.3931546736174
-17.795211059511
-22.2104813621132
-25.5445753817578
-27.2491721670464
-28.8189956711808
-31.4601965169912
-34.0269253082532
-34.1269408076094
-31.1854740684695
-27.5408718516907
-26.0170731150663
-26.9477384525836
-28.3913377133222
-29.1372387248471
-30.4154698707602
-33.9285932672723
-38.807760639064
-41.7347236694112
-40.3756427660554
-35.7316460681538
-30.2309972181154
-24.0861131503485
-15.087238705154
-2.65240757238634
9.08493707210793
13.9449030736375
9.83090097304144
1.00493546821159
-6.91138351167671
-14.0000065657531
-27.1286860797486
-53.7012316975001
-94.9304268892957
-145.350388233597
-197.488521710735
-245.301650221547
-283.482139597129
-306.437159232304
-310.883694314674
-299.263782051887
-277.593883262614
-247.53508942446
-201.341130128408
-127.258965199246
-20.9807651504814
109.877984704625
254.248942747041
409.02559894849
578.262900337485
759.116382486604
931.258879553571
1065.34145129678
1144.56192117518
1175.90997216578
1176.6162456732
1149.10765324022
1072.94221203843
925.484650856358
711.337971841764
469.172116533216
247.27646569726
71.5275059007566
-63.7481157299231
-176.808649167529
-274.78096775102
-349.727464912957
-394.285445440346
-415.570634475361
-431.112458755592
-452.947398056259
-478.571187534442
-497.470521886581
-503.705645450586
-500.232029577123
-492.647612741871
-482.36322768448
-467.493846884054
-448.481401450802
-429.870282679505
-415.881328327748
-406.021289114417
-396.544149082604
-385.490048363218
-374.467300474066
-365.113803970984
-355.476079789632
-341.562964782888
-322.244426980778
-301.03681196732
-282.260458061062
-266.327886901955
-250.014664724411
-231.15166785948
-211.631246952426
-194.993114893054
-181.875106308298
-169.194055285872
-153.963045882789
-136.764945554246
-120.598533739012
-106.892724122812
-93.9463617908031
-79.6149344436328
-64.478792035399
-51.2770891544721
-41.4298492264334
-33.2528791544432
-24.1432305830239
-13.810983662218
-4.39371900151395
2.52595445761283
7.98817013249568
14.1661961199176
21.4355824145091
27.9516768328163
32.2823698731108
35.5888278923832
40.4600297516865
47.8919553284614
56.2724601738577
63.5595714328267
69.7194173016482
76.2968793443183
83.856124725281
90.8050941994996
95.217672006665
97.2821916669879
99.1812845001541
102.556002605373
106.791552285601
110.199712979124
112.390445147797
114.694456395453
118.190212422677
122.064732689408
124.536598475413
125.142456349826
125.389887044954
126.931448970077
129.629477672481
131.951924447291
133.055832883392
133.772956312889
135.270362429788
137.273508841682
138.2849107344
137.544493972768
136.150296572298
135.84734549131
137.026436983858
138.462343277362
139.016850224561
139.007298373765
139.484994880798
140.48803009212
140.679777986111
138.916477606855
135.712438493172
132.684324188432
130.67867232209
128.962660444094
126.425442717377
123.125479526052
120.149662933201
118.04290450162
115.957962560178
112.692739909638
108.266387676806
103.962804964327
100.766594259617
98.1906695454918
94.9501917871012
90.5376652053946
85.6534443574779
81.0300758511281
76.3142570644495
70.545023287917
63.6093545264332
56.7395898030946
51.3552081517725
47.6864650203186
44.856954893017
42.186384393161
39.9504019146147
38.6617213534355
37.950448267603
36.6400564566808
33.9929189953832
30.5220945365271
27.3171814153963
24.7571044028434
22.2388794254585
19.1799563091089
15.8989496814043
13.2113493404456
11.3303276078714
9.58363537022484
7.34399018108741
4.93416907881328
3.2887976183311
2.7901049790035
2.77057688784299
2.28614229214156
1.11241097397112
-0.314384301200633
-1.83361064620581
-4.01931214502034
-7.47564717039847
-11.8848268499484
-16.1099877818789
-19.2991350226398
-21.6288944339554
-23.7957514347065
-25.9858712024374
-27.6925416414389
-28.5760641286148
-29.1445186239745
-30.258238437499
-32.0344173295839
-33.5719684092417
-33.9039731983862
-33.0234668192635
-31.7452128841126
-30.6602180188081
-29.5660560512058
-28.0721411472065
-26.5088679086015
-25.8697573326395
-26.7904812517076
-28.8401542792749
-31.0184301319273
-32.8287980583526
-34.606256998831
-36.7763140970143
-39.0824080343041
-40.7922387915568
-41.5725921767314
-41.859663845144
-42.2456360009828
-42.7008046228848
-42.6505117860133
-41.7995671107194
-40.6380267413942
-39.9994275780798
-40.2615383621392
-41.1844430786711
-42.4925882330346
-44.3387995650128
-47.0029136601754
-50.2454279150246
-53.2222032758499
-55.1416671533606
-55.8859528400491
-55.8778718886226
-55.4468569830292
-54.5408935438136
-53.0992023592693
-51.4896003827152
-50.3396251289472
-49.9260794699256
-49.903757795816
-49.7340363173775
-49.2805272504274
-48.8449668264621
-48.6562946849215
-48.5142259869794
-48.0392797136839
-47.157767114762
-46.1514968508877
-45.2035438555093
-44.0562508814999
-42.259355827203
-39.7180511532851
-36.8648051592445
-34.2644715379767
-32.1662564822222
-30.5281866804945
-29.3822383596898
-28.970524019268
-29.4287708018375
-30.4364745014317
-31.3301785706267
-31.5915708195148
-31.1514878516407
-30.2020434496578
-28.8327902367002
-26.9836566044428
-24.7328455780461
-22.4676649133194
-20.6464822871712
-19.422631086004
-18.6059523151774
-18.0090204675928
-17.7300028785821
-18.014055624742
-18.8877408186644
-20.0494618058419
-21.1515780954912
-22.091719253163
-22.9256677058153
-23.5277143357154
-23.4801780521686
-22.3977184496767
-20.3299762689982
-17.7587520356404
-15.1836436057577
-12.7761020278931
-10.4723760550753
-8.31924179127191
-6.58540881180047
-5.47506822351228
-4.81059398268379
-4.1194878814705
-3.07923927543204
-1.83492507488558
-0.841496394086548
-0.424562791353786
-0.550249688588622
-1.01075475258344
-1.73232913769437
-2.79810027423645
-4.16420262374563
-5.44810391513096
-6.0978964230511
-5.80187944021025
-4.70885298263156
-3.23887950215725
-1.71714160167144
-0.230119632140779
1.19299694579299
2.36004173745162
2.96344269484403
2.84849201471018
2.17017194610248
1.23722898010798
0.221587162525905
-0.930266587149814
-2.30101390354035
-3.78379628659063
-5.11134931450335
-6.0755715461316
-6.64426196567587
-6.83908959361391
-6.57129106418756
-5.68608129557749
-4.16239845178332
-2.16883150442985
0.148333324888046
2.88232327565911
6.26556319283256
10.3297101281508
14.7540561143542
19.1200617097041
23.2396775390004
27.0753674592875
30.3016979635867
32.1238930544134
31.7623566489689
29.179739430532
25.2111713765647
20.8917020203366
16.7551895406352
12.9439586079067
9.93328429601895
8.80800195573772
10.5132947529845
14.8392501115224
20.3963327769213
25.7428131174177
30.4123498969162
34.6666755753239
38.3696330363106
40.5047107919937
40.0574705442205
37.2009505289875
33.2350885004495
29.2461209216357
25.0930855750406
19.9648199808381
13.7740701214784
7.5776385454626
2.4595572436546
-1.68204400831106
-5.85143458792553
-10.5250675613489
-14.9457155095461
-18.0825940491243
-19.9923649123122
-21.74781845906
-23.9856801444272
-26.0036308112958
-26.6657144258801
-25.9633354405396
-25.1364578890468
-25.1408880580753
-25.5088203347361
-25.1943984647279
-24.2954999155556
-24.2122532189658
-25.8118978808188
-27.9844612126905
-28.7133042434327
-27.5043045179541
-25.9935778848148
-25.7437968938787
-26.0454710788556
-24.8405388643066
-21.8561309480462
-19.7523429053342
-21.1966648538066
-25.0848674994006
-26.8206267931934
-22.9216558054177
-14.694290273264
-6.48921791899187
-0.672638581179637
4.22742127476453
9.50560000980417
11.2636503275286
1.12541512881071
-27.1752526068475
-72.3287367985972
-126.887385155327
-183.248478439899
-236.922760770525
-284.177856571738
-318.83101445534
-333.792655898058
-325.903187669246
-297.370251563553
-251.26300117428
-186.857083866133
-101.508476751842
3.08430851630522
119.460310027728
241.711037806986
372.985935951073
521.576655995618
686.784730102913
850.280144266925
985.565110870847
1077.98136640373
1133.3068196361
1163.51151521244
1164.30649730908
1110.9573341653
980.598332772923
779.549777725483
546.469465570185
326.534126965646
142.003341362151
-12.7442633078761
-150.695540739954
-271.330815017504
-361.375025989901
-412.634917854444
-433.991803725897
-444.044945656224
-454.532265860536
-463.95771593733
-466.653944677048
-463.940930778414
-463.479332346552
-469.135683721058
-475.395690132931
-473.636520698034
-462.163980733415
-447.559638305716
-436.268511128673
-427.376578959559
-415.243079441531
-397.817038743718
-379.701183348493
-366.355778967192
-357.218494979578
-346.468794304876
-330.12804499874
-310.391839486674
-292.151449091352
-276.724589820411
-260.861009820593
-241.767307780017
-221.171035095954
-203.163506944132
-188.938567141066
-175.433759095924
-159.500894486778
-141.987832716795
-126.465273237681
-114.49624826832
-103.747485670403
-91.2778721799517
-77.4876432225666
-65.5035528677231
-56.9262009866096
-49.6247380815889
-40.4487969856974
-29.2231478178889
-18.7946049096109
-11.1752961067209
-4.91277563197949
2.92013285438784
12.8461602567799
22.3476750416889
29.2350668737587
34.5076230276386
40.9436444256084
49.3270201702141
57.2934296434844
62.2842415870089
64.7196595469659
67.2997642365778
71.4701778460661
75.7426993938145
78.0038958538777
78.6543577037868
80.3782930352971
84.8333949273734
90.5954395016115
95.0058384857911
97.4602876988958
99.8789470299698
103.885948357267
108.526654348509
111.531821052681
112.387302742318
113.102471896931
115.654596200515
119.474109287813
122.241768618539
122.890683367584
122.86059705431
124.039986845796
126.216115069019
127.43215433932
126.730379729784
125.586817131272
126.100801316086
128.314921456056
130.185318107643
130.2184366319
129.301210817714
129.368938916231
130.750526574711
131.740080381681
130.944283536108
129.25739099899
128.811147621879
130.250274523334
131.891049632154
131.839156597468
130.276786860197
128.965391545406
128.711952455504
128.197867224134
125.704934441216
121.414969764829
117.21974935189
114.292682913866
111.623897100684
107.421747353879
101.499193217937
95.5092662635137
90.7843899341555
86.6952674315004
81.696939951204
75.6152181436243
70.0744175705847
66.4591770678353
64.1034370183254
61.1164258176306
56.7720266377044
52.3311580564026
49.2551640613411
47.2181786764161
44.563930143856
40.5787207275598
36.5227119500775
34.0007784960733
32.7888215043663
30.9803477196908
27.2889994115813
22.5319154789746
18.4191800620215
15.3105080555645
11.9058064370394
7.22382802780209
2.17967867137892
-1.38270991472413
-2.96374552691086
-4.01446005903983
-6.0932226603382
-8.98486133880803
-11.1843574905539
-11.9958059870783
-12.4056301187008
-13.5994256168024
-15.1785194160479
-15.5372158877445
-13.9623752116179
-11.6935817622857
-10.5331676429207
-10.8198240242377
-11.3899079271763
-11.4823286917782
-11.9610277823812
-14.1734694811898
-17.9688189295138
-21.5805293988559
-23.6367514066986
-24.7253388127596
-26.4832856155506
-29.4091576998769
-32.2537718491883
-33.7421920477508
-34.3003963738811
-35.472414123899
-37.7933329945764
-39.9496163823672
-40.376137071858
-39.2321370349779
-38.1976738137406
-38.3866604935801
-39.1095607454153
-39.0445784110747
-38.18137387952
-37.9212890040472
-39.2171534739634
-41.2629233483372
-42.5075561264665
-42.6669192503591
-43.0770869935084
-44.9353155386252
-47.7698011617455
-50.1482984388366
-51.6333545851623
-53.3304791660907
-56.2738649949085
-59.8175285194718
-62.2336267215506
-62.7924054086598
-62.5966589911005
-63.0521160660702
-63.9695786482911
-63.7909336486748
-61.6348808483327
-58.4578327822527
-55.7992507391988
-53.7829702744027
-51.041029033403
-46.689616329814
-41.7627391466152
-38.1959004846604
-36.6485381923471
-35.9538019878144
-34.8297181633969
-33.537541112843
-33.3124522019311
-34.396438242536
-35.3706127651795
-34.7475502976896
-32.7659804524075
-31.0401778832164
-30.5313302635695
-30.4903750865947
-29.6921384592544
-28.2299126309306
-27.4285893502393
-27.991139617416
-28.8916823894673
-28.5597682419612
-26.8474243632904
-25.2000786991103
-24.8022616286462
-25.1288285403205
-24.7751757295387
-23.4098761868791
-22.2180325968812
-22.2406245583334
-22.8479213118503
-22.4347872961253
-20.4788702774491
-18.2707633034798
-17.350022935031
-17.6858830665524
-17.94980162197
-17.4402279721214
-17.0445756440569
-17.9439559015082
-19.8132271560527
-20.9752410065038
-20.3824845485875
-18.8565712185908
-17.971100346377
-18.0581382767698
-17.9486949400311
-16.7287260455797
-15.1086681049533
-14.5393731322024
-15.2442944319303
-15.8207497418313
-14.9986768410151
-13.2690855550317
-12.2397467719258
-12.56652395632
-13.1792939600137
-12.7865353419746
-11.6113916560058
-11.021605682281
-11.5537977806367
-12.0104110199136
-10.9039799706066
-8.39031393642183
-6.14568311080429
-5.33838295110079
-5.35028245113777
-4.88456740506934
-3.90637091748937
-3.75952854300819
-5.2692214813357
-7.38696633876446
-8.26889785851987
-7.44959037101528
-6.2791881082002
-6.05695616263025
-6.33655018086085
-5.64298966126997
-3.61462016354667
-1.65565249864543
-1.15519205139671
-1.60659991784177
-1.16757234989658
0.996541675223457
3.63126625456976
4.99856051057101
5.06529085702385
5.39616265070963
6.9064659329009
8.47657127634335
8.30811353778347
6.26908447956948
4.13475370488057
3.38076855196986
3.41036347049852
2.53431561685988
0.40183515927614
-1.32080319602645
-0.903732770600575
1.44633250003502
4.14693934087045
6.54049877899503
9.80359331598568
15.2124955159268
22.0671191384143
28.0635330676214
31.6755683731719
33.4673182209192
34.72437589064
35.3843339582827
34.1421573823512
30.6022556869137
26.4975629257096
24.171852768481
24.1889220072888
25.1579299399536
25.9451716020531
27.2599896556864
30.4593604788491
35.2158398840084
39.323274775738
41.0950112482446
41.2572859605394
41.7769348967681
43.09925310291
43.4529807009512
41.1952472578507
37.0964776140462
33.4591702024509
31.1526228929446
28.5017357197738
23.5983490326621
17.0401240516632
11.4207084820216
8.1305188163179
5.64035610702533
1.57220802935452
-4.12852415847886
-9.1175582031408
-11.8032898793765
-13.5302639886552
-16.8101057996897
-21.8687385461295
-26.1186212037288
-27.3716345240128
-26.615476930888
-26.6553416031476
-28.3686668473659
-29.5459033076003
-27.9093794904873
-24.3046688945183
-21.7354186318751
-21.4438997145054
-21.3058084011235
-18.8375621786058
-14.8912022276952
-12.9861861124159
-14.9528575596259
-18.6302507131139
-20.8018379229507
-21.4711280946141
-23.4619176625135
-27.4581084817263
-29.1613455154351
-23.2119112195135
-9.83087184912792
4.08090928222744
11.349209496812
11.007143510266
6.94487269861799
0.407684628343301
-14.1074897148695
-43.9101235382489
-89.5669137055009
-142.715039813668
-192.591183042133
-233.475893742581
-265.092598486012
-287.396562488972
-297.687460329805
-293.519178142085
-276.150611894167
-248.459583301349
-209.454329234198
-153.183972139542
-74.4730564343909
25.7434906503028
143.019486587709
276.701736090754
430.835008376354
604.498947550518
782.03862502081
936.950751790582
1048.49046130249
1113.76795008239
1141.11389131251
1131.64643774866
1071.05476432715
943.479498307496
754.037393911365
535.005697860272
327.125282924296
153.931064755048
13.8052249782272
-105.456289967556
-208.150120207228
-287.850133682976
-339.627379369527
-370.023564793073
-392.740300084069
-416.39263687868
-439.240663215771
-455.706724967881
-464.979276737399
-471.057378449111
-475.791087194867
-475.315261932541
-464.963951538069
-446.158404255395
-426.141175498365
-410.704757194458
-398.887090284533
-385.825860024226
-369.626405601333
-353.524781193127
-341.157396183835
-331.513117023159
-320.052577972352
-304.266073537377
-286.472009300815
-270.604300641667
-257.463734661921
-244.419456598582
-229.415736742472
-213.716917879435
-199.947631305664
-188.368044075401
-176.44360565105
-162.161764554312
-146.608038853009
-132.492602202407
-120.751842161292
-109.727864092262
-97.8015292860724
-85.7664375174969
-75.7511296321187
-68.2208880193355
-61.1211618861988
-52.2944142168142
-41.9561284457628
-32.0310546559131
-23.372672815663
-14.6251256812411
-4.17768387603706
7.49405532156545
18.2634615340397
26.9740392861919
34.7557211965809
43.3201661519007
52.5327935866214
60.473153169069
65.8660476340953
69.6591724266391
73.7145442381629
78.4086212404011
82.3156446064163
84.3289490454664
85.3557712076214
87.3351942817403
90.8821435185782
94.6319867356644
97.0819987208085
98.4817835201065
100.366465522537
103.483525378578
106.908013794987
109.447361622091
111.365984620694
114.093473297117
118.308731169001
122.925731680139
126.261249818879
127.795679164322
128.272609973421
128.203414471842
126.956964030331
123.716788141921
118.97812812912
114.491428421788
111.638904484017
110.317308647547
109.691042006292
109.669964337257
111.053933503558
114.173838287995
117.959972803739
120.825429475636
122.293528813502
123.248672783768
124.486474662097
125.490763849741
125.056245123805
122.909554311632
120.147471486378
117.890310781857
115.93497338617
113.201840104724
109.384283539096
105.599200724175
103.142470601022
101.947040152871
100.729455144916
98.5969031692495
96.0063706950107
93.8814360760951
92.1491084647861
89.6954410509212
85.8126635484904
81.2105106670193
77.2373685526025
74.3120952945071
71.5753627416568
68.1320643573014
64.1857053616893
60.5936897975315
57.5312033402206
54.1276824142587
49.5914654163795
44.3146109535217
39.4673651108356
35.6008242230274
32.0747248665521
28.0047232877644
23.4205627506772
19.1186354963787
15.4999611416453
12.0333409317316
8.07811737501174
3.92272859618996
0.611983706904027
-1.19946351638688
-1.82828337600128
-1.88378787023029
-1.4264368634616
-0.269969677506282
0.97854284052471
0.787965970400904
-1.95882927593429
-6.68013782647537
-11.5980292195124
-15.6039112686568
-19.2558555340313
-23.6695643446889
-28.7131018253849
-32.8300509858478
-34.7568839085563
-34.9722095585996
-35.0459252331435
-35.7300946988712
-36.2071395936521
-35.3767800665086
-33.4442368943627
-31.7608740255897
-31.2047859502092
-31.2686251131284
-31.0080175071061
-30.5032354223813
-30.8334820973365
-32.5913063839132
-34.9400230233066
-36.5043849315938
-36.9491137165171
-37.1958656021356
-38.05198600644
-39.1261522381143
-39.4775649289967
-39.0732074784428
-39.0076981898826
-40.0961226956741
-41.6776349840223
-42.2658658136081
-41.2758031438993
-39.6298893723805
-38.5116760117863
-37.965732364844
-37.2085804637622
-36.1865252195852
-36.1940033141332
-38.5728996875404
-43.081377241952
-48.0393556742457
-52.0978399051204
-55.3937633875006
-58.6906115387714
-61.7677544448683
-63.2931357004599
-62.4090270315949
-59.935044019366
-57.5403850626908
-55.8898969636557
-54.1297527717369
-51.3394140318337
-48.0153977998345
-45.636137533604
-44.8984402203236
-44.9570336213165
-44.6478407208377
-44.0329678634748
-44.1777538817997
-45.4297481736938
-46.4942396153767
-45.6022876255181
-42.3466464434535
-37.8949294853845
-33.4100479770405
-28.8154155803633
-23.5063331791091
-17.9632454966942
-13.9812413839261
-13.0396182998973
-14.8073309498846
-17.6540428932893
-20.4776825940933
-23.5240137122803
-27.2773909003038
-31.0561947837943
-33.285621862968
-33.1416962928029
-31.412316048057
-29.4421858838845
-27.5402001380781
-24.9021238970927
-21.0758580253907
-16.9779210568974
-14.1107145805242
-13.0294877789837
-13.0608579407927
-13.5529014344714
-14.8845474030165
-17.8256775193462
-22.103239464089
-26.1399644792804
-28.4034544853199
-28.6878141013599
-27.7701925871035
-26.0534308487905
-23.1014376510966
-18.6746089020782
-13.7606699646792
-10.0438466465126
-8.34936546624454
-8.02012826361416
-7.99668256637148
-8.15014095420787
-9.13447369048969
-11.0574410230657
-12.8781847677133
-13.4463465253801
-12.8335206083236
-12.1431048930124
-11.9897387115627
-11.6433737774822
-9.98763078817378
-7.03663473575885
-4.00062770697268
-1.82251812844947
-0.156102316159584
1.83838718115445
3.9759690658577
4.92997158735007
3.79946703036653
1.35343359007062
-0.714395588086877
-1.60737847315153
-2.0020052754253
-2.71110235737718
-3.30847334150072
-2.62398520180692
-0.473984114153705
1.73868048986442
2.48457182704388
1.81845407855901
1.1407974106465
1.33568492101799
1.73020438016347
1.20830329849423
-0.0721030598440677
-0.722224312414372
0.0798083884947296
1.44381195626018
1.87746862398205
1.26065584190978
1.09175298909674
2.65085864088848
5.46874985684319
8.08509607029464
10.033022698992
12.3508630764678
15.9084050781493
19.8196965379427
22.1838107051712
22.3192747473856
21.6084277430449
21.8254085752353
23.1141069086744
24.2360483160342
24.6746837831608
25.6785675937345
28.7278582267187
33.4037640751211
37.556931666901
39.6976926271442
40.5596865440818
41.8067706868044
43.5963633484036
44.2386664395279
42.4211873802593
39.0290055721414
36.0774367901965
34.1119692296917
31.5398861310715
26.8635897049056
20.9195189909733
16.1333513747521
13.6926725322679
12.3026361324346
10.1235840601089
7.27453222664749
5.52490800512359
5.56469626012118
5.55915095263103
3.0809123272902
-1.97940638439964
-7.32224239615651
-11.1153727752662
-14.0672298511869
-17.9911021105646
-22.8638607528309
-26.4562868867135
-27.1747307539829
-26.3239883605682
-26.5950234280302
-28.5947942882394
-30.0161018003782
-28.6919547610782
-25.5655892658051
-23.542719005664
-23.6242643826515
-23.5316322094905
-20.9333853130428
-17.165429352882
-16.2690568214309
-20.0626020103041
-25.3611184956206
-27.1212753333551
-23.8610744241995
-18.699343043
-14.8825533277576
-11.778232554961
-6.76571834035968
-0.76391645513501
-0.181018501643134
-12.3633722640779
-39.7029939037524
-78.9961928593222
-125.68960430105
-176.627662643961
-227.846342262934
-271.686108809285
-299.083821965438
-305.594954188462
-293.373518673423
-265.568413182906
-219.915165032949
-150.763710261892
-58.4022816375265
46.3461167537489
150.489951151853
252.382417220456
363.71138532465
494.717367673864
637.647535332011
768.076303219653
864.804993208169
927.06703545392
969.044536754733
996.748425263785
993.270355435805
930.574468662473
797.08546079582
612.541810363153
414.879633819371
233.237220873309
74.0515784348157
-69.1955032072333
-197.603739003223
-301.129064865896
-369.291777441152
-403.211097433792
-414.776262873586
-415.642819844301
-409.965934147521
-398.059318616757
-383.844538869079
-375.217932831142
-376.730370332984
-384.243982584779
-388.717011132603
-384.916441948013
-375.160581534506
-364.672938416986
-355.047535277708
-343.561773389978
-328.075202597208
-310.608361879424
-295.220665609213
-283.358976690818
-272.636624464482
-260.153797067255
-245.813873232898
-231.693647780421
-218.913509971954
-206.355394265775
-192.635606930861
-178.33746315703
-165.439805731733
-154.825838476442
-145.250008195747
-135.037432130474
-124.158216218658
-113.994086217271
-105.296772092996
-97.1485334570789
-88.2208973027647
-78.5149235701638
-69.2333529002986
-61.0333691938974
-53.0510649451783
-43.9780177909377
-33.7241703647959
-23.5014189860844
-14.3230950511908
-5.96022503870413
2.34612232460211
10.5224874266661
17.5688766240213
22.8676412523013
27.1237683792281
31.6711552597598
37.0471658142954
42.6508540828822
47.8080578942633
52.7301990921157
58.1008428130375
63.9334451521077
69.3141255980409
73.4167607637961
76.4565145942247
79.3378014786042
82.4875217889831
85.4044538840307
87.4522633086865
88.7707749030086
90.0824314648643
91.7007733114386
93.1180446575028
93.7454348321098
93.8175352043314
94.2489436484101
95.6178664289168
97.5834092247007
99.4388142863132
101.008927731156
102.705815484074
104.736785888106
106.598196378547
107.578920938877
107.6269742554
107.442932005253
107.680092112143
108.276916383806
108.721676744248
108.805645293951
108.8316257629
109.047588797297
109.140768862776
108.526539373679
107.075132239675
105.325848955496
103.918697122909
102.985643936973
102.241205902554
101.546725118823
101.12117195837
101.116976544837
101.185616590001
100.68034635765
99.2719511164725
97.1901540575579
94.8069372104223
92.1475336056209
88.9711403676741
85.2561984528502
81.3758023269213
77.7014990851966
74.1864621115046
70.521282391712
66.6653926763057
63.0236928148293
60.0040279331001
57.528864728291
55.1387590870156
52.5222486200197
49.7326282955197
46.8001714779885
43.3146875066163
38.6424839633824
32.5981536429744
25.738918284919
18.8881244070948
12.4712867530058
6.47100461860754
0.97221172302045
-3.51712634107707
-6.47203427636978
-7.98501554911385
-8.77774226128305
-9.51640751142267
-10.2490434406623
-10.6182445359214
-10.5052942682435
-10.2448218796067
-10.1706074485195
-10.1587340501587
-9.81597046647144
-9.06732259276499
-8.3448413513456
-8.11079651965613
-8.33872826746936
-8.62505697978732
-8.75362001314608
-8.94024303764029
-9.44626434468262
-10.1335110108262
-10.6266512532732
-10.9097430008232
-11.5462206228839
-13.1617398590197
-15.7952179089441
-18.9184771663206
-22.0685383984909
-25.2493297156265
-28.5858294673631
-31.7283314533674
-33.8637939861573
-34.4089286022955
-33.5565420374658
-32.0089945231183
-30.2522324113067
-28.2760224111814
-26.0291809120142
-23.9383491325038
-22.7638994901682
-22.9559695946074
-24.3211065321636
-26.385787842949
-28.9413132653427
-32.0654795733857
-35.6496826292175
-39.1128083543431
-41.7079851256304
-43.0378063714609
-43.1554268899994
-42.2204355113062
-40.2582519015252
-37.3611619322163
-33.9996808356008
-30.9315948247661
-28.7468303343862
-27.5907805955892
-27.362633624025
-28.0382347036959
-29.629391618539
-31.85752042041
-34.0853603677183
-35.7328947072866
-36.7148699548434
-37.3437911548262
-37.8209028758721
-37.9868200655456
-37.653556291039
-37.0341477250716
-36.622761662313
-36.6173406951325
-36.6407205693499
-36.1788372711338
-35.2181204218289
-34.2703592082074
-33.7491585182939
-33.5081288377928
-33.1399577957808
-32.6252246071792
-32.4441160354923
-32.9702321093281
-33.9320562589839
-34.6666691727031
-34.8628394443012
-34.846463640155
-35.0571047757661
-35.4185082572846
-35.4266691764338
-34.8125284836062
-33.873702892971
-33.0263263064266
-32.1874630330862
-30.8359797936493
-28.6922472207707
-26.121050907997
-23.7238650237542
-21.6651912219269
-19.6237463741648
-17.4046218129991
-15.3458707609722
-13.9301843968081
-13.1077800906048
-12.2675053001212
-10.9516449444136
-9.40617614015778
-8.24910872387323
-7.69551397471838
-7.36205120682025
-6.89332573287028
-6.54077119209515
-6.87771335590419
-7.99939550034472
-9.27845965635442
-10.0390365613201
-10.298839265595
-10.6279962436795
-11.3343838039546
-12.0665937344826
-12.3476297565993
-12.2866860476079
-12.4673058739846
-13.1266909426713
-13.727535667665
-13.5359695877957
-12.4846793420643
-11.203997944318
-10.1960400051894
-9.26008813427731
-7.92790181689711
-6.29163822275905
-5.05500977688444
-4.67538830067632
-4.71602586960071
-4.29860583512468
-3.10842001230986
-1.66694839156873
-0.550531340073967
0.372917678125518
1.66031324485717
3.36561072963781
4.76653430443463
5.17879124295731
4.80733178152432
4.48924928255502
4.63978924017119
4.78297603787345
4.27692217910642
3.2429271891136
2.43252391820368
2.21282840064713
2.0769506632855
1.40520045363272
0.489756286310197
0.407063672717911
1.81664981746027
4.21624917963003
6.61625949680997
8.71825971780251
11.0058406767637
13.637067469436
15.7093085088419
16.0452794349941
14.6055315010516
12.6889762171736
11.5846996445905
11.3659237890654
11.3561130171752
11.5831202647682
13.1830563493833
17.0824313987829
22.6319038128616
28.0557702474036
32.2649290505762
35.7608267503991
39.4835153625412
43.1271676882881
45.1623809980826
44.5753990776984
42.0575067041271
39.0701944321781
35.999640883301
31.8260962125518
25.7403431645722
18.5534383941809
12.0007625888838
6.82356964828001
2.13418381529721
-3.13544758960369
-8.67077462107485
-13.1886149025968
-16.2203810092744
-18.7745849221745
-21.9014604812976
-25.082813235958
-26.7033229114768
-26.085305060224
-24.4033035552099
-23.2434803036949
-22.7672348803534
-22.0216419730381
-20.9833823654386
-21.3831541304273
-24.8402917169594
-30.5582029020579
-35.7428192398381
-38.4868304403653
-39.4888906541932
-40.3162299865356
-40.5113836380348
-37.6329008078218
-30.5992401338395
-22.0854487642711
-16.4365787602492
-15.1468225827272
-15.3612363159761
-13.4088739898487
-9.135205261632
-5.72324920389056
-5.37745086794725
-6.56786283771331
-6.61483596645584
-6.55247824196691
-12.1526286668212
-29.6320441317379
-60.9270857356627
-103.420638362736
-153.013036096089
-205.63066924329
-255.59478628344
-294.697202047238
-315.287769373785
-314.519528534094
-293.985707380596
-254.491353676546
-192.919643844209
-106.527612989894
0.0126207371127061
115.084298215273
230.339959775724
349.486182141798
483.161178042917
632.722744455828
780.763610696781
901.306124697307
980.712212248207
1026.22150199734
1051.12818006237
1052.26963579291
1006.19714447103
891.053423608814
712.249104513278
504.336552762537
306.332337003162
135.735896425667
-13.4200348116827
-150.242700448897
-269.337686484581
-354.890974273919
-399.274789090283
-413.34631581954
-417.101280409807
-422.419099510636
-427.07808086931
-424.309337017203
-414.416865298386
-404.995667017601
-401.685636578494
-402.210129402782
-400.546900665995
-394.72981673887
-388.121224556719
-383.410215665383
-377.982644826292
-366.862879982967
-349.201049440374
-329.812647875893
-313.871027008784
-301.502453448521
-288.745172049573
-273.07091882348
-256.301096834689
-241.714646659981
-229.695615930797
-217.629182137649
-203.753727480123
-189.572304902566
-177.699125687362
-168.209501115482
-158.39219470349
-146.141347796623
-132.477216178588
-120.019272672883
-109.606658051235
-99.4990534468623
-87.9678303502488
-75.6292992395877
-64.4315006429302
-54.797734438446
-44.8410041964792
-32.7134563702896
-18.9936154257209
-6.05411772808962
4.62227864984727
13.6346661824489
22.005884363346
29.1781671840836
33.5215941164817
34.7037964068886
34.6867647267245
35.9085190358025
38.9262428363819
42.4745144277595
45.6791940578297
49.3830822993287
54.8520558243919
61.711496085682
68.0065880476218
72.4232245210323
75.7879850842982
79.8731991654056
85.0525772113256
89.8290199204759
92.7730776577669
94.2782721796303
95.8664150460503
98.0603276702029
99.7098902567932
99.6775280620348
98.6309407188478
98.5322530613417
100.428857626937
103.35199981555
105.659266456162
107.006190514075
108.430061264103
110.605435344591
112.719587311413
113.5002127288
113.006708478945
112.765741566289
114.009391563323
116.239481367642
117.872786819706
118.018899580967
117.09341202638
115.662244862501
113.29117581659
109.072198513769
103.141282347187
97.1043286257966
92.7049583106134
90.3653023203759
89.3459641241244
89.1091018616804
89.9587806147247
92.1561062202519
94.8716313761876
96.5853552196303
96.5521072385826
95.4381877301714
94.2742410024496
93.0816640572612
90.9465432513057
87.3736432878032
83.0562769683409
79.0188924104318
75.316657793856
71.1024990679535
66.0322279357189
61.1281347397485
57.8626829527089
56.5473863946534
56.0483176177954
55.1459876188949
53.7528587724941
52.4651878066691
51.1858616324531
48.7982148685907
44.4447907715637
38.7686791065018
33.4361745432938
29.4516194734245
26.3224234868943
23.0138092080641
19.3397109177743
15.9764267572695
13.2093194694586
10.2338192338764
6.06115913252111
0.884020165417752
-3.91850081116542
-7.20961838124407
-9.17936096457427
-10.7921917124157
-12.4514830470809
-13.6827027838728
-14.164723627085
-14.5662177664758
-15.9045497391966
-18.1862132313641
-20.1511822515743
-20.564949779244
-19.4877649450444
-17.977856844842
-16.7279585489582
-15.485128334241
-13.975545042322
-12.9670492387426
-13.8613129081816
-17.1675443341921
-21.776193706751
-26.0155584636492
-29.2240370356781
-31.9425804843727
-34.6422337964967
-36.7712870239206
-37.3983745644163
-36.5496109453983
-35.3863681635451
-34.8987433644859
-34.7676329736433
-33.8609509855861
-31.7266439972801
-29.1885534372802
-27.3610299606869
-26.4438237051336
-25.852280415957
-25.3848248685382
-25.7371755348543
-27.5876374036913
-30.4486964373711
-32.8581988036169
-33.7589382143075
-33.3782103380269
-32.5948526729242
-31.7487236247993
-30.4918597011881
-28.78329548193
-27.5338698942749
-27.8645399284767
-29.8362419925212
-32.2939678348473
-34.0734641529884
-35.0809253931235
-35.9645494870699
-36.9539039128638
-37.4779355391913
-37.0407699834941
-36.0905044206909
-35.6106403200894
-35.8972250261554
-36.1218558450139
-35.2867691215242
-33.3710099732197
-31.2459289992298
-29.5770911092927
-28.2247963018545
-26.8915536264866
-26.0089453929749
-26.505866390392
-28.6430852154631
-31.4464473665371
-33.5693345037546
-34.5621832557199
-34.9938434895753
-35.384592194123
-35.4575627114177
-34.7203698019355
-33.5154224752813
-32.9646565290227
-33.6910869771954
-34.9089248273736
-35.1190640738509
-33.6244456033698
-31.0302966061508
-28.2167431277462
-25.2407039654952
-21.6456142179813
-17.7056694285834
-14.8055942339345
-14.2477874964131
-15.876002436662
-18.2362809333875
-20.0885628102823
-21.4064034386983
-22.7310725837371
-23.9024633879554
-23.9416927063559
-22.2546116737432
-19.5195871076859
-17.0134070032056
-15.1872778307357
-13.3011011821345
-10.5517462176889
-7.21442667954756
-4.36654093741614
-2.65925548912292
-1.80025112799918
-1.35809573491638
-1.67151047362527
-3.52406293498005
-6.96911727964632
-10.9026376849845
-14.0257766682911
-15.9998910809339
-17.3586705886556
-18.4233506209012
-18.7813834702196
-18.0452668454755
-16.7600004732063
-16.0318191880084
-16.1805660820993
-16.1549347247756
-14.5824131221984
-11.2189683039957
-7.01502949111469
-2.81164635738366
1.52816239616751
6.36795170137292
10.9871530731895
13.6399708452326
13.1688016921991
10.2501690099741
6.69412746824792
3.63994474036478
0.855035694976477
-2.14097032700527
-4.79459294327378
-5.89520580078678
-5.14405831721312
-3.77568033683853
-3.27688921830838
-3.75356656093311
-4.00316369830733
-3.16198241766125
-1.77927517781574
-0.977489397352013
-0.907243627527521
-0.609169744155729
0.539749082969639
1.79441817491529
1.91205334891141
0.866931991125515
0.163188343170948
1.28122122485152
4.20835789895472
7.85687059725102
11.666868568523
16.1711897119072
21.7847728565863
27.5590999011038
31.7544759931585
33.6426297646526
34.2304576439899
34.9443954174997
35.9732558813206
36.3801385607399
35.6898266304163
34.6670902064253
34.13711943789
33.4599657224164
30.890721999745
25.5893151758146
18.7439871251507
12.2989843952505
6.88204322010493
1.59444597105591
-4.14584609697804
-9.29261634950404
-12.303177364596
-13.3018426306198
-14.3145238608801
-17.0323964972987
-20.8573613513832
-23.7504273554307
-24.8133576342452
-25.2585893441194
-26.5274380608653
-28.105596704545
-28.0411897307322
-25.6012515421898
-22.5793148309174
-21.419598024063
-22.4701003406695
-23.8615623596107
-24.1076458640737
-23.9812491547496
-25.2291891531381
-27.9108768847879
-29.9442002641599
-29.4015747886854
-26.3558321837739
-21.7953001706323
-15.411323751396
-5.9393538745261
5.74916983070914
14.9954562444131
16.3630996257601
8.71501759637367
-3.59818059807298
-15.466636792885
-26.7816584977145
-42.9101929860865
-69.5328189873099
-107.606880174677
-153.184186029502
-200.550118718734
-244.025502189071
-277.414736100148
-294.631627326426
-293.376255814909
-277.796859572009
-254.818349349384
-225.82047643094
-182.501625707661
-112.85790229431
-11.9657562925329
114.015905245846
254.792171541211
404.898532497144
563.172565865669
723.309739705362
868.413647880181
978.893078587286
1046.49824117149
1077.77867193734
1081.00843861876
1050.56463458313
968.050631212484
821.974476277585
626.238785282035
416.971312729441
229.295540736587
76.4685962304108
-49.4650408098709
-159.51073745207
-253.138601107837
-321.532858939156
-361.800822141862
-384.215588997225
-404.45224595809
-430.233102212463
-456.751562386521
-474.056021303333
-476.907378683361
-467.408678709054
-450.635455738542
-430.419233799341
-409.39891853834
-390.625869956383
-376.771184681438
-367.734977927981
-360.564845951568
-352.575929248074
-343.908618108654
-336.197690649345
-329.150316858425
-319.720915673468
-305.240278474624
-286.628867865529
-267.57500699355
-250.634858397608
-235.035128357973
-218.665710967454
-201.422279230245
-185.557326629944
-172.756893596698
-161.867059229536
-150.194189885923
-136.629198073611
-122.638375036857
-110.096602795659
-98.9776075549024
-87.835722361481
-76.1725281904426
-65.364312992373
-56.8960676398568
-50.2832488598599
-43.4376661769781
-34.986324506564
-25.5611705954087
-16.5525633880894
-8.16241121273751
0.637790341838622
10.3253663823645
19.7578281641677
27.3398725359466
32.9197898091154
37.9346222612238
43.6412349895449
49.7436496879175
55.1089125123032
59.4731172615684
63.8166089396792
68.9776708611195
74.460992562769
79.0920123721473
82.6486872658529
86.2792764743797
91.130572854174
96.9657050466185
102.513200161176
106.973144050851
110.641537988484
113.915319258413
116.187309967638
116.285447837214
113.980869434344
110.577968072689
107.751431932211
106.071332484036
105.021236136224
104.303585845267
104.54874051808
106.431653243314
109.429673609177
112.008265373474
113.139681356538
113.257438216743
113.446408497244
113.953131680239
113.94758805634
112.768890025666
110.919747767251
109.453238869938
108.59111867624
107.472533541574
105.427960077034
103.109596762867
101.948253189534
102.583058970628
104.24612516198
105.814796537846
107.062497962793
108.442111014408
109.770500890696
109.71950494442
106.984788040088
101.750385480678
95.5878469064754
89.8911134818549
84.7925692406225
79.8189065187492
75.2437064211202
72.2111056465968
71.3914302211163
71.9423266404712
72.2184082143284
71.4207217015313
70.1546100411539
69.2670574476683
68.5230006478201
66.8139239906377
63.5460639453569
59.3380719998805
55.1270925790985
50.9063469563584
45.7855173485036
39.2973639282932
32.2333970013357
25.9241590377866
20.9061793775578
16.6572691877485
12.6147529737046
9.01986191471303
6.46320457245758
4.83005656966719
3.17500344247924
0.787126038991119
-1.93029604371614
-3.93419082873638
-4.76411540108862
-4.94434772623606
-5.12618743662497
-5.21865482489039
-4.72785841470781
-3.82664207494642
-3.61305050213889
-5.05437796782439
-7.89106334204322
-10.9051526536438
-13.2276933061793
-15.0399044016022
-16.8601832700289
-18.491364646251
-19.127110152094
-18.51756072308
-17.6076940969041
-17.6900404468958
-19.0541612630301
-20.807265281499
-22.054074710568
-22.9019437581453
-24.0512660539072
-25.6295398705899
-26.9084908674029
-27.3198175918365
-27.401823849312
-28.3512934319158
-30.6780639125908
-33.6512985798139
-36.2088795885153
-38.1211867485439
-39.9346916131388
-41.8910571825727
-43.3788281779537
-43.7153180824507
-43.2092046410742
-43.0121077658907
-43.8469104319623
-45.2074619200238
-46.0390704432513
-45.9886019338287
-45.5994927617232
-45.2681216739652
-44.452795491155
-42.2912943287647
-38.8663846919853
-35.4160650674085
-33.1087637225783
-31.8808985854569
-30.7868675760058
-29.3744684180828
-28.2972229543244
-28.408863706344
-29.5880228021244
-30.878201685785
-31.765993243831
-32.8927108234488
-35.2198925473289
-38.6933504567382
-42.1133652342899
-44.3611325140386
-45.4100560775553
-45.9067841312839
-46.0216644624493
-45.1857303480406
-43.0627853503103
-40.384306625653
-38.4200161910254
-37.6749154276019
-37.4590373601092
-36.8525018221789
-35.7809866272747
-34.8318863311085
-34.1767338498139
-33.1775805175101
-31.3016096823063
-29.1252882970883
-27.9804243212239
-28.5467668727005
-30.1238568922656
-31.4904885365743
-32.227975063757
-32.8175588022975
-33.4830385212155
-33.4427043723763
-31.6967012542623
-28.3919360163208
-24.9405368207481
-22.613484874666
-21.2996763588059
-19.9303325728953
-17.9477050171999
-15.9053303531316
-14.4973740268331
-13.4139803296813
-11.6365421112009
-8.84473057630549
-6.08374630521688
-4.75929445623321
-5.18629313088655
-6.47898968533165
-7.81188604627663
-9.33477074795829
-11.5788902988306
-14.2650675494961
-16.2316671246257
-16.6686684306426
-16.040806169899
-15.4444644142102
-15.2079307191276
-14.5558832024179
-12.7499175151863
-10.1577816146961
-7.81851491650301
-6.11603256531017
-4.4015722963004
-2.13347383216334
-0.00604018574506071
0.54585019843503
-1.03663859666892
-3.73751109425936
-6.09581710892119
-7.71539018959874
-9.22902201010158
-10.8627376938384
-11.6370937368851
-10.4115152630943
-7.47592725625661
-4.54323343530742
-2.99883868490718
-2.54092476232117
-1.88350395200175
-0.544348193981778
0.639732606920484
0.905447575620641
0.927372923042887
2.21223808012631
5.19814901383488
8.53460855519894
10.5743300856858
11.2471141674108
11.9575783617853
13.6905682877274
15.8208422491547
17.1669335992845
17.8407974466332
19.3592785294112
22.7633310476036
27.1606202775979
30.631490396211
32.3918925263413
33.4672989049612
35.0659039758821
36.8262686528651
37.233656922575
35.598939172791
32.9145875888204
30.4116070635114
27.7473243561496
23.3109721795826
16.3493712317803
8.1588721016758
0.759847762905238
-5.22922985300757
-10.7479408154649
-16.3544067552881
-20.9161157604647
-22.8599532991792
-22.4282328765476
-21.85707309669
-22.9929171234123
-25.2774674879372
-26.6975262775551
-26.4889509959941
-26.0485409324606
-26.8253994751849
-28.0181432505645
-27.3261892002099
-24.0419088467702
-20.5068243747467
-19.7991719714912
-22.3166562246771
-25.4975399938923
-27.0618539423046
-27.6597589606772
-29.5027160258626
-32.7025087254464
-34.1258000254745
-30.5477894279691
-22.4742714711324
-14.034567387799
-9.07666951424051
-8.07102878648688
-9.10427920006515
-11.0179755606806
-14.3919778588587
-19.4348268662008
-24.2661229250896
-26.6266642970858
-27.3400036006796
-31.1612213580727
-43.6000725365126
-67.0728096288388
-100.182704209836
-139.755159554967
-182.244803742926
-223.167513730238
-256.926659449131
-278.988862890711
-288.081455207184
-284.477101261628
-265.14160996992
-222.033704154551
-147.800844884388
-44.1023796302652
77.3609711917559
204.207433450995
333.760658588774
472.107170170796
621.47217640591
769.810622129391
895.593345805834
983.92460910813
1036.15879036103
1061.34455334049
1058.58785011356
1011.21880178669
901.757848841997
733.307802781245
534.406178174048
340.951199966774
172.7170860525
27.0311114257241
-106.632272859198
-228.805454600784
-327.612638561234
-391.815574804239
-423.034958603961
-434.140659218594
-437.565614496142
-437.345949853061
-431.954202514231
-421.660605325693
-410.483250106369
-401.509802790509
-393.179503244942
