Value(bpm)
88.0229226361031
88.0055374268064
87.9883683181969
87.9716242163502
87.9555137182529
87.9402451370669
87.9260265372424
87.9130657794523
87.9015705753263
87.8917485519749
87.8838073263043
87.877954589139
87.8743981991802
87.873346286852
87.8750073681008
87.8795904682401
87.8873052559535
87.8983621875963
87.9129726619631
87.9313491857205
87.9537055497361
87.9802570165699
88.0112205194335
88.0466615052266
88.0847933026023
88.1225931589199
88.1570060015905
88.1849677425177
88.2034086872035
88.2092590825463
88.1994567999012
88.1709571306684
88.1207446462805
88.0458470432815
87.9439650461513
87.8181984246421
87.6743909212367
87.518361856008
87.3558636674866
87.1925700202058
87.0340714537023
86.8858783053287
86.7534306370555
86.642114932398
86.5572874012589
86.5038011959991
86.4804794625663
86.4821879360931
86.5037692927907
86.5400886763656
86.5860131093095
86.6363970116241
86.6860738083106
86.729853664091
86.762527410556
86.7788767268411
86.7740618821954
86.7489638003713
86.7089407143641
86.6594695146981
86.6060114647335
86.5540037729778
86.5088580324174
86.4759654493734
86.4607087941274
86.4684810506801
86.5047108231941
86.5747372586323
86.6803759545662
86.8199031560101
86.9914941909598
87.1933660290626
87.4237636506086
87.6809472666586
87.9631802964475
88.2687180305459
88.5957969288125
88.9426245213377
89.3072985482656
89.6871708015385
90.0791164502511
90.4798995808623
90.8861684584482
91.2944487847326
91.7011394207391
92.1025108234504
92.4947064598529
92.8737474664138
93.2355674373128
93.5770035075259
93.8961273309144
94.1910830806622
94.4600132780249
94.7010678039658
94.9124135847155
95.0922448964658
95.2387942195718
95.3503435575321
95.4252596113629
95.4632925519105
95.466252875506
95.4361951413353
95.3752401343975
95.2855607830173
95.1693687859328
95.0289020678747
94.8664131593045
94.6841585734814
94.4843862512256
94.2685879997391
94.0365421007379
93.7878119441523
93.5219913214445
93.2387060302683
92.9376154153532
92.6184138321969
92.2808320202936
91.924638372914
91.5496400908888
91.1556681331644
90.7424229065358
90.3095495974247
89.8567460050474
89.383765577417
88.8904187150755
88.3765738454996
87.8421582502327
87.2871586289661
86.711621387227
86.1156526370056
85.4995719590703
84.8672395645794
84.2257892169843
83.5821171194339
82.942723650835
82.3137222066033
81.7008572805913
81.1095303393426
80.544832214591
80.0115809446497
79.5143642186093
79.0575858111663
78.645481570329
78.2798427764118
77.9586687341388
77.6797933368101
77.4412301009399
77.2411531139359
77.0778800912484
76.9498572493216
76.8556457443779
76.7939094634855
76.7634039848353
76.7629665497573
76.7915069105926
76.8478240699124
76.9295274969731
77.033719427848
77.1575104910183
77.2980057056253
77.4522904851917
77.6174187653354
77.7904032694697
77.9682079613594
78.1477427618059
78.3258606284208
78.499357111925
78.6650986397502
78.8218457185795
78.9698718521764
79.1095027115052
79.2410751755235
79.3649366115672
79.4814441683891
79.5909640854986
79.6938710222383
79.7905474098091
79.8813828292374
79.9667734180484
80.0471613418589
80.123609809127
80.1976741088353
80.2709347219723
80.3449839234296
80.4214258070933
80.5018769491372
80.5879677225608
80.6813442777376
80.7836712066028
80.8966349121736
81.0219477104287
81.1610781706683
81.3131286937152
81.4759598056945
81.6473956739439
81.8252288098809
82.0072157678718
82.1910740152273
82.3744800245364
82.5550686458698
82.7304338198805
82.8981306932408
83.0556868394438
83.2025179492539
83.3424882405785
83.4801485395436
83.6201118622111
83.7670536846141
83.9257174076818
84.1009252154791
84.2975945655231
84.5207606178604
84.7756050079274
85.0674915009092
85.400207289098
85.7681065345187
86.1622068979305
86.5732319866487
86.9915621442536
87.4072029943501
87.8097757550411
88.1885315950731
88.5323923178587
88.8300194145035
89.0699182423384
89.2443909072516
89.3565031348633
89.411447455949
89.4146779312726
89.3718432794014
89.2887251779676
89.1711828134888
89.0251044575888
88.8563665725598
88.6708007069318
88.4741170405854
88.2673248265768
88.0432367965463
87.7939883086671
87.5119327372499
87.1896912329622
86.8202137624573
86.3968496576501
85.9134254957295
85.3643277130195
84.7445869654728
84.0499609255605
83.2792493977013
82.4460516202714
81.5689177529931
80.6652598824187
79.7512245966588
78.8416547147277
77.9501130465328
77.0889558778661
76.2694450870478
75.5018895511594
74.795808534028
74.1601118882287
73.6032940474388
73.1321925882137
72.7424636846908
72.4251296627051
72.1718908023304
71.9750068032689
71.8271710761047
71.7214057630658
71.6509743149413
71.6093093228863
71.5899539836775
71.5865161071781
71.5926339838143
71.6019537359303
71.6081179907196
71.605133273046
71.5909752126158
71.566047788168
71.5307982736333
71.4856814276569
71.4311582339429
71.3676946871216
71.2957606285524
71.2158286358745
71.1283729695259
71.0338685788785
70.9327901700894
70.8256113372417
70.7128037578604
70.5951330418706
70.4749258854942
70.3549953421023
70.238116921287
70.127029725758
70.0244400560729
69.9330270868444
69.8554505629838
69.7943604863906
69.7524087915554
69.7322630428514
69.7366222271625
69.7682347635573
69.8299137813464
69.9225027908608
70.0417078373874
70.1824267450748
70.3395191340593
70.5077779204443
70.6819082209251
70.8565138967222
71.0260920824391
71.1850361089909
71.3276472415202
71.448155608219
71.540750589424
71.5996207647703
71.6199405092387
71.6051417414762
71.5629543520915
71.5011827948776
71.4276203980839
71.3500153725594
71.2760537981464
71.2133593305538
71.1695092931114
71.1520668897171
71.1686294922946
71.2268933169352
71.3347353131585
71.5002251586415
71.7255831718966
72.0030434416816
72.323863305342
72.6791397585571
73.059706863482
73.4560538338523
73.8582653321022
74.2559863206443
74.6384143931667
74.9943228204676
75.3121175126281
75.5799306529852
75.7865463240077
75.9316014645095
76.0228520418405
76.0685603240291
76.0772157363283
76.0574424974391
76.0179254431089
75.9673551388269
75.9143927735161
75.8676548962204
75.8357178167032
75.8271414391388
75.8505124325428
75.9124349686081
76.0105341953838
76.1400036230712
76.2960551001074
76.473881535553
76.6686255062094
76.8753537746928
77.0890378283831
77.3045406722142
77.5166102003459
77.7198795304429
77.9088747060395
78.0782773038764
78.225700159342
78.3507514365933
78.4531107828136
78.5324954881418
78.5886618672959
78.6214064843445
78.6305672100537
78.6160241024779
78.5777001028219
78.5155615400843
78.4296184395541
78.3200114577192
78.1901668459777
78.0476313912296
77.9001306802541
77.75528030917
77.6205840955583
77.5034469114002
77.4112016306111
77.3511498477089
77.330616295939
77.3570172729335
77.4379438754709
77.5812613659896
77.7915741726497
78.0605104771911
78.3766659781733
78.7284434004125
79.1039230938729
79.4907667708615
79.8761567923983
80.2467744836323
80.588821573215
80.8880889205595
81.1300761117404
81.3002071445346
81.3912893950377
81.4119203599395
81.3730755651064
81.2859840617088
81.1619806314754
81.0123881758732
80.8484316349404
80.681183600018
80.5215409700956
80.3802315574867
80.2678494595584
80.1948699219668
80.1659438200428
80.1744890597965
80.2127307648563
80.2729434212822
80.3474009175727
80.4283414988558
80.5079475895364
80.578340663022
80.6315914407606
80.65974568266
80.6548656830793
80.6091752569413
80.51993360786
80.3919092205802
80.2305400363845
80.0412731424749
79.8295243589188
79.6006453053665
79.359897950076
79.112436481144
78.8632962208118
78.6173892268178
78.3795061870781
78.1543239562238
77.9451710938642
77.7511971787519
77.5707334188721
77.4021541427438
77.2438714650218
77.0943307023312
76.9520064919766
76.8153995737889
76.683034201636
76.5534561561479
76.4252313341259
76.2969448929857
76.1673097160195
76.0379576825786
75.9136362692981
75.799188939576
75.6994060218962
75.6190405022408
75.562829724003
75.5355229874598
75.5419151715117
75.5868866635185
75.6754500823768
75.8128045218024
76.0043983347339
76.2542924542377
76.5558103244839
76.8978399761966
77.268987353427
77.6574769825604
78.0510746501371
78.4370459051126
78.8021542551219
79.1327032894966
79.4146267481894
79.6336296590712
79.7753819990657
79.8278959315533
79.7948000910955
79.686805319073
79.5149976309823
79.2906224355336
79.024924043738
78.7290167474217
78.4137882325486
78.0898347768777
77.7674267559746
77.4565024358443
77.166687831762
76.9072519169948
76.682353632083
76.4887646433677
76.3227870962702
76.1808462061008
76.0594663152361
75.9552506734053
75.8648646388824
75.7850220715442
75.7124747471144
75.6440046673085
75.5764191743089
75.5065488009415
75.4315083507685
75.3519668185348
75.2711278409918
75.1922242749028
75.1184621468081
75.0530237380907
74.9990733609524
74.95976578788
74.9382573225069
74.937719534382
74.9613557242552
75.0124202406365
75.0942408336334
75.2095560575029
75.3567756235408
75.5325964702698
75.7337153108848
75.9568083126863
76.1985092136575
76.4553901999727
76.7239455883902
77.000578425837
77.2815901775732
77.5631737244804
77.8414099280226
78.1123253323648
78.3729912365246
78.6214780205578
78.8558618514417
79.0741915062778
79.2744952940313
79.4547890040257
79.6130848744195
79.7474015566054
79.8557750321951
79.9362704182646
79.986994574206
80.0062625340124
79.9955115591411
79.9590590070478
79.9013669842425
79.8269111416982
79.7401595448164
79.6455565631719
79.5475117831697
79.4503938832572
79.3585293715274
79.2762060688697
79.2076812263732
79.1570819852242
79.1243331538303
79.1040169942915
79.0903929529746
79.0777345318614
79.0603237367422
79.0324538080094
78.9884401900784
78.9226396540471
78.8294773976256
78.7034818085667
78.5393263965244
78.3318880183893
78.0802126957542
77.7933608563569
77.4817728187584
77.1556348540176
76.8248311357846
76.4989224871824
76.1871499202728
75.8984608996005
75.6415564444092
75.4249575769044
75.2570901969017
75.146388199655
75.1012740533027
75.124028839952
75.2083793442686
75.3476612639651
75.5353698732104
75.7650681270016
76.0303065469224
76.3245539893019
76.6411389450905
76.9732014900696
77.3136564029602
77.6551682980408
77.9901400975863
78.3118349181284
78.6170532582419
78.9033043393359
79.1680594669736
79.4087639128193
79.6228505104798
79.8077549335557
79.9609325864589
80.0798769969476
80.1621395547182
80.2053503939003
80.2072411603625
80.1672329887951
80.0896108944462
79.9796307129333
79.8425795370105
79.683737122551
79.5083442850375
79.3215783640137
79.1285356790707
78.9342207868804
78.7435422739368
78.5613147820532
78.3922669605388
78.2404413036608
78.1058993180289
77.9871685156194
77.8828091805591
77.7914127820788
77.7115970798141
77.6420017942822
77.5812848097277
77.5281188827773
77.4811888356738
77.4391892173723
77.4008224195208
77.3648292711646
77.3309631690224
77.3001636647287
77.2734358273654
77.2517830296795
77.2362081407574
77.2277149787778
77.2273100256773
77.2360044073008
77.2548161446388
77.2847726841014
77.3269137174613
77.3822943028038
77.451903998428
77.5364464479532
77.6365775112626
77.7529774395747
77.8863535625083
78.0374431821718
78.2070166965256
78.3958809771629
78.604883029941
78.8349139706365
79.0869133520735
79.3618738840678
79.6597273781439
79.9749877551768
80.3003582395244
80.6283079446074
80.9510578419984
81.2605808868465
81.5486178715562
81.806710201798
82.0262505982059
82.1985523780604
82.3149374534907
82.3669121971429
82.3525287517425
82.281385935245
82.1644371293858
82.0126931507073
81.8371156441068
81.6485400511924
81.4576280160076
81.2748484007153
81.1104857235532
80.9746747824585
80.8774604661385
80.8286590959425
80.8298262734944
80.8719989638647
80.9456230757394
81.0411650019096
81.1490483216439
81.2596129374876
81.3630968808843
81.4496413169596
81.5093193469328
81.5321890368964
81.5083706853801
81.4289750253487
81.2965811504658
81.1219836349035
80.9161301321368
80.6898453066569
80.453763635685
80.2182913166564
79.9935959967592
79.7896227887977
79.6161350827455
79.4827789745281
79.3991706880103
79.3745859978275
79.4101055305386
79.4993162538504
79.635692085683
79.8127991660005
80.0242230596829
80.2635064923966
80.5240971991908
80.7993058589781
81.082274414868
81.3659553423771
81.6431026213694
81.9066572425581
82.1524085191953
82.3775029237604
82.5790672703795
82.7542149555603
82.90006257996
83.0137485496398
83.0924535361707
83.1334226206269
83.1339888891685
83.0915981893068
83.0038507583933
82.8712154280249
82.7000061522778
82.497280057785
82.2700460457219
82.0252187225274
81.769584454888
81.5097792147145
81.2522776884441
81.0033930175707
80.7692865068741
80.5559866752713
80.3693830724706
80.2122260402368
80.0818198182627
79.9749945443036
79.8886575093694
79.8197762443399
79.7653641862495
79.7224687655317
79.688161798171
79.6595321009566
79.6336802746669
79.6077156195575
79.5787646469185
79.5455639917302
79.5102430799229
79.475355506227
79.4434460363111
79.4170517074283
79.3987045499349
79.3909359217543
79.3962824573226
79.4172936463504
79.4565410759453
79.5166293924707
79.6002051000649
79.7083790536377
79.8382736450847
79.9863801249827
80.1491639917042
80.3230500080285
80.5044102671605
80.6895553879748
80.8747289593521
81.0561053820931
81.2297912732054
81.3918306002245
81.5382484843798
81.6666103578575
81.7766736816266
81.8683815632965
81.9417023954722
81.9966298613487
82.0331828537533
82.0514053084813
82.0513659533074
82.033157974582
81.9968986038215
81.9427286271798
81.8709012115191
81.7827682148145
81.680403680776
81.5658907496067
81.4413022066838
81.3086949790207
81.1701057045451
81.0275473586186
80.8830069141175
80.7384440055911
80.595790564406
80.4569513902696
80.3236756669148
80.1964376025698
80.0750067920959
79.9591499746948
79.848638524909
79.7432481490572
79.6427585985995
79.5469533995667
79.4556195972583
79.3685475154828
79.2855305296731
79.2063648532671
79.1310088644671
79.0618649933525
79.0032298488866
78.9594318105398
78.9347938050172
78.9336520072963
78.9603793475075
79.0194139987694
79.1152931434771
79.2526924655782
79.4364719990614
79.6717291854664
79.9633820907287
80.3082926419004
80.6961959223953
81.1163258435333
81.5575301292338
82.0081894236575
82.456166589221
82.8887897575292
83.2928731853361
83.6547800197025
83.9605305942129
84.1959730427351
84.3527218625216
84.437236892005
84.4586930792073
84.4265975414747
84.3506582810118
84.2406727354488
84.1064380637798
83.9576841105575
83.8040292332611
83.6549586393551
83.5198245644334
83.4073133246409
83.319366726482
83.2535269231474
83.2073094145399
83.1782705457045
83.1639967459096
83.1620952808888
83.1701864512489
83.1858971910576
83.2068560378992
83.2306894594671
83.2550195284418
83.2774602239014
83.2956129955875
83.307074789875
83.3094425058157
83.300317544019
83.2773117306949
83.2380545937096
83.1802019516869
83.1014457584051
82.9995251233009
82.8722384052283
82.7177430140066
82.5399723534687
82.348064471512
82.1512083604096
81.9584259004029
81.778571811254
81.6203529403798
81.4923660401822
81.403153449665
81.3612765149965
81.3754071577215
81.4544387367879
81.6058899232838
81.8226245357907
82.0898441250016
82.3925099791416
82.7152438776116
83.0422193855653
83.3571107230929
83.6431037904898
83.8829743172233
84.0592374091091
84.1543708576168
84.1512828857622
84.0430365180894
83.8378208893808
83.5455588054565
83.1765046942065
82.7410547096594
82.249579833873
81.7122845985344
81.13909250956
80.5395579710858
79.9228035039278
79.29748034118
78.6717477721355
78.0523796492606
77.4435042659664
76.8486501464407
76.2711252528782
75.7140356500956
75.1803061142609
74.6727023217079
74.1938543383754
73.7462812136478
73.3324165637598
72.9546351096147
72.6152802125712
72.3166925307463
72.06070816337
71.8461471222636
71.6708734645417
71.532913056725
71.4304353560128
71.3617357343595
71.3252196003652
71.3193880597064
71.3428248942467
71.3941846730267
71.4721818362243
71.5755806168807
71.7031856854893
71.8538210726696
72.0260487381085
72.218153141995
72.4283999443629
72.6550384690965
72.8962926413312
73.1503526875867
73.4153676105561
73.6894384674832
73.9706124968357
74.2568781524649
74.5461611174811
74.8363213814589
75.1251507740224
75.4103655246555
75.689609820688
75.9604626170572
76.2204416289325
76.4670089432473
76.6975783996354
76.909524809018
77.1001950555089
77.2669210989963
77.4070348617147
77.5178849425887
77.5968818665951
77.6433725433361
77.6598667007518
77.6492380166392
77.6144180712798
77.5583770299189
77.4841063818559
77.3946038758366
77.2928607403129
77.1818512324927
77.0645245226606
76.9437988903888
76.8225581870815
76.7035425142949
76.588693747021
76.479601432095
76.3778375345044
76.2849605444243
76.2025188743843
76.1320548708248
76.0751094394207
76.0332272909611
76.0079628230402
76.0008866624303
76.0135929038685
76.0477048070967
76.1043133713924
76.1832288694397
76.2841117821502
76.4066564739595
76.550589177449
76.7156661312171
76.9016718549796
77.108417547351
77.3357395930479
77.5834981673762
77.8515759268377
78.1398767755425
78.4475653233162
78.7697366375959
79.0999808234342
79.4316728871714
79.7579633160418
80.0717792459909
80.3658380540065
80.6326743371425
80.8646810994484
81.0541657142515
81.1934208546238
81.2748123517553
81.2944639306716
81.2596099294985
81.1797398003488
81.0644416208069
80.9233079833948
80.7658644248746
80.6015206532716
80.4395442381882
80.2890560645911
80.159046704995
80.0584129265685
79.9960114217887
79.9769652426424
79.995097595285
80.0421823667889
80.1100311150825
80.1904419761283
80.2751653365327
80.3558863085729
80.4242242689023
80.4717498009315
80.4900193096044
80.4706273514471
80.4052894291066
80.2911508992305
80.1387320531109
79.9605675791267
79.7690438874242
79.576339953912
79.3944063656364
79.2349809124312
79.1096390471417
79.0298779601506
79.007233851693
79.0534332264358
79.1805805656494
79.3964786646273
79.6916401551672
80.0526476617481
80.4659319090854
80.9175590900638
81.39306193208
81.8773171417517
82.3544741634806
82.8079418007717
83.2204400691005
83.5741244698869
83.8515753691099
84.0490893900917
84.1751045890599
84.2389425923653
84.250291163418
84.2190718290157
84.155328026297
84.0691358820647
83.9705387557986
83.8695059085614
83.775915125871
83.6995566020457
83.6466391694297
83.6127129603485
83.591365065905
83.5762117764938
83.5608842346106
83.5390238378751
83.5042873326303
83.4503615370131
83.3709875693922
83.2599943349044
83.1113408424337
82.9195618105398
82.6872575221164
82.4242797291078
82.1405927773016
81.8459414573527
81.5498158670785
81.2614392791837
80.9897774780499
80.7435680346386
80.5313681875892
80.3616203667356
80.2427349151272
80.1826685174125
80.1804683688014
80.2276998873471
80.3158480828265
80.4364668271716
80.5811008184922
80.7412253277095
80.9082035966477
81.0732622154791
81.2274851115619
81.3618269249116
81.4671465164615
81.5352709978972
81.565997999071
81.5629753416321
81.5299621391433
81.4707773373067
81.3892735655803
81.2893144254404
81.1747553777377
81.0494283094348
80.9171297917166
80.7816129878483
80.6465831304151
80.5150692479249
80.3864102385789
80.2586365235848
80.129801769365
79.997984662109
79.8612897746379
79.7178493274822
79.5658258091059
79.4034154161578
79.228852269072
79.0404133514299
78.836424113448
78.6158302833972
78.3836907249606
78.1486420364977
77.9191730536012
77.7035757202517
77.5099671977222
77.3463288079279
77.2205611048187
77.1405547830932
77.114277681567
77.149878825497
77.2558112986845
77.4408944207225
77.7070550079108
78.0432483183537
78.4370224928799
78.8756705295825
79.3460519014783
79.8344530415875
80.3264901462385
80.8070595455968
81.2603421143796
81.6698686897811
82.0186530334322
82.2902680856283
82.4816877948489
82.6008447752836
82.6564668341104
82.6576547112758
82.6137517017115
82.5342313491033
82.4286053950414
82.3063532144502
82.1768731923763
82.0494559243396
81.9332787616214
81.8360340887853
81.7572764234789
81.6936667646587
81.6419018983867
81.5987075429318
81.5608301544861
81.5250313775086
81.4880850937763
81.4467770385379
81.3979069577899
81.3382932778226
81.2647806285206
81.1761178003676
81.0772673204069
80.9744332349579
80.8737604882635
80.781333708513
80.7031852073031
80.6453119839804
80.6137016056424
80.614366968239
80.6533901342798
80.7369756908679
80.8714951959823
81.0587606774503
81.2896100899505
81.5532365709152
81.8386396937624
82.1345486472464
82.4293747978758
82.71119560626
82.9677722672628
83.1866034624139
83.3550171981377
83.4603018076783
83.4911183224129
83.449847052568
83.3473900173728
83.1949626159938
83.0038294361923
82.7851863697486
82.5500733830392
82.3093177471064
82.0735067302908
81.8529883012779
81.6578982592997
81.498212371055
81.3819198766816
81.3069583966516
81.26808124572
81.2601648202276
81.2781685663833
81.3170996878808
81.3719842933278
81.437844740787
81.5096830704721
81.582470517823
81.6511431690219
81.7106104151742
81.7583899309421
81.7986524654589
81.8366268822774
81.8775631653866
81.9267328828849
81.9894364281612
82.0710171355928
82.1768824261605
82.312532235644
82.4835951168625
82.6958725921874
82.9549089570021
83.2580302928763
83.5953409430126
83.9564732212047
84.3307368245268
84.7070673036358
85.0740018807063
85.419685231233
85.7319079906489
85.9981805295283
86.2058439058885
86.3425469990355
86.4064491822151
86.4082429934786
86.3596224203407
86.2724355779686
86.1585632732279
86.0298298239636
85.8979466194386
85.7744880713901
85.6708991460303
85.598533576538
85.5686829054161
85.5860863562243
85.6415855508376
85.7243018276973
85.8233403416735
85.9277343612438
86.0264172809024
86.108222838778
86.1619141805974
86.1762422534486
86.1400335359628
86.0423073396295
85.8774313186167
85.6567105647006
85.394885827172
85.1065027168434
84.8058002339192
84.5066490915535
84.222537208802
83.9665992492867
83.7516872181104
83.5904798229659
83.4956294949146
83.4792282098756
83.5411855816379
83.6711499002847
83.8586658532951
84.0933531457596
84.3647733269018
84.6623220396708
84.9751465656404
85.2920895517078
85.6016605647341
85.8920376073322
86.1512371842005
86.3721821635078
86.5543379459225
86.6977038926349
86.8023893783611
86.8686119833514
86.8966949559325
86.8870639847727
86.8402433280592
86.7568513537473
86.6375955508981
86.4832893540882
86.2963782324889
86.0818824373001
85.8450216841767
85.5909479754818
85.3247229628917
85.0513016380855
84.7755220999479
84.5021010845947
84.2356349127912
83.9806055050957
83.7413911352256
83.5217206957558
83.3216724363852
83.1399298396171
82.9752173572229
82.8262987165167
82.6919721410738
82.5710660249713
82.4624350246979
82.3649565382345
82.277527545478
82.1990617882599
82.1284886984222
82.0653212945072
82.0105208596925
81.9652718933739
81.9307596964546
81.9081733332184
81.8987089447752
81.9035734255218
81.9239884784178
81.9611950697726
82.0164583097414
82.0910727909271
82.1862670302559
82.3005888957424
82.4296355044522
82.5688178535024
82.7134939230925
82.8589595968162
83.0004448125798
83.1331151309101
83.2520789140623
83.352400289116
83.4291180195539
83.4772703314579
83.4931117266152
83.4781696479545
83.43546837719
83.3680795107325
83.279102774367
83.1716490285805
83.0488255372894
82.9137235636689
82.7694083146666
82.6189112209049
82.4652245112846
82.3112907865026
82.1595040983729
82.0113983450886
81.8684096026115
81.7319550991516
81.60343534001
81.4842366971478
81.3757344530276
81.279296292385
81.1962862402945
81.1280690502048
81.0760150515596
81.041494881176
81.0256125561351
81.0291875522395
81.0530514738152
81.0980675615956
81.16513506509
81.2551939477368
81.3692299662847
81.5082801717434
81.6734388860137
81.8658642160882
82.0867851767118
82.3368741479603
82.6118507763975
82.9049724024964
83.2093120061371
83.5177455028537
83.8229366963721
84.1173346484503
84.3931844414587
84.642552291138
84.8573658404124
85.0294702177497
85.1510257907973
85.2217755378216
85.249153288244
85.2410881317039
85.205606262326
85.150771891397
85.0846431217344
85.0152430662244
84.9505462039157
84.8984797987349
84.866940157927
84.8638075224349
84.8929905314227
84.9491805901308
85.0257884307081
85.1162135977114
85.2138176653081
85.3119076824121
85.4037299965466
85.4824746826265
85.5412908093678
85.5733127109151
85.5716972922754
85.5320377401765
85.460411985652
85.3657813601253
85.2570774186801
85.1431634123735
85.0328145293575
84.9347164534408
84.8574817775373
84.8096838754128
84.7999080511866
84.8368201487479
84.9283960651724
85.0724844856377
85.2601815971304
85.4824500944475
85.7301570439733
85.9940076313171
86.2644980836438
86.5318886409686
86.7861978035637
87.017219250639
87.2145627860356
87.3684391896743
87.47774058385
87.5472675067168
87.5820746899924
87.5873248448464
87.5682506897577
87.5301227759155
87.4782234379926
87.4178270533043
87.3541866771361
87.2925270383888
87.2377114344709
87.1905712009356
87.1492805252454
87.111975723919
87.0768009658774
87.041906963351
87.0054504532962
86.9655944620554
86.9205093462304
86.8683746015996
86.8073814294048
86.7359153200698
86.6551242419308
86.5682981058312
86.4787615092045
86.3898129279795
86.3047239716859
86.2267411317884
86.1590899730765
86.1049817275013
86.0676222669594
86.0502234560227
86.0559316864719
86.0852447781093
86.1355362479153
86.2040188526219
86.2879129299845
86.3844354424216
86.4907908084206
86.6041635113211
86.7217124976923
86.8405673953903
86.9578265944499
87.0705600554546
87.1759141783047
87.2711463627053
87.3535052296743
87.4202290031094
87.4685544134721
87.4957273494296
87.4990152180523
87.4757209440397
87.423198504438
87.338869858114
87.2203288645082
87.0684767105729
86.888358564671
86.6852665860766
86.4644411228944
86.2310469902567
85.9901562072498
85.7467369848742
85.5056486893829
85.2716424689565
85.0493672242769
84.8433797498159
84.656785466123
84.4885081873054
84.3367316491788
84.1996840727403
84.0756316544673
83.9628728831613
83.8597336316158
83.7645629808716
83.675729742765
83.5916196530478
83.5106332126576
83.4312644667726
83.3532487512667
83.277283951835
83.2040886519399
83.1343767900353
83.068858210028
83.008239330995
82.9532239349497
82.904514071978
82.8628110826716
82.8288167384768
82.8032345013477
82.7862733581907
82.7761574918243
82.7706195113637
82.7673953813505
82.7642225363002
82.7588392339258
82.7489851449354
82.7324031773672
82.7068425306624
82.6700629690885
82.6198402957808
82.5540140201774
82.4723082280953
82.3770349068868
82.2706889171088
82.1557504396457
82.0346791741401
81.9099100507275
81.7838504263594
81.6588787283003
81.5373445024472
81.4215698227524
81.3138520200424
81.2164165189321
81.1305834278705
81.0569155885466
80.9959579801243
80.9482635895858
80.9143952389757
80.8949275134375
80.8904487992224
80.9015634421733
80.9288940386465
80.9730838724482
81.0347995131571
81.1146010297743
81.2117906892754
81.3249634944046
81.4527098729234
81.5936181240216
81.7462694200851
81.9092332816894
82.0810635236839
82.2602946766215
82.4454388935432
82.6349833572469
82.8273878333351
83.0208108720511
83.2126196924281
83.4000027583828
83.5800993197025
83.750003135657
83.9067682497165
84.047416881825
84.1689494850612
84.2683569872489
84.3426352050915
84.3888013788669
84.404364990772
84.3908300767233
84.3517852713981
84.2908735629457
84.2117552135042
84.1180905109546
84.0135256928036
83.9016820706827
83.7861483387164
83.6704760155492
83.5581779480311
83.4527290413341
83.3574805213437
83.2755825756386
83.2101510048659
83.1642988900866
83.1411502085695
83.1438558296117
83.175611992998
83.2396814284824
83.3394173403073
83.4782905580868
83.6599202468411
83.8871405539045
84.1553312087603
84.456231450578
84.7813981492126
85.1221666595415
85.4696069278027
85.8144971444522
86.1473164270246
86.4582581901647
86.7372658553485
86.9740923413536
87.1595234888885
87.2943057011262
87.3845116934266
87.4364603765093
87.4566145599174
87.451529033298
87.4278078063632
87.3920710111702
87.3509317333745
87.3109828612896
87.2787939263405
87.2603871700396
87.2571659087128
87.2681692205679
87.2924301106566
87.3289921188309
87.376906500696
87.4352296329701
87.5030206339755
87.5793391922984
87.66324359875
87.7537889786506
87.849973924447
87.9504217808188
88.0535847063566
88.1579002522068
88.2617912674377
88.3636657261306
88.4619171251843
88.5549254665237
88.6410588364142
88.7186755926635
88.7861271676301
88.8426721770864
88.8912199609776
88.9356108749629
88.9797029146456
89.0273698053572
89.0825024519129
89.1490137877141
89.2308470742551
89.3319877265097
89.4564787773727
89.6083920281112
89.7875243421581
89.9858806335023
90.194539973529
90.4044257019059
90.606292910938
90.7907345089486
90.9482067271593
91.069074803553
91.1436792690038
91.1624227681394
91.117059202642
91.0098908260833
90.8487247124829
90.6415161238406
90.39623915689
90.1208149623689
89.8230541522471
89.5106133826601
89.1909657367753
88.8713842751995
88.5589379670349
88.2595373042989
87.9738671317284
87.7009365637264
87.4397851135547
87.1894810970726
86.9491192219311
86.7178184152151
86.4947198727118
86.278985314921
86.0697954366281
85.8663485383331
85.6678738622525
85.473755721847
85.2834683140224
85.0964964565653
84.9123342447372
84.7304846490439
84.5504591763903
84.3717775918462
84.1939676984234
84.0165651724013
83.8391134518527
83.6611600121738
83.4818186418946
83.2993649623686
83.1120079254267
82.9179907132026
82.7155930150055
82.5031339862157
82.2789758425927
82.0415280382992
81.7892519700938
81.5206661437116
81.2343517316653
80.9290219438627
80.6058233082046
80.2688920577218
79.9224473216245
79.5705807283386
79.217250268119
78.8662783417288
78.5213536513431
78.1860365953141
77.8637678485624
77.5578798426798
77.2716109022051
77.0081218442489
76.7698886619557
76.5563574535507
76.3661255541631
76.1978558638844
76.0502694861371
75.9221388674841
75.8122815512858
75.7195544814185
75.6428488013731
75.5810851019739
75.5332090778688
75.4981875590039
75.4750062269965
75.4628910094922
75.4615575720893
75.4707919846163
75.4903891108681
75.5201520340324
75.5598915097584
75.6094254445672
75.6685783974802
75.7371811028991
75.8150700129168
75.9020868573707
75.9980782200734
76.1027928976038
76.2144096723913
76.3298553027712
76.4459877804937
76.559626988489
76.6675553162307
76.7665209699002
76.8532440522552
76.9244254707897
76.9767587062172
77.0069444363248
77.011707962914
76.9878217573782
76.9338812930575
76.8533983036448
76.7507424781208
76.630281837598
76.4963603586197
76.3532806120694
76.2052913800314
76.0565801431379
75.9112702850994
75.7734228382857
75.6470425930143
75.5360884121135
75.4444290133826
75.3737277086481
75.3228693360799
75.2905944702963
75.2756765276613
75.2769159585855
75.2931349249069
75.3231724233266
75.3658798230749
75.4201167923806
75.4847475940122
75.5586377352572
75.6406509622523
75.7297763537026
75.8262560589098
75.931046210063
76.0451259779567
76.1694920806179
76.3051613371769
76.4531735282178
76.6145945835387
76.790520121909
76.9820793716133
77.1904395053888
77.416810428893
77.6624066307477
77.9260577487758
78.2028801923492
78.4875530185695
78.7746024549866
79.0583933212293
79.3331282436682
79.5928552658273
79.8314844441604
80.0428139501205
80.2205660689455
80.358433288606
80.4502747306314
80.4953065650261
80.4996325101046
80.4699342421148
80.4129723401962
80.3355350019171
80.2443979912452
80.1462960480363
80.0479057460991
79.9558396260092
79.8766513488243
79.8168516152432
79.7828544270747
79.7774600913023
79.7984794307115
79.8434021278714
79.9097526191504
79.9950759010787
80.0969249445056
80.2128496424334
80.3403872483487
80.4770542886503
80.6203399556927
80.7677010072017
80.9166475435269
81.0667152041907
81.2195026495756
81.3767232521936
81.540117719113
81.7114564729629
81.8925428241678
82.0852169740039
82.2913608950399
82.5129041443089
82.7518306753687
83.0101867285134
83.2889143027025
83.5832879205584
83.8867276856734
84.1924655857383
84.4935349103467
84.7827704914949
85.0528209663656
85.2961738824862
85.5051943396964
85.6721776359294
85.7894160482566
85.8502991561881
85.8572633293937
85.817522610662
85.7384711900399
85.6275720224095
85.492295496043
85.3400710194424
85.178251710854
85.0140920708624
84.8547383109484
84.7072308981866
84.5783973275826
84.4704574287732
84.3798427713183
84.3026620407099
84.2350674065752
84.1732439874158
84.1134028572321
84.0517775127385
83.9846237401209
83.9082228274078
83.8188880629681
83.7129744428158
83.5881278429374
83.4479944809629
83.2979788165934
83.1434197539133
82.9895813816088
82.8416508872279
82.7047430312304
82.5839109418379
82.4841630328926
82.4104859194552
82.3678733084773
82.3613097944603
82.3912256437802
82.4498663337788
82.5286476832565
82.6189590403856
82.7121300015607
82.7994151191715
82.8719969323549
82.9210077099953
82.9375701856496
82.9128572846781
82.8381703942277
82.7059069498483
82.5181451534873
82.2828400694275
82.0080408760935
81.7017268891084
81.371741714432
81.0257433473489
80.6711697139417
80.3152188261963
79.9648425237881
79.626752692626
79.307438867505
79.0129478896563
78.7448761293188
78.5011858594777
78.2798128160187
78.0787719664234
77.8961469263953
77.7300806050935
77.5787669647971
77.4404438001655
77.3133864586182
77.1959024371662
77.0863268026325
76.9830187471553
76.8849195113967
76.7926778418883
76.7072570924489
76.6296150635311
76.5607058720783
76.5014820539504
76.4528969007621
76.4159070353254
76.3914752324832
76.3805734950078
76.3841863974233
76.4033147141514
76.438938430696
76.4912443321354
76.5596870599458
76.643709682473
76.7427693719697
76.8563351177088
76.9838855477628
77.1249068485464
77.278890772622
77.4453327265537
77.6237299317949
77.8135796527139
78.014370480517
78.2243974633985
78.4393901419828
78.6546609730467
78.8654190425904
79.066771971935
79.253733869218
79.4212396265591
79.5641658071713
79.6773582747462
79.7556665880937
79.7939850173664
79.7873126834155
79.734001429345
79.6399666321091
79.512244589898
79.3578821522516
79.1838842066657
78.9971737483174
78.8045644440485
78.6127453560387
78.4282773383062
78.2576005555582
78.1070525921987
77.9828967123967
77.8906456431346
77.8316623963522
77.8058766980402
77.8133009755991
77.854032692844
77.9282551435192
78.036238801429
78.1783432445023
78.3550196772445
78.5668140836591
78.8143710509976
79.0984383138142
79.4193557463523
79.7730248160545
80.1529104520052
80.5522475745567
80.9640172961398
81.3809150782253
81.7953309731251
82.1993433282677
82.5847274590632
82.942980814654
83.2653660458722
83.5430081934172
83.7712097815136
83.9536767937405
84.0953099557497
84.2012124847354
84.2766431135842
84.3269744743464
84.3576575506633
84.3741927118554
84.3821076712537
84.3869425739691
84.3942423184962
84.4088336716329
84.4313312698127
84.4608262631714
84.4964089299863
84.5371693649511
84.5821962577428
84.6305758666481
84.6813911874184
84.7337213183675
84.7866410233967
84.8392204951229
84.8905827628397
84.9408492801869
84.9909947912455
85.0420258090408
85.0949537191309
85.1507951178502
85.2105723941441
85.2753145587207
85.3460583249707
85.4238494470832
85.5097443220444
85.6047909156757
85.7088812682273
85.8201427363324
85.9365401740271
86.0560183596009
86.1764999477555
86.2958844037974
86.4120479480682
86.5228445401092
86.6261079312502
86.7196548112911
86.8012885178185
86.8687549348154
86.9197094770546
86.9518047747786
86.9627093379934
86.9501182337391
86.9117648998331
86.8454340021002
86.748975216147
86.6203177878661
86.4574856998631
86.2586181240269
86.0239271882733
85.7586033899116
85.4685467717956
85.1595588711401
84.8373148811438
84.5073439061581
84.1750169102568
83.8455418770123
83.5239656595343
83.2151819993888
82.9239452257424
82.6546560810503
82.4075840550033
82.1796071873191
81.9675877480929
81.7684691237175
81.5792648668795
81.3970501387678
81.218955400255
81.0421622326917
80.8639011856584
80.6814515592171
80.4921430324699
80.2936244273309
80.0871819452522
79.8766521413967
79.6658515870512
79.4585176875104
79.2583106821093
79.0688190301642
78.893568008434
78.7360313741052
78.599645986793
78.4878293329229
78.4039999557929
78.3515311677287
78.3306919479561
78.3374472784842
78.3675009729425
78.4165908214642
78.4804654687755
78.5548659655161
78.6355119230483
78.7180922759029
78.7982607089479
78.8716358383323
78.9338062457091
78.9803476705745
79.0080509001908
79.0163059284201
79.0048593951149
78.9734874431884
78.9219968619697
78.8502261255892
78.7580463178508
78.645361935724
78.5121115643665
78.358268417453
78.1838407375371
77.9888720521928
77.7742634001209
77.5452682447194
77.3084666468633
77.0702917042181
76.8370221372437
76.6147862833869
76.4095759414054
76.2272694899609
76.0736638328327
75.9545149066969
75.8755867233112
75.8427092065958
75.861810784323
75.9348298137408
76.0557595770778
76.2177680582803
76.4140512508765
76.6377639379948
76.8819624355635
77.1395592612926
77.4032900865507
77.6656936369231
77.9191054252548
78.1556663180931
78.3673469387755
78.5476840416497
78.696974260878
78.8173053829304
78.9108615812881
78.9799076443205
79.026774038826
79.0538429994388
79.0635358016408
79.0583013445642
79.0406061400702
79.012925777499
78.977737909602
78.9374761930365
78.8943062473804
78.8502821428863
78.8074488032441
78.7678423621322
78.7334913159897
78.7064187206578
78.6886454251376
78.6821943415874
78.689095758793
78.7113937167242
78.7511534725293
78.8103267525274
78.8891691671386
78.9868137066791
79.1023910049027
79.2350456732901
79.3839322974511
79.5482116458495
79.7270470732717
79.919601104969
80.1250321906682
80.3424916207101
80.5711205994737
80.80979259146
81.0551273550536
81.302508074406
81.547195029155
81.7843345239391
82.0089641495106
82.2160240970263
82.4003748241266
82.5568212995637
82.68014394582
82.7651362554055
82.8066559065132
82.8024878690412
82.7576775864003
82.6784822295125
82.5712086023132
82.4421659987687
82.297628641392
82.1438078217413
81.9868336553812
81.8327462184445
81.6874957492532
81.556951573544
81.4468476393427
81.3596348734514
81.2932817908438
81.2454728144147
81.2139304520788
81.1964055836956
81.1906690961333
81.1945048065704
81.2057036323035
81.222058980314
81.2413633418556
81.2614060865036
81.2800797072976
81.2971434257855
81.3139456950164
81.331887793826
81.3523735405255
81.376809930176
81.4066082591863
81.4431857414132
81.4879676219423
81.5423897974712
81.6079019557179
81.6859712505849
81.7775824466907
81.8801528755131
81.9895266585493
82.1015018582835
82.2118316884131
82.316223876034
82.4103444775006
82.489826262181
82.5502817518915
82.5873209565801
82.5965737784895
82.5737261568768
82.5168364603793
82.4293455398725
82.3154822096638
82.1794863407722
82.0255843518505
81.8579690937245
81.6807841443989
81.498112455041
81.3139692305215
81.1322988901525
80.9569759343965
80.7917977166199
80.6396790157215
80.5021516908817
80.3806152650615
80.276468890827
80.1911173857121
80.1259777733718
80.0824863624605
80.0621064056586
80.0663363929328
80.0967190461818
80.1548510971818
80.2423459450112
80.3582095193596
80.4974373774891
80.6546632696845
80.8244642144419
81.0013393521965
81.1796960223584
81.3538433386406
81.5179935986497
81.6662718809835
81.7927341528826
81.891394130123
81.9566177110553
81.9876829990796
81.9874628791235
81.9589839417276
81.9053271674829
81.8296079583649
81.734958346269
81.6245115104182
81.5013886829687
81.3686884766745
81.2294786305706
81.0867901395959
80.9434491554689
80.8009549203952
80.6601796654708
80.5219799671374
80.387200883464
80.2566766392442
80.1312314792355
80.0116806844367
79.8988317471428
79.7934857014847
79.6964386072533
79.6084831860126
79.5303659881914
79.4624033135252
79.4046752909678
79.3572665392932
79.3202690953112
79.2937826794972
79.277914978931
79.2727819487151
79.2785081331307
79.2952270078915
79.3230813449645
79.3622236015427
79.4127569158358
79.4739866715601
79.5446395316923
79.6234273130479
79.7090569129009
79.8002278288169
79.8956300914612
79.9939426151006
80.0938319731047
80.1939516077831
80.2929414853468
80.389428207635
80.4820279294878
80.5693703692352
80.6500907384553
80.722816620826
80.7861701956495
80.8387711566736
80.8792401057068
80.9062024150042
80.9182925472393
80.9141588161103
80.8924685643081
80.8519137287868
80.7914739518318
80.7119862580613
80.6150961300482
80.5024610839805
80.3757408620369
80.2365914633553
80.0866598647372
79.9275794381923
79.7609660640311
79.5884149310496
79.4114980094293
79.2317621772874
79.0509166603328
78.8726665793414
78.7018817571751
78.543367611693
78.4018599062576
78.2820429274366
78.1885731507437
78.1261083629872
78.0993423430715
78.113045364582
78.1721109766398
78.2816097502263
78.4466277588643
78.6654911824922
78.9283330553054
79.2246953269382
79.5438940843954
79.874939322315
80.2064830886187
80.5267982404115
80.8237905118738
81.0850466899215
81.2979213525157
81.4496637896713
81.5285792810384
81.5352432886374
81.4785700449252
81.3678909161797
81.2126787099609
81.0224347186023
80.8065975296002
80.5744742246789
80.3351938141097
80.0976821989837
79.8706576195089
79.6626454187482
79.4816164095362
79.3294072214564
79.2031777773301
79.1000504569263
79.0172194533272
78.9519355129689
78.9014928458334
78.863218065837
78.8344610575238
78.8125876946544
78.7949743598572
78.7790042326169
78.7621482952584
78.7449899377581
78.7320817619252
78.7282301234335
78.7382441202299
78.7669496026465
78.8192091323719
78.8999480447953
79.0141868894388
79.1670806788986
79.3639655728905
79.6104138682214
79.9121376952927
80.2678713506331
80.6661990634564
81.094610051738
81.5401155613203
81.9891648787429
82.4276030752274
82.8406754799737
83.2130842489047
83.5291020354563
83.7727465420425
83.9280175227591
83.9832708340841
83.9471262507226
83.8347173637852
83.6614934026908
83.4429688025174
83.1945300638884
82.9313004183645
82.6680614968883
82.4192295783237
82.1988832503955
82.0208393740594
81.898731341093
81.8388510071707
81.8321140797031
81.8676860620226
81.9348514227652
82.0229164831352
82.1211405154414
82.2186947579631
82.304649656907
82.3679909443288
82.3976651438446
82.3826547520808
82.3127782219366
82.1902056635382
82.027518240863
81.8375717165935
81.6330648769851
81.4264762434774
81.2300400423302
81.0557596716275
80.9154568509042
80.8208550423042
80.7836965582005
80.8158940033335
80.9282087178832
81.1155941179856
81.36329619955
81.6563591926016
81.9795663656146
82.3172933984707
82.6534178918879
82.9712891285377
83.2537632446232
83.4833089951199
83.642188141975
83.7127619686415
83.6862027687203
83.572142787389
83.3829575018033
83.1312580404095
82.8296886040795
82.4907614170537
82.1267306275934
81.7495047596836
81.370596001503
81.0011037980407
80.6517298539427
80.3327628345365
80.0489168392292
79.7954634664861
79.5668927813996
79.3578651409843
79.1631810638833
78.9777585997118
78.7966176828651
78.6148710650444
78.4277214906657
78.2304648138012
78.0184987576525
77.787336990776
77.5346271584238
77.2676997382632
76.996581259239
76.7310292901933
76.4805357703897
76.2543547315444
76.0615522524438
75.9110774986831
75.8118543212268
75.7728937050227
75.8034283821044
75.9130721859805
76.1118692061498
76.4008282113771
76.7653450461683
77.18919753096
77.6557164762938
78.1475488209373
78.6464902424035
79.1333952245437
79.5881752536144
79.9898969753611
80.3169913633622
80.5475817852856
80.6603559793322
80.6505512249646
80.5346903882518
80.3313451724809
80.0593802560419
79.7375956921752
79.3844576446484
79.0179183913986
78.6553222004849
78.3133911223946
78.0082838202778
77.7557210608983
77.5711730495748
77.4649713122357
77.4290662485659
77.4515919098722
77.5209588360088
77.6256958744109
77.7543275805019
77.895285677176
78.0368543748406
78.1671502509748
78.2741378632518
78.3456823043273
78.3696394722741
78.3358806849205
78.2493984135546
78.1223639987464
77.9669895580634
77.7953800633381
77.6194653963445
77.4509699302963
77.301418230076
77.1821753154309
77.1045202294842
77.0797523684899
77.119331143149
77.2348819162941
77.4290997388062
77.6908136044494
78.0077258078092
78.3673827802963
78.757010292391
79.1633868760026
79.5727578778718
79.9707940993291
80.3425999751443
80.6727765809457
80.9455442928786
81.1454300490003
81.2685898413107
81.3231517254995
81.3181721553049
81.2629936120678
81.1671188529216
81.0401054001562
80.8914818732619
80.7306868479279
80.5670302166384
80.4096765383362
80.2676495994298
80.149636609403
80.0598619863828
79.9985215634487
79.9657182461244
79.9616150706142
79.9864364987349
80.0404700532349
80.1240683121519
80.2376512848246
80.3817091965424
80.5568057136626
80.7635816464527
81.0024582544968
81.2702768456118
81.5614078530555
81.8700523154146
82.1902537136305
82.5158747804855
82.8405828665751
83.1578445805394
83.4609304961489
83.7429307323382
83.9967821546153
84.2153334810718
84.3944916659088
84.5362843657302
84.6435755715575
84.7193511158625
84.7666950198765
84.7887674577501
84.788784630557
84.770000781723
84.7356925275597
84.6891456239038
84.633644243733
84.5721139784557
84.5056189307783
84.4346089622261
84.3595321866786
84.2808349133262
84.1989612515053
84.1143527638772
84.0274481675302
83.9386830824381
83.848489826597
83.7572972570589
83.6655228582876
83.5733356661292
83.4806156196527
83.3872272998636
83.2930365552378
83.1979105220693
83.101717648903
83.0043277249382
82.9056119122846
82.8054427819487
82.703694353428
82.6002421377821
82.4952102524633
82.3904718042289
82.2886364190902
82.1922913127632
82.1040009670064
82.0263114407024
81.9617562436987
81.9128637589235
81.8821662156614
81.8722102382403
81.8855690199198
81.9248547676999
81.9904605355501
82.0759314773404
82.1734911015279
82.2753049435115
82.3734647638005
82.4599877757863
82.5268312641478
82.5659228998092
82.5692068746496
82.5287056665869
82.4365968062817
82.2855181256844
82.0751720762307
81.813392250959
81.5084892542237
81.168701049394
80.802118364468
80.416627259139
80.0198683286733
79.6192116275298
79.2217461468558
78.8342825609971
78.4633679515012
78.1153050430152
77.7937022323769
77.4958387827825
77.2181458674492
76.9571809136297
76.7096108285164
76.4721985450049
76.2417926191098
76.0153196568965
75.7897793828541
75.5622421852086
75.3298489879856
75.0898133057055
74.8394892557658
74.5798495666653
74.3171473952821
74.0579019884937
73.8084528126119
73.5749724206304
73.363489568143
73.1799219566897
73.0301181843425
72.9199087433775
72.8551662225947
72.8418752510908
72.8862131710972
72.9946252916036
73.1695084760637
73.4033250980567
73.687175023005
74.0120913284066
74.368923019627
74.7482384641525
75.1402503404313
75.5347638341953
75.9211505464704
76.2883510671914
76.6249093616661
76.9190419477083
77.1598564885327
77.3472156984262
77.4873035348112
77.5866605097782
77.6520424050381
77.6903548584191
77.7085989443621
77.7138286704523
77.7131209545719
77.7135583744509
77.7222248016974
77.7462139498583
77.7925414885006
77.8633237538865
77.9538310274222
78.0588142631808
78.1729876272607
78.2910122117576
78.4074868926415
78.5169465227784
78.6138676839238
78.6926822110469
78.747798646488
78.7736316783496
78.7646555243163
78.7194429332975
78.6459199666724
78.5533276222017
78.4508596467501
78.3476289820856
78.2526556720031
78.1748757382042
78.1231705183229
78.1064161448256
78.1335532217632
78.2136773281548
78.3561517547254
78.5677179059418
78.8408826305921
79.1637698505096
79.5243077127511
79.9100888294941
80.3082651397603
80.7054808509197
81.087847233021
81.4409637462866
81.7499900864455
81.9997731137334
82.1750996720348
82.2691766058527
82.2917533217687
82.254864842083
82.1707988758028
82.0519373311345
81.9106338303478
81.7591284948688
81.6094999649821
81.4736537846196
81.363345915175
81.2902402212532
81.2657159649759
81.2923514263802
81.3623953215235
81.4675947465334
81.5997172480066
81.750487292926
81.9115392918586
82.0743873119137
82.2304119495396
82.3708650247276
82.4868927992977
82.5695783017057
82.6114275832966
82.6151404768818
82.5879034440652
82.5369830088377
82.4696603498318
82.3931961001807
82.3148079968667
82.2416612984764
82.1808717729412
82.1395210331312
82.1246840653629
82.1434650255584
82.2002028312206
82.2914649069775
82.4125250117418
82.5586717749151
82.7251766691347
82.9072673186097
83.1001061178631
83.2987742530682
83.4982613107732
83.6934607259005
83.8791713607491
84.0503944580988
84.2051921095872
84.3435329991928
84.465434029081
84.5709330800915
84.6600887337094
84.7329799322407
84.789705579613
84.8303840855265
84.8551528559573
84.8641677332641
84.8576068084759
84.8358654091598
84.7996320023925
84.7496284836886
84.6865873433067
84.6112493931051
84.524361601784
84.4266750468308
84.3189429900008
84.2019190817529
84.0763556987027
83.9430024168989
83.803011990709
83.6594856420108
83.516072869193
83.3763738812629
83.2439413266835
83.1222851759143
83.0148805412984
82.9251783621618
82.8566189159995
82.8126481592769
82.7967369538062
82.8123490521342
82.8599935680804
82.9356838910586
83.0350871270318
83.1538740284595
83.2876961783585
83.4321676480945
83.5828511457896
83.7352487438396
83.8847973262576
84.026868928658
84.1567761544064
84.2704101917738
84.3666700528476
84.4453826102007
84.5063961476888
84.549580704442
84.5748285396756
84.5820545300664
84.5711964971882
84.5422154629017
84.4950958310056
84.4298454938917
84.3465608689052
84.2464917932863
84.1318556715402
84.0048937493103
83.8678334741621
83.7228827167392
83.5722251958891
83.4180170860508
83.2623847766097
83.1074237470151
82.9551985180848
82.8077436389538
82.6665886702058
82.5311554253887
82.4003035716077
82.2729085149805
82.1478602736547
82.0240626469538
81.900432686256
81.7759004579768
81.6494090895052
81.519915089112
81.3863889307021
81.2478199083432
81.1048181609323
80.9620259846001
80.8246467845002
80.6978146949756
80.586605023885
80.4960510361852
80.431166955149
80.3969771650251
80.3985517365451
80.4410485681096
80.5297626445247
80.6701420937675
80.8629004106989
81.0992042062128
81.3690357028692
81.6621992002169
81.9682465041466
82.276427502969
82.5756675808096
82.8545739762868
83.1014733125539
83.304482298621
83.451612987363
83.5323323526687
83.5486744474494
83.5093389415502
83.4232925305044
83.2996072154213
83.1473695575585
82.9756095137393
82.7932491979455
82.6090713594394
82.4317069960722
82.26964132931
82.1312367984074
82.0220997124369
81.9389721113502
81.8768425543196
81.8307671891072
81.7958474000533
81.7672135144655
81.7400144051737
81.7094128944528
81.6705869021612
81.6187362896517
81.5490953313299
81.4569996936755
81.3422835818791
81.2126845070887
81.0766765467481
80.9426290010077
80.8188022033758
80.7133603509872
80.6344008345595
80.5899997299602
80.5882734312482
80.6374568586899
80.7459992727948
80.9224323812801
81.1664308508762
81.4659932691207
81.8082170755041
82.179903876392
82.5674362303987
82.9566962097055
83.3330293998518
83.6812589003417
83.9857541227925
84.2305586250575
84.3995798731419
84.4814258677137
84.4818190295706
84.4107721181617
84.2786287031603
84.0959026059143
83.8731410895418
83.6208138977233
83.3492289685147
83.0684746373909
82.788387414594
82.5185439733488
82.2681901567193
82.0425060547526
81.8412632030861
81.6638845998446
81.5098407109914
81.37864683285
81.269860700333
81.1830803196369
81.1179420065271
81.0741186134326
81.0513179304313
81.0492812468679
81.0677171071232
81.1050680349683
81.1586019124679
81.2255489821985
81.3031362636001
81.3885792557969
81.4790755207769
81.5718001615344
81.663903225668
81.7525090754068
81.8347177699267
81.9076085048831
81.9686920833504
82.0186511253546
82.059557627261
82.093504512506
82.1225960637151
82.148944897424
82.1746700139
82.2018959336907
82.2327529295026
82.2693783613407
82.3139191245595
82.3685347159232
82.4351980263984
82.5153868170556
82.6105218729613
82.7220518614018
82.8514587683492
83.0002639530677
83.1700348737241
83.3623925473826
83.5790198199076
83.8216705353753
84.0921797109451
84.3919126413991
84.7173906940077
85.0625065456747
85.4209530957722
85.7862171402108
86.1515615539482
86.510017491667
86.8543875395256
87.1772607811758
87.4710406921905
87.7279866366321
87.9409509165441
88.1076341943432
88.2279598627427
88.3020104109029
88.3300172485183
88.3123576895271
88.2495508149924
88.1422522841052
87.9912481761047
87.7974479577609
87.5618766807181
87.2867217212661
86.9809798525226
86.656138788688
86.323401274368
85.993646532761
85.6774270187091
85.3849916246068
85.1263333617971
84.9112599245186
84.7494861491653
84.6507481898008
84.6244406274775
84.6687700981993
84.7707637246309
84.9170947642272
85.0944204107444
85.2892616713754
85.4879249790863
85.6764666015565
85.8407016826877
85.9662599456074
86.0386896500107
86.0437664522787
85.9762255018643
85.8442433396046
85.6572905098709
85.4249160120908
85.156638355145
84.8618579343614
84.5497909858503
84.2294246683342
83.9094923237822
83.5984676680375
83.3045765448324
83.0348529110679
82.7893141154365
82.5650575644174
82.3592607144587
82.1691795253243
81.9921370242925
81.8255138435453
81.6667406005233
81.5132920153201
81.362682678011
81.2124643927148
81.0602250346138
80.9046671789796
80.7492333151913
80.5986045124106
80.4573930901764
80.3301510516169
80.2213836617344
80.1355680075053
80.0771764896459
80.0507052953702
80.0607080243664
80.1118347886347
80.2088772845953
80.3547075402279
80.5439154614128
80.7690009235071
81.0223978497943
81.2964117054286
81.5831707492952
81.8745915805479
82.1623598622649
82.4379273390237
82.6925263738641
82.9172031947595
83.1030508381573
83.2467889361612
83.351928643391
83.4225202927179
83.4627365731729
83.4768398319182
83.4691531366323
83.4440354569125
83.4058612101332
83.359004319702
83.3078268542238
83.2566722561464
83.209127578522
83.1648647678525
83.122270825805
83.0797389128662
83.0356688199059
82.9884672432805
82.936548671704
82.8783368769738
82.8122669987515
82.7367882107726
82.6503669521341
82.5515232383083
82.4417399605316
82.3277189640804
82.216630983107
82.1155704197507
82.031566761511
81.9716080238539
81.9426760478249
81.9517936939176
82.0060842702426
82.112843920574
82.2796281880975
82.5135156343763
82.8105695047641
83.1586836276674
83.5453511530892
83.9577020726875
84.3823968047763
84.8055588004738
85.2127501497304
85.5889948676547
85.9188546291805
86.1865610696697
86.3767029914152
86.4854148936033
86.5206879265764
86.491442109949
86.4068902485867
86.2764110109301
86.1094402894926
85.9153824862652
85.7035424808881
85.4830783280864
85.2629742093483
85.0520141444782
84.8556689511366
84.6726920667023
84.5010288559684
84.3386661710752
84.1836273594584
84.0339682735522
83.8877742341816
83.7431579067855
83.5982580548679
83.4512391385254
83.3002917276708
83.1438318982938
82.9824317118744
82.8179513463192
82.6522415950469
82.4871243636041
82.3243926708683
82.1658114377996
82.0131190315195
81.8680295348513
81.7322357150821
81.6074126705125
81.4952221392916
81.3971100412949
81.3134227227549
81.244155730486
81.1893192507641
81.1489384423999
81.1230535790916
81.1117202321203
81.1150094944764
81.1330082477211
81.1658194731105
81.2135626087548
81.2763731144923
81.3530701546632
81.4384342365433
81.5264462871437
81.6110370751196
81.6860876699258
81.745439039809
81.7829109465528
81.7923302052732
81.7675682284638
81.7025875659526
81.5914968904351
81.4286820963959
81.2135825405861
80.9536368776653
80.6569893226205
80.3316786341473
79.9855764498804
79.6263421067437
79.2613932362148
78.8978911346652
78.5427397510263
78.2025970927085
77.8838979090811
77.5928866535166
77.3344604711117
77.107691043636
76.9100134381428
76.7389757819793
76.5922223583694
76.4674783325794
76.3625362515182
76.2752441417241
76.2034950643085
76.1452180138275
76.0983700720445
76.0609297477458
76.0309146222487
76.00797672492
75.9944320949067
75.9928458948941
76.0057927042935
76.0358655003877
76.0856864521288
76.1579196051855
76.2552855713864
76.3805783769765
76.5366846731781
76.7266055708784
76.9534814308036
77.2194571457685
77.5192985591258
77.8446796189491
78.1870323933937
78.5375037839488
78.8869234894942
79.2257922744716
79.5442925019835
79.8323229293542
80.0795595585075
80.2755438510398
80.4097988317214
80.4745191572959
80.4757020008694
80.4241266514353
80.3307583889831
80.2066176012522
80.06268120102
79.9098143074555
79.7587320164147
79.6199904790797
79.5040062461782
79.4211028985654
79.3815843537531
79.3940462829081
79.454556638265
79.5538253587412
79.6825800221484
79.8315073477216
79.9911942702065
80.1520906832793
80.3044944545044
80.4385595791475
80.5443283798795
80.6117884573772
80.6309546387557
80.594632173853
80.5099292964938
80.3887222222026
80.2428734570887
80.0841397171172
79.9241178804173
79.7742252620643
79.645712999271
79.5497113032345
79.4973056891333
79.4996440163728
79.5680752523007
79.7118722429698
79.9249839794578
80.1952847990678
80.5105702770598
80.858410706568
81.2260250947874
81.6001925790243
81.9672041150156
82.3128582687849
82.6225053718938
82.8811440742528
83.0736559341556
83.1924313903051
83.2435402184585
83.2348205819421
83.1743863039271
83.0705184743021
82.9315715619512
82.7658955095409
82.5817745824339
82.3873831628557
82.1907582401821
81.999788052299
81.821906662035
81.659052234513
81.5085966617432
81.3678176057323
81.2340372893256
81.1046168929979
80.9769527396606
80.8484742000891
80.7166432600284
80.578955693811
80.4329437887243
80.2761805596761
80.1065919710856
79.926833268598
79.7431702447197
79.5618554824095
79.3890291202898
79.2307278201792
79.0929028953713
78.9814472669099
78.9022310603752
78.8611458538894
78.8641578397657
78.9173704717492
79.0268771452483
79.1920965147093
79.4044251323355
79.6547803240538
79.9339665727453
80.2325950295291
80.541023688994
80.8493193295892
81.1472428289909
81.4242597581629
81.669578204406
81.8722155351718
82.0221646954244
82.1198304549202
82.1716502789419
82.1843294826619
82.1647077823908
82.1196998492226
82.0562468928224
81.9812797744285
81.9016938486106
81.8243355140278
81.7560003171986
81.7034423997182
81.6718851952487
81.6599314058839
81.664394033937
81.6821072493957
81.70991492887
81.7446616178611
81.783185935288
81.8223164139187
81.8588697878365
81.889651747645
81.9114601857081
81.9211126209853
81.9180550212133
81.9068362662547
81.8925922299953
81.8804537190697
81.875545897354
81.8829941318134
81.9079362597052
81.9555413248159
82.0310349123271
82.1397313293813
82.2870730341623
82.4780857111986
82.7088765193242
82.9683853174231
83.245148108889
83.5274195121949
83.8031380604062
84.059925256792
84.2851207426676
84.4658557472834
84.5891663274243
84.6421467290027
84.6122074922629
84.4951974036075
84.3029221962727
84.0491848033247
83.7477843377939
83.4123427453202
83.0561773860394
82.6922185932033
82.332969867455
81.9905075955211
81.6765169701543
81.4023610584115
81.1789155776355
81.0086593320208
80.8844685389391
80.798915970196
80.7447602178877
80.7148831676866
80.7022409905264
80.6998279202154
80.7006524028755
80.6977254252638
80.6840609588346
80.6526884973296
80.5970470956851
80.5180037655782
80.4232238045812
80.3205791268912
80.2178712535066
80.1228238301685
80.0430901509991
79.9862753314827
79.9599728950382
79.9718157733416
80.0295420716016
80.1410764221741
80.3140344951708
80.5460057923454
80.825873199178
81.1421074696836
81.4829198927602
81.8361686948242
82.1892991921667
82.5293204799742
82.8428220203532
83.1160335848153
83.334931534402
83.4853942835196
83.5582145106403
83.5604902876954
83.503007543818
83.3967825852486
83.2529200622788
83.0824993126464
82.8964902576703
82.7056989330396
82.5207419709977
82.3520489167305
82.2098911437821
82.1042941475592
82.0388303204331
82.0082433760879
82.0067340132682
82.0285746095145
82.0680725727295
82.1195418136649
82.1772821457869
82.2355665627358
82.2886364408804
82.3307047658033
82.3559674863224
82.3593434339216
82.3427457165791
82.3120186996691
82.2730517934255
82.2317203241624
82.1938779861044
82.1653576611057
82.1519805324853
82.159573448903
82.1939945731417
82.2611674791486
82.3671234967635
82.515374792542
82.7006714566665
82.9159137121093
83.153923655032
83.4073979284404
83.6688725409151
83.9307003653044
84.1850420748511
84.4238714034512
84.6389956412581
84.8220921836082
84.9656877715813
85.0703900408149
85.1410912218314
85.1828422813959
85.2007812165442
85.2001011651963
85.1860245355218
85.1637833939598
85.1386062359886
85.1157111794056
85.1003055682691
85.097450795736
85.1084366652645
85.1304648698965
85.1605357377248
85.1956469960119
85.2327891460066
85.2689429543609
85.3010790745722
85.3261598161813
85.3411430774019
85.342988448356
85.3286792165233
85.297538391334
85.2538161430459
85.2023833947806
85.1480941819142
85.0957796677609
85.0502476739468
85.0162876595712
84.9986810940685
85.0022172051184
85.0317141448073
85.0920457049121
85.1866377736069
85.3115868844788
85.4607643302584
85.6280019163783
85.8070612207864
85.9916111950387
86.1752148085651
86.3513250964201
86.5132910277593
86.6543736091855
86.7677725690991
86.8477309939919
86.8947585159904
86.9117024558819
86.9014845418038
86.8670785247614
86.8114926503743
86.7377540406741
86.6488950987845
86.5479420074164
86.43790535568
86.3217728982822
86.2023187178942
86.0806761173165
85.9571387817766
85.831990647021
85.7055126932855
85.5779828614564
85.4496759881156
85.3208637589714
85.1918146801616
85.0627940669105
84.9340640490183
84.8058575568692
84.6775877703454
84.5477161120973
84.4146682065733
84.2768901973932
84.1328501286171
83.9810398711421
83.819977570077
83.648210585835
83.4643188979087
83.2669189359564
83.0546677980347
82.8272679470472
82.5902550911439
82.3511420112446
82.1172754777515
81.8958372636203
81.6938607563396
81.5182595503486
81.375867503912
81.2734899946883
81.217966434726
81.2162445103751
81.2754662778285
81.3989998482215
81.5769797921715
81.7967838622905
82.0456664863412
82.3106451098538
82.5784258391998
82.8353703161889
83.0675065023892
83.260586232704
83.4001919433573
83.4718938237419
83.4621996886186
83.3709798470927
83.2095158291113
82.9896600008669
82.7233068551294
82.4222471175619
82.0980562916572
81.762017387831
81.425076481282
81.0978290573398
80.7905348018605
80.5131585330095
80.2748551188705
80.0768100172008
79.9146666501813
79.7841120633868
79.680967079803
79.6011556964888
79.5406792895835
79.4955952578255
79.4619998384507
79.4360149118828
79.4137786754651
79.3914401131887
79.3653155003766
79.334886148146
79.3025414908777
79.2707723161185
79.2420615470234
79.2188853873225
79.2037160141069
79.1990258123454
79.2072931541406
79.2310097388862
79.2726895277862
79.3348793278439
79.4200602667825
79.5272735901298
79.6514558664729
79.7872678745535
79.9293101210776
80.0721104028326
80.2101186954467
80.3377096321158
80.4491928448263
80.5388314044916
80.6008685123094
80.6295624607549
80.6195119015412
80.5710446979106
80.4897686992112
80.3815298393212
80.2521753162125
80.1075191392541
79.9533162432735
79.7952450943455
79.6388985824653
79.4897829184072
79.3533242237714
79.2348825212648
79.1397132669579
79.0708247823071
79.0284043560994
79.0125052386414
79.0232337440073
79.0607500199531
79.1252690948347
79.2170622125839
79.3364584696867
79.4838467712208
79.6596781264071
79.8644683078645
80.0987524111803
80.3613062410033
80.6485714784787
80.9567727683271
81.2820450640339
81.6204137210846
81.9677780297521
82.3198984508553
82.6723878841177
83.0207073509578
83.3601665090249
83.6859294312674
83.9937098457844
84.2824466296804
84.5520912806678
84.8026283765096
85.0340751048588
85.2464808684801
85.4399267691281
85.614524975293
85.770417979771
85.9077777536871
86.0268048041901
86.1279336543201
86.2132516039406
86.2856510438884
86.3480624144052
86.4034419111289
86.4547656748865
86.5050259934822
86.5572295526777
86.6143977656204
86.6795692079928
86.7558041902876
86.8460491109954
86.9519054542831
87.0742289239882
87.2138934586588
87.3718030342502
87.5488952214302
87.7461450391914
87.9645691361095
88.2052303349653
88.4692425814307
88.7577763432258
89.0712302304185
89.4055854493564
89.7552396497876
90.1144244675459
90.4771884877311
90.8373866562686
91.1886777007573
91.5245302515608
91.8382383538132
92.1229470057717
92.3718712714273
92.5823921927711
92.7561883092235
92.8952453306579
93.0016581965289
93.0776154483072
93.1253840865156
93.1472951036594
93.1457298581755
93.1231074279218
93.081871944669
93.0242059267756
92.9516601926608
92.8657014800705
92.7677985215609
92.6594181084513
92.5420216214559
92.4170620316596
92.2859813712476
92.1502086697872
92.0111583488785
91.8700224801295
91.7261867352178
91.5781251451653
91.424325073774
91.2632964660265
91.0935738921147
90.9137190390678
90.7223236242427
90.5180127015771
90.2994483277368
90.065334113925
89.8153052880939
89.551692356884
89.2772889401121
88.99483381826
88.7070057221352
88.4164198438095
88.1256259778628
87.8371081963672
87.5532859595506
87.2765165662361
87.009098655858
86.752312724555
86.5042305000873
86.2623151884549
86.0240879434615
85.7871246740827
85.5490542807461
85.3075582401993
85.060371462094
84.8052843408069
84.5401459236898
84.2628681122276
83.9715865755492
83.6663737562161
83.3485495821642
83.0194349717259
82.6803259991335
82.3324910547907
81.9771684433853
81.6155644027552
81.2488515238936
80.8781675505433
80.5046145354544
80.1292583294963
79.7532961479986
79.3798895265673
79.0134020584704
78.6580606962601
78.3179430404369
77.9969930140019
77.6990402297587
77.4278227783016
77.1870132574678
76.9802479673676
76.8111593089075
76.6834115491251
76.6007390560322
76.5661218506809
76.5802991437004
76.6437839383595
76.7572819285742
76.9216998695935
77.1381560765238
77.4079932620923
77.7327939756981
78.1143989650406
78.554928851703
79.0568095957841
79.6228015904071
80.2523691264316
80.9327560972274
81.6478249550119
82.3803013358279
83.1116345019669
83.8219325498986
84.4899877608357
85.093408340222
85.6088715946719
86.0125097392303
86.2804325523141
86.3952952907961
86.3696392148516
86.2260026087714
85.9877264347519
85.6783868906625
85.321352177999
84.9394689241062
84.5548769097052
84.1889451882973
83.8623200318215
83.5950750932083
83.4065067321005
83.3018061935653
83.2699783190035
83.299529245527
83.3792411993336
83.4980215546046
83.6447830532079
83.8083536736204
83.977415822067
84.1404753690137
84.2858615774475
84.401759800708
84.4794606565141
84.5208599850905
84.5301510003592
84.5116107558625
84.4695698146983
84.4083860258217
84.3324226420491
84.2460309126408
84.1535371987252
84.0592345944019
83.9673789906239
83.8818407846755
83.8017354813921
83.7227885195874
83.6406832688774
83.5511374469262
83.4499084573714
83.3328030157947
83.1956909253337
83.0345228149594
82.8453515892029
82.6243572603291
82.3678747454801
82.0736600777382
81.7450325275884
81.3867814185793
81.0036206610583
80.600159899461
80.1808814485668
79.7501227555228
79.3120640756962
78.8707209878763
78.4299413372336
77.9934061796154
77.5646343048566
77.1469701978274
76.7432745834518
76.3560051903737
75.9875182209816
75.6400906246642
75.3159340639241
75.0172098962905
74.7460451450956
74.5045494716036
74.2948332020762
74.1190265067492
73.9792998742739
73.8778860761297
73.816866059365
73.7942893988806
73.8048135466525
73.8430773359589
73.9037687531226
73.9815886509659
74.0712221638612
74.167317704051
74.2644735691495
74.3572322953951
74.4400829499305
74.5074715664775
74.5538198900106
74.574304704855
74.5722537458018
74.5559876864739
74.533907704862
74.514402330071
74.5058438003698
74.516603263682
74.5550848103731
74.6297785609844
74.7493334460342
74.9226509227021
75.1590016987151
75.4681686205917
75.8570832438959
76.3176620371241
76.8374114121978
77.4033800930137
78.0019603520861
78.6187289628532
79.2383337839232
79.8444340680445
80.4197042416815
80.9459116546605
81.4040783326785
81.7747898411196
82.047861447914
82.2334760041115
82.3451847403072
82.397151033757
82.4039194673939
82.3802304703571
82.3408851486835
82.3006625668782
82.2742901131428
82.276466735648
82.3219387887475
82.4248988900905
82.5871076881734
82.7996896888946
83.0534369956039
83.3390467422779
83.6470358960334
83.9676763001386
84.2909509048916
84.6065326779624
84.9037880300367
85.1718067065189
85.3995534965533
85.5824484032441
85.7268024930038
85.8401415906667
85.9301542260972
86.0046429618854
86.0714891995845
86.1386320630935
86.2140617451999
86.3058275977661
86.4220612529767
86.5709904541659
86.7568214595846
86.9749859283684
87.2197532530654
87.485312977571
87.7657416905385
88.054977411159
88.3468018374458
88.6348309574485
88.9125146102429
89.1731456203496
89.4100270854265
89.6203358081399
89.8055802011075
89.9675606159558
90.1081451651946
90.2292602893392
90.332881909515
90.421027260069
90.4957474813662
90.5591210392483
90.6132480249169
90.6597811509074
90.6976712082972
90.7248874639168
90.7393996751074
90.7391846555299
90.7222323785215
90.6865529435442
90.630184367212
90.5512011470381
90.4477235316171
90.3179418336501
90.1618507435683
89.9828560539318
89.7847357187451
89.5712323906495
89.3460396033891
89.1127911507355
88.8750535730887
88.636321632801
88.4000166400923
88.1694874824803
87.9480080773261
87.738449391527
87.5431233443248
87.3642686756061
87.2041021012703
87.0648276440238
86.9486470388239
86.8577712402642
86.794433082916
86.7609011720917
86.7594951121805
86.792553389029
86.8580727070056
86.9462014273646
87.0462354006703
87.1473894307074
87.2387808967206
87.3094403286781
87.3483494995476
87.3445073434775
87.2870234599943
87.165238125974
86.9689313865617
86.6962072840644
86.3606308845851
85.9774012144098
85.5614090857166
85.1271057324397
84.68842378883
84.2587469163915
83.8509236887478
83.4773213090225
83.1499152499799
82.8804118734731
82.679251301691
82.5431003749759
82.4598021481672
82.4173660100418
82.4039979656921
82.4080005804396
82.4177070142742
82.4214483353021
82.4075538908427
82.3643847073508
82.2803996898958
82.144253803235
81.9484345791725
81.7011353324511
81.4147571739371
81.101510512436
80.7733202515905
80.4417681594726
80.1180701956371
79.8130862402046
79.5373596278779
79.3011842083169
79.1146972814114
78.9879976548908
78.9296639113257
78.9370021071803
79.0026492177425
79.1194549818265
79.2804015589004
79.478517233059
79.7068029062278
79.958170728953
80.2253947242407
80.5010736779577
80.7776069024571
81.047183725113
81.303116079712
81.5444310903771
81.7717736835983
81.9858227096991
82.1872885863239
82.376911021263
82.5554567913331
82.7237175970854
82.8825080117629
83.0326635415458
83.1750388127118
83.3104443666996
83.4377633500766
83.5535768911279
83.6543049122897
83.7363476712756
83.7961000781429
83.8299691253874
83.8343943552722
83.8058712211127
83.7409771225108
83.636399810498
83.4889677698406
83.2966143740563
83.0619314612669
82.7889355510549
82.4816642941113
82.1441431527973
81.780356285104
81.3942214711038
80.9895690917518
80.5701250799288
80.1394976909885
79.701167884509
79.2584830695111
78.8146079032353
78.3722487753584
77.9338552284576
77.5017673363229
77.0782209168531
76.6653533883286
76.2652106917968
75.8797551487523
75.5108741432565
75.1603895385158
74.8300677594284
74.5216304945254
74.2367659930207
73.9771360050591
73.7443646356834
73.5400704947798
73.3658908371628
73.2234959090787
73.1146042010968
73.0409987781643
73.0045448783571
73.007209012378
73.0510798430574
73.1383911798241
73.2715474895975
73.4531524056911
73.6850376402219
73.9620934849666
74.2760848684727
74.6185901861422
74.9809341716042
75.3541267367693
75.7288214893547
76.0952959293154
76.4434556802864
76.7628652373894
77.0428075604658
77.2723743632417
77.4408014174089
77.5454259911967
77.5941268993906
77.5957605657542
77.5593800704837
77.494136037523
77.4091980703709
77.3136976497305
77.216692738724
77.1271538843282
77.0539713615906
77.0059828754619
76.9920215055839
77.0189399361571
77.0838430759508
77.1809488781715
77.3045066039396
77.4487530643103
77.6078768006675
77.7759907512537
77.9471135466065
78.1151597246363
78.2739392501239
78.4171667598577
78.5384809285869
78.6322836522207
78.7008191687032
78.7508042866387
78.7890729543484
78.8225016420638
78.8579949296057
78.902483114214
78.9629319727222
79.0463648399314
79.1598972837947
79.3107848716116
79.5064848368932
79.7538755684195
80.0497502636924
80.3839962674743
80.746145030624
81.1254026589426
81.5105844755495
81.8900783003246
82.2518393280519
82.5834197841402
82.8720364366464
83.104678475033
83.2682648433228
83.3554032028083
83.3744507794564
83.336781141846
83.253992039824
83.1377644077685
82.9997530539913
82.8515100955777
82.7044411114941
82.569793284651
82.4586744842438
82.3821022859593
82.3507430527067
82.3662742117444
82.4206633904163
82.5054667485795
82.6122518095708
82.7325434368117
82.8577870012469
82.979328930249
83.0884150738799
83.1762074185102
83.2338196132999
83.2523715440831
83.2254297695408
83.1581190509722
83.0590882345725
82.9369930847836
82.8004390907804
82.6579430747878
82.5179126793798
82.3886432593512
82.2783316049554
82.1951059711251
82.1470720732386
82.1423371834812
82.1845419458537
82.2685732901242
82.388386664036
82.5379701696566
82.7112958350256
82.9022796138702
83.1047500438648
83.312425715917
83.518901877144
83.7176466069338
83.9020070647698
84.065816497169
84.2070443975243
84.3254947716336
84.4210156608822
84.4934924814207
84.5428484366161
84.5690447748754
84.5720808910845
84.5519942711075
84.5088602799951
84.4427917957426
84.3539421883714
84.2426108819098
84.109260189308
83.9543904379927
83.7785302182455
83.5822340277326
83.3660798812867
83.1306669021358
82.8766129101547
82.6045520219799
82.3151322769716
82.0090133020613
81.6874779775931
81.3576873511866
81.029866007352
80.7139512636316
80.4195761796979
80.1561126359627
79.9327357733159
79.7585087140512
79.6424872219066
79.5938448783996
79.6220204701844
79.7368906408929
79.9474469013179
80.2469266437598
80.618750629533
81.0459890054924
81.5112201893264
81.9963155101381
82.4822970450724
82.9492770148901
83.3764892335532
83.7424236047194
84.0250731249207
84.2024337182846
84.2650740542533
84.2261789308996
84.1019301490678
83.9089097831936
83.6638009356108
83.3831525309985
83.0832107564369
82.7798164359231
82.4883654254936
82.2238280032305
82.0008231139033
81.8330061922488
81.7211585669917
81.6553927503208
81.625717055579
81.6222838673269
81.6353144465361
81.6550477279395
81.6717125995188
81.6755235524058
81.6566997507586
81.6055074971371
81.5123257600954
81.3695815776726
81.1844144187285
80.970773359792
80.7424459865688
80.5129463675071
80.2954904327804
80.1030156665461
79.9482427097294
79.8437770435119
79.8022500335471
79.836500241378
79.9597980803365
80.1836336470728
80.5007704514383
80.8950137356136
81.3499349707411
81.8486284328635
82.3734768917205
82.9059849505618
83.4266880451546
83.9151477142188
84.3500449247798
84.7093825730842
84.9713886341472
85.1300459922238
85.1970239129214
85.1855735173581
85.1094183176625
84.9825244627387
84.818912938884
84.6325170535237
84.4370862827028
84.2461359261847
84.0729410185056
83.9305724726771
83.8283657076518
83.7625378590041
83.7264453949765
83.7135408731885
83.7173315957652
83.7313486706665
83.7491261957021
83.7641904508967
83.7700590876852
83.7602503411218
83.7283022639983
83.6681815182078
83.5805430453075
83.4716868423195
83.3480653147221
83.216076955485
83.0820489186678
82.9522294067987
82.8327895876026
82.7298347390456
82.6494243640872
82.5976011148328
82.5804285179073
82.6027921093132
82.6636712800614
82.7603303557849
82.8901047156922
83.0503783612054
83.2385630899359
83.4520794503042
83.6883393385131
83.9447301488982
84.2186004331604
84.5072470643931
84.807925214474
85.1181467622181
85.4356125782141
85.7579623534901
86.0827637560723
86.4075096367897
86.7296166262531
87.0464252382821
87.3552015983501
87.6531409149183
87.9373728062683
88.2052409225819
88.4570007993461
88.6947496956949
88.9206754155895
89.1370247118885
89.3460980974446
89.550245728803
89.7518644404205
89.9533960003715
90.1573266539517
90.3661877689468
90.5813213986667
90.7999714384622
91.0184701467234
91.2330788766807
91.4399893263718
91.6353279610462
91.8151637489908
91.9755193313536
92.1123857135416
92.2217405196053
92.3001232511141
92.3507994568328
92.381544749672
92.4002692484307
92.4149108232006
92.4334212742839
92.4637661591587
92.513938340857
92.5919853797313
92.7060510397359
92.8643156232645
93.0670282560583
93.3011339182908
93.552140544753
93.8052707727349
94.0454299335976
94.2572216459689
94.4250135350161
94.5330550646255
94.5656482110965
94.5073890575872
94.3511556862344
94.1099389447679
93.7999856560168
93.4374899719
93.0383914319751
92.6182298219919
92.1920551645676
91.7743895514605
91.3792366954017
91.0201349508236
90.7093814146112
90.4458004907115
90.2180594377465
90.0148727116653
89.8252057719986
89.6382274473372
89.443289350665
89.229931068345
88.9879099368074
88.7072540618244
88.3783368515946
87.9932529087392
87.5568730319952
87.0809178830157
86.5768510057082
86.0557204404996
85.528108772886
85.0041115067225
84.4933408288336
84.0049518040092
83.5476882490971
83.12994592988
82.7598478527556
82.4428880934168
82.1778188102987
81.9624507673347
81.7948088324154
81.6731105985478
81.5957475029141
81.5612680907797
81.5683631242167
81.6158522795224
81.7026722136936
81.8278658107073
81.9904724636295
82.1858522409469
82.4045209324883
82.6365212656446
82.8716878660393
83.0996254151277
83.3097122673366
83.4911309972218
83.6329271773964
83.7240972136795
83.7537052672449
83.7110281748314
83.5884847648312
83.3922653882643
83.1328324162651
82.8207260854382
82.4664226853118
82.0802204644174
81.6721527223417
81.2519273380149
80.8288912443375
80.4120179033085
80.0099156357085
79.6308546786688
79.2817817950152
78.9634781549693
78.6746085228462
78.4139250309628
78.1802620607297
77.9725288673769
77.7897028852249
77.6308236347694
77.4949871627403
77.3813409548083
77.2890792679601
77.2174388359172
77.1657090364073
77.1336583758519
77.1216091613601
77.1299440076185
77.1590777953951
77.2094598709264
77.2815764332694
77.3759531303332
77.4931578867333
77.6338039893838
77.7985534599201
77.9881207466703
78.2032718661436
78.4428527279595
78.7006857523741
78.969667173689
79.2425071241597
79.5117140730786
79.769592961337
80.0082580261135
80.2196612777386
80.3956374308071
80.5279657914607
80.6084491546059
80.629056501899
80.5877070038116
80.4936916580708
80.3577176659958
80.190506719231
80.002698872053
79.8047851767224
79.6070686674776
79.4196526965186
79.252455357091
79.1152487531215
79.0177221670384
78.9695660753435
78.9763996147
79.0313745468129
79.1254026318847
79.2494440443533
79.3944275782701
79.5511914620985
79.710444832056
79.8627503885024
79.9985290366853
80.1080873808475
80.1816687842461
80.2095354758408
80.1872496722453
80.1248750598046
80.0350018051039
79.9301858864375
79.8228829966771
79.7254217466481
79.6500153439298
79.6088108257552
79.613975320076
79.6778196813724
79.8129612042929
80.0325190787687
80.3431261080405
80.7319554039062
81.1826397937943
81.67835561827
82.20158390304
82.733938517892
83.2560690712287
83.7476489848787
84.1874604890812
84.5535877767735
84.8237268339323
84.978880158207
85.0238457515786
84.97436383321
84.8468457317265
84.6580034421725
84.4245790735833
84.1631394773388
83.8899374535253
83.6208381168453
83.3713072942473
83.1564581754319
82.9910831906275
82.8814831853799
82.8178145160198
82.7885991946194
82.7824991714114
82.7882374691707
82.7945505352813
82.7901713473374
82.7638431783398
82.704363945605
82.6006607364506
82.4418934312455
82.2184519888415
81.9344192783779
81.6043111884338
81.2426667510157
80.8636373887567
80.480907722163
80.1076654691035
79.7566163417865
79.4400398045877
79.1698820968299
78.9578839522298
78.8157418942081
78.7549943541212
78.7759569520583
78.864588558616
79.0061513894473
79.1859508749599
79.3891635065517
79.6007190963256
79.8052385050523
79.9870293363559
80.1301426514137
80.218493348643
80.2360453941457
80.1674426413701
80.0099041969429
79.7752918865077
79.4764955871566
79.126399641166
78.737703996671
78.3227879051126
77.893615412552
77.4616803846075
77.0379878827675
76.6330683076693
76.2570207659211
75.919582520296
75.6288923015726
75.3825929403929
75.1736553738055
74.9952885671751
74.8409077982105
74.7040866985018
74.5785213605075
74.4580057198448
74.3364176458934
74.2077153135956
74.0659434934169
73.9052493902214
73.7199075902552
73.5053991041415
73.2664188984849
73.0122274702733
72.7519044247595
72.4942851418796
72.2479586691653
72.0212863567323
71.8224398024266
71.6594569691594
71.540315800958
71.4730252869418
71.4657347045231
71.526862733278
71.6651044805229
71.8816298228237
72.1657921703876
72.5059744316412
72.8903829528765
73.3068735306964
73.7428137387613
74.1849841949457
74.6195231681524
75.0319201759651
75.4070648250256
75.7293569251409
75.9828826832567
76.1531455220855
76.2403106317449
76.2531835306138
76.2011435057476
76.0938838931986
75.9412606887229
75.753164305951
75.5394164952311
75.3096931998748
75.0734731550499
74.840011348328
74.6183360567215
74.4172680344898
74.2446219317187
74.1021844501456
73.9892214712953
73.905065508538
73.8491213075084
73.8208616162005
73.8198234270393
73.8456046461243
73.8978611506012
73.9763042001532
74.0806981730134
74.2108586007895
74.3666504798207
74.5478134725717
74.7532051425477
74.9813935283338
75.2309483024297
75.5004315886185
75.7883890848758
76.0933416569525
76.4137773912969
76.7481441099022
77.0948423631145
77.4522189294852
77.8185608644137
78.1920805010961
78.5707705729219
78.9524258001557
79.3347500089814
79.7153570666017
80.091770132729
80.4614224309239
80.8216596840758
81.169744356482
81.5028618380778
81.8181286937082
82.112603081263
82.3839561195005
82.6333604399486
82.8632309968875
83.0760744889121
83.2744776784679
83.4610977429084
83.6386540892062
83.8099217671744
83.9777265974638
84.1449421158839
84.3144884253541
84.4891344625059
84.6677181696643
84.8453766744546
85.0170272652331
85.1775069806813
85.3215826160748
85.4439672158354
85.5393432042532
85.6023922045296
85.6278314591771
85.6104565935869
85.5452494651787
85.4315103174026
85.2754688783774
85.0840297001763
84.8640793960278
84.6224364280704
84.3658122256602
84.1007834629131
83.8337751050205
83.5710536904857
83.3187302459157
83.0827722247203
82.8686909189715
82.6790237331353
82.5148173297677
82.3771309990457
82.2670563228289
82.1857248687529
82.1343163790916
82.1140675333097
82.1262813758729
82.1723375154488
82.2537032185365
82.3719448892295
82.5277068486087
82.7185942198615
82.9416603683916
83.1939679998256
83.4725659546711
83.7744679973799
84.0966335350517
84.4359502633434
84.7892187944343
85.1531393744996
85.5243008460098
85.8991720528041
86.2740959224395
86.6452864895508
87.008829144348
87.3606844001011
87.6966954705412
88.0125999304743
88.3040456985524
88.5666115283252
88.7958321210653
