Value(μV)
1083.50244140625
1114.6884765625
1099.42932128906
1102.76721191406
1094.85144042969
986.892272949219
771.546020507813
526.825744628906
308.141571044922
119.308296203613
-52.5490570068359
-197.798080444336
-305.185089111328
-382.244323730469
-434.888763427734
-456.823913574219
-456.919311523438
-457.873016357422
-449.861907958984
-436.033203125
-445.951721191406
-456.251708984375
-444.902648925781
-430.215606689453
-417.912841796875
-400.460052490234
-386.154510498047
-381.004516601563
-370.513763427734
-362.216552734375
-359.641540527344
-340.662841796875
-320.921203613281
-308.332305908203
-287.446197509766
-265.892517089844
-244.148071289063
-222.785110473633
-211.62678527832
-203.901779174805
-193.220306396484
-185.686050415039
-175.576797485352
-157.170318603516
-142.578659057617
-133.423110961914
-121.883293151855
-107.387001037598
-95.084228515625
-84.3073806762695
-70.5740509033203
-63.8981285095215
-57.9851684570313
-44.6333198547363
-40.5323944091797
-39.6740608215332
-32.2351760864258
-26.8944358825684
-14.1148099899292
10.5861072540283
26.3222141265869
28.5157318115234
35.0962867736816
41.6768379211426
41.8675804138184
46.6360969543457
50.7370223999023
51.8814659118652
58.0805358886719
66.4731292724609
75.5333099365234
80.111083984375
79.06201171875
82.2092361450195
86.1194152832031
86.3101577758789
88.4083023071289
97.0870056152344
100.901817321777
93.367561340332
98.0407104492188
109.389778137207
106.337928771973
105.956443786621
111.011077880859
110.438850402832
112.918479919434
116.637924194336
114.34903717041
116.161071777344
119.975891113281
118.068481445313
118.926811218262
121.215698242188
119.785148620605
110.343482971191
102.809226989746
103.572189331055
99.8527450561523
99.4712677001953
104.430519104004
110.438850402832
120.73885345459
121.311073303223
107.387001037598
99.5666351318359
105.670333862305
112.918479919434
114.34903717041
113.20458984375
109.199035644531
108.626815795898
110.724967956543
105.193481445313
103.76293182373
105.193481445313
96.6101531982422
88.5990447998047
83.7351608276367
79.2527542114258
82.3046035766602
81.5416412353516
75.1518249511719
79.9203414916992
80.5879364013672
68.7620162963867
64.8518295288086
65.7101669311523
60.6555366516113
57.0314636230469
54.8379440307617
48.734245300293
43.5842437744141
42.7259140014648
45.5870208740234
48.066650390625
41.4860992431641
34.4286918640137
35.382396697998
33.3796195983887
26.6083240509033
22.6027698516846
22.6981410980225
18.1203651428223
11.4444408416748
14.4009208679199
11.0629596710205
-3.24259161949158
-4.10092449188232
-0.381481349468231
-8.20184898376465
-11.4444408416748
-8.10647869110107
-7.24814605712891
-6.38981294631958
-6.77129411697388
-13.5425882339478
-17.738883972168
-16.9759197235107
-24.4148063659668
-32.04443359375
-27.3712882995605
-20.1231422424316
-18.8833274841309
-25.0823993682861
-27.943510055542
-21.0768451690674
-22.7935104370117
-28.6111011505127
-26.0361022949219
-29.4694347381592
-35.0962867736816
-32.9981384277344
-32.9027671813965
-34.9055442810059
-30.5185089111328
-24.1286964416504
-25.4638805389404
-26.7036952972412
-27.943510055542
-34.6194343566895
-32.4259147644043
-29.8509159088135
-35.382396697998
-35.1916542053223
-38.2435073852539
-45.9685020446777
-47.3036880493164
-54.170352935791
-64.0888671875
-62.5629425048828
-58.4620170593262
-52.3583183288574
-45.2055397033691
-48.4481315612793
-54.7425765991211
-55.6962776184082
-54.4564628601074
-53.5027618408203
-57.7944259643555
-66.4731292724609
-67.8083114624023
-62.0860900878906
-60.274055480957
-62.2768325805664
-59.2249794006348
-51.8814659118652
-47.7805404663086
-41.5814666748047
-37.1944313049316
-35.0962867736816
-30.3277683258057
-30.2323970794678
-35.7638778686523
-47.2083168029785
-46.6360969543457
-37.4805450439453
-46.2546157836914
-47.9712791442871
-36.5268402099609
-41.2953567504883
-44.6333198547363
-33.761100769043
-37.8620262145996
-51.8814659118652
-49.9740562438965
-49.5925750732422
-64.2796096801758
-64.0888671875
-44.9194297790527
-28.2296199798584
-19.8370304107666
-25.6546211242676
-37.0036926269531
-36.7175827026367
-31.9490642547607
-34.7148017883301
-39.5786895751953
-37.8620262145996
-31.3768424987793
-29.5648059844971
-33.761100769043
-31.9490642547607
-22.4120292663574
-18.3111057281494
-21.839807510376
-13.0657367706299
4.7685170173645
3.24259161949158
-6.29444265365601
-8.0111083984375
-12.8749961853027
-22.2212886810303
-26.9898052215576
-22.9842510223389
-13.7333288192749
-8.77407169342041
-2.5749990940094
4.57777643203735
4.67314672470093
5.62685012817383
2.28888821601868
-4.7685170173645
-0.286111027002335
6.19907188415527
9.63240432739258
13.8286991119385
7.0574049949646
1.43055510520935
7.34351634979248
5.43610954284668
5.34073925018311
16.9759197235107
26.0361022949219
39.9601707458496
57.0314636230469
65.5194244384766
73.3397903442383
76.4870147705078
72.3860855102539
61.8953514099121
44.251838684082
26.4175834655762
5.24536848068237
-10.0138854980469
-9.9185152053833
-6.96203470230103
1.52592539787292
8.48795986175537
1.33518481254578
1.62129580974579
17.357400894165
29.0879535675049
37.4805450439453
46.1592445373535
45.7777633666992
41.1046180725098
42.1536903381348
47.5897979736328
43.1073951721191
27.1805477142334
27.943510055542
36.6222114562988
35.2870254516602
25.9407329559326
0.858333051204681
-21.5536975860596
-26.6083240509033
-28.3249912261963
-27.7527694702148
-26.1314735412598
-19.9324016571045
-6.48518323898315
1.62129580974579
2.8611102104187
-2.8611102104187
-11.5398111343384
-15.9268465042114
-21.5536975860596
-25.0823993682861
-23.5564746856689
-25.0823993682861
-22.8888816833496
-16.30832862854
-21.3629570007324
-32.9981384277344
-28.3249912261963
-17.357400894165
-10.5861072540283
-3.43333220481873
-0.47685170173645
-0.381481349468231
1.14444410800934
7.53425693511963
11.0629596710205
-1.23981440067291
-17.8342533111572
-22.3166599273682
-19.2648086547852
-25.6546211242676
-39.5786895751953
-55.4101676940918
-78.2036819458008
-111.011077880859
-164.323089599609
-230.128631591797
-283.345275878906
-311.574890136719
-327.692474365234
-347.338775634766
-351.630432128906
-322.637847900391
-279.72119140625
-230.605484008789
-146.965698242188
-27.4666576385498
86.3101577758789
188.642532348633
327.215637207031
489.822052001953
627.632202148438
798.726623535156
1012.92840576172
1122.69958496094
1116.02368164063
1127.65893554688
1158.17736816406
1131.85522460938
1002.53302001953
753.902526855469
487.723907470703
295.075836181641
128.36848449707
-44.1564674377441
-194.078643798828
-307.187866210938
-382.244323730469
-428.689666748047
-449.289672851563
-453.199859619141
-464.167449951172
-470.652618408203
-475.802612304688
-497.165588378906
-500.885009765625
-478.949859619141
-460.829467773438
-447.382263183594
-430.597076416016
-416.673004150391
-408.852661132813
-403.130432128906
-396.931365966797
-393.307281494141
-390.923034667969
-377.380432128906
-353.061004638672
-323.782318115234
-292.119354248047
-270.088806152344
-256.35546875
-239.2841796875
-220.305480957031
-201.422164916992
-185.113830566406
-174.050872802734
-156.884216308594
-135.902740478516
-120.357368469238
-104.812004089355
-86.4055252075195
-70.0971984863281
-57.3175735473633
-49.6879463195801
-44.4425773620605
-36.6222114562988
-24.5101776123047
-7.24814605712891
10.7768487930298
24.7962875366211
34.2379531860352
38.9110984802246
43.3935050964355
51.6907234191895
58.1759071350098
51.3092422485352
36.2407302856445
34.7148017883301
46.2546157836914
55.5055389404297
62.4675712585449
77.5360870361328
93.4629364013672
101.283302307129
108.054595947266
118.640701293945
124.93514251709
117.305519104004
104.812004089355
96.9916381835938
97.849967956543
109.00830078125
116.44718170166
120.548110961914
131.801803588867
140.861999511719
152.592544555664
164.036987304688
157.074951171875
147.34716796875
142.960144042969
131.134216308594
123.313850402832
130.752731323242
142.483291625977
151.448104858398
152.592544555664
140.575881958008
132.850875854492
141.624954223633
141.052734375
129.417556762695
136.66569519043
145.43977355957
136.570327758789
132.755508422852
133.423110961914
122.741630554199
118.068481445313
127.319404602051
128.940704345703
118.926811218262
111.487930297852
110.724967956543
109.389778137207
109.675888061523
108.340705871582
97.9453353881836
88.0268249511719
80.2064590454102
70.1925735473633
71.4323883056641
90.0296020507813
100.424964904785
96.5147857666016
96.0379333496094
89.3620071411133
68.9527587890625
57.7944259643555
57.3175735473633
49.5925750732422
42.0583190917969
41.3907279968262
38.9110984802246
37.4805450439453
41.7722091674805
43.2981338500977
40.6277656555176
38.2435073852539
27.8481388092041
15.5453653335571
13.256477355957
15.5453653335571
15.2592544555664
8.48795986175537
4.57777643203735
3.147221326828
-1.71666610240936
-6.1037015914917
-12.302773475647
-11.7305517196655
-9.537034034729
-20.0277709960938
-29.6601753234863
-37.8620262145996
-45.9685020446777
-47.3036880493164
-45.2055397033691
-43.9657249450684
-47.8759117126465
-45.6823921203613
-36.3360977172852
-34.0472106933594
-32.7120246887207
-31.2814712524414
-34.4286918640137
-32.04443359375
-34.5240631103516
-45.4916534423828
-47.3990592956543
-53.0259094238281
-60.6555366516113
-54.0749816894531
-49.783317565918
-54.8379440307617
-57.5083160400391
-56.6499824523926
-56.936092376709
-56.1731300354004
-54.6472053527832
-60.8462753295898
-67.6175689697266
-66.0916442871094
-64.8518295288086
-62.3722038269043
-57.9851684570313
-56.1731300354004
-56.5546112060547
-61.2277565002441
-61.2277565002441
-62.2768325805664
-67.903678894043
-53.5981292724609
-40.4370231628418
-51.1185035705566
-62.1814613342285
-70.2879409790039
-74.198127746582
-70.3833084106445
-72.7675704956055
-80.111083984375
-84.3073806762695
-83.0675659179688
-79.2527542114258
-75.5333099365234
-73.8166427612305
-78.7759017944336
-75.247200012207
-55.219425201416
-46.0638732910156
-47.3990592956543
-35.6685066223145
-21.2675857543945
-16.1175880432129
-18.9786968231201
-29.1833248138428
-35.8592491149902
-35.8592491149902
-37.2898025512695
-38.148136138916
-39.1018409729004
-42.630542755127
-41.6768379211426
-46.0638732910156
-64.9472045898438
-71.8138656616211
-63.3259048461914
-63.5166473388672
-59.701831817627
-46.0638732910156
-42.0583190917969
-43.7749862670898
-38.3388748168945
-35.1916542053223
-40.8185043334961
-42.8212814331055
-35.0962867736816
-23.0796222686768
-16.5944385528564
-28.8972129821777
-43.8703575134277
-43.2981338500977
-42.3444290161133
-40.5323944091797
-35.7638778686523
-33.5703582763672
-29.7555465698242
-29.5648059844971
-28.3249912261963
-22.2212886810303
-18.5018463134766
-15.9268465042114
-13.1611070632935
-12.588885307312
-10.8722190856934
-7.43888664245605
-9.44166374206543
-10.4907369613647
-11.635181427002
-26.1314735412598
-34.6194343566895
-20.1231422424316
-2.8611102104187
-0.9537034034729
-7.43888664245605
-5.7222204208374
5.1499981880188
17.738883972168
32.6166572570801
43.1073951721191
40.3416519165039
33.2842483520508
33.1888771057129
29.3740653991699
19.7416610717773
17.8342533111572
14.3055505752563
9.72777462005615
12.1120328903198
7.6296272277832
8.96481227874756
19.9324016571045
24.891658782959
27.3712882995605
23.8425846099854
28.5157318115234
44.5379486083984
45.300910949707
46.3499870300293
62.0860900878906
67.5222015380859
58.4620170593262
48.734245300293
35.4777679443359
17.357400894165
15.4499950408936
25.4638805389404
11.0629596710205
-22.9842510223389
-38.2435073852539
-26.6083240509033
-18.2157344818115
-23.1749935150146
-22.125919342041
-18.0249938964844
-17.6435127258301
-19.9324016571045
-23.7472152709961
-17.1666603088379
-8.67870044708252
-8.77407169342041
-13.5425882339478
-16.6898097991943
-15.2592544555664
-17.4527721405029
-12.302773475647
-2.09814739227295
-6.48518323898315
-8.58333015441895
-8.3925895690918
-19.6462898254395
-20.9814739227295
-9.25092315673828
-8.0111083984375
-11.0629596710205
-6.48518323898315
-0.381481349468231
6.48518323898315
9.15555286407471
2.8611102104187
-0.0953703373670578
-2.47962880134583
-12.9703664779663
-32.2351760864258
-73.6259002685547
-132.850875854492
-188.451797485352
-230.70085144043
-252.445281982422
-263.031402587891
-266.178619384766
-257.786041259766
-237.18603515625
-192.743453979492
-130.085144042969
-42.5351715087891
89.3620071411133
217.82585144043
314.245269775391
436.223937988281
585.097045898438
731.109008789063
899.91455078125
1038.67834472656
1075.96813964844
1068.91076660156
1062.80700683594
1042.39782714844
956.183044433594
734.256225585938
455.584106445313
246.341583251953
85.0703430175781
-76.2009048461914
-222.403625488281
-333.605438232422
-401.509124755859
-438.035980224609
-455.870239257813
-449.003570556641
-437.559112548828
-421.727630615234
-396.263763427734
-395.500793457031
-398.648010253906
-392.258209228516
-396.835998535156
-377.571166992188
-342.379516601563
-329.981384277344
-327.311004638672
-317.773986816406
-309.190643310547
-304.803619384766
-293.645263671875
-285.252685546875
-279.625823974609
-263.508239746094
-249.011962890625
-232.608261108398
-204.569381713867
-182.252716064453
-168.424026489258
-149.063842773438
-136.856430053711
-141.720321655273
-136.951812744141
-117.686996459961
-109.199035644531
-102.999969482422
-91.8416366577148
-90.4110794067383
-92.5092315673828
-85.2610855102539
-72.0999755859375
-69.3342361450195
-75.8194198608398
-65.4240493774414
-39.6740608215332
-14.9731435775757
0.762962698936462
1.43055510520935
8.48795986175537
27.8481388092041
33.8564720153809
34.6194343566895
37.4805450439453
35.1916542053223
42.7259140014648
56.5546112060547
60.9416465759277
69.2388687133789
82.876823425293
78.2036819458008
65.5194244384766
67.3314590454102
71.3370132446289
74.0073852539063
81.7323837280273
86.4055252075195
95.5610809326172
110.534225463867
117.305519104004
116.637924194336
113.299964904785
109.103668212891
98.2314529418945
87.0731201171875
81.7323837280273
75.247200012207
78.012939453125
91.269416809082
103.953666687012
116.828666687012
131.038848876953
139.336059570313
141.624954223633
146.774948120117
145.43977355957
126.747184753418
114.158294677734
117.019409179688
120.643478393555
119.403663635254
113.299964904785
109.389778137207
111.774040222168
108.245338439941
91.6508941650391
78.2990493774414
74.1027526855469
64.1842422485352
56.6499824523926
62.8490524291992
72.6721954345703
82.3999710083008
88.1221923828125
88.7897872924805
86.7870101928711
80.5879364013672
75.0564575195313
73.1490478515625
74.0073852539063
76.4870147705078
78.2036819458008
77.2499771118164
74.9610900878906
71.1462707519531
60.8462753295898
52.5490570068359
51.9768333435059
39.2925796508789
15.0685138702393
2.95648050308228
-0.667592406272888
-3.147221326828
0.858333051204681
10.1092557907104
21.839807510376
21.4583263397217
10.5861072540283
12.2074031829834
16.6898097991943
14.9731435775757
11.1583299636841
3.05185079574585
4.67314672470093
14.8777732849121
13.9240694046021
5.62685012817383
-3.71944332122803
-7.6296272277832
-6.58055353164673
-13.1611070632935
-20.9814739227295
-22.3166599273682
-20.0277709960938
-14.3055505752563
-12.302773475647
-11.2537002563477
-3.147221326828
2.1935179233551
-4.29166507720947
-13.3518476486206
-16.9759197235107
-19.8370304107666
-18.2157344818115
-20.3138828277588
-23.6518440246582
-7.6296272277832
0.9537034034729
-9.25092315673828
-16.022216796875
-25.6546211242676
-33.1888771057129
-34.1425819396973
-33.1888771057129
-23.0796222686768
-21.839807510376
-33.0935096740723
-31.0907306671143
-31.1861019134521
-45.0148010253906
-46.7314682006836
-36.8129501342773
-27.5620288848877
-18.1203651428223
-11.1583299636841
-11.2537002563477
-17.0712909698486
-16.5944385528564
-14.5916624069214
-23.4611034393311
-28.8018417358398
-27.4666576385498
-24.5101776123047
-19.9324016571045
-24.0333251953125
-28.9925842285156
-28.8018417358398
-30.2323970794678
-26.4175834655762
-18.787956237793
-14.8777732849121
-11.7305517196655
-16.022216796875
-27.8481388092041
-36.2407302856445
-37.5759124755859
-36.8129501342773
-36.6222114562988
-32.5212860107422
-32.2351760864258
-34.9055442810059
-37.9573936462402
-34.0472106933594
-20.409252166748
-20.7907333374023
-26.8944358825684
-23.2703628540039
-24.7009181976318
-26.4175834655762
-23.1749935150146
-21.4583263397217
-19.2648086547852
-18.5018463134766
-22.0305480957031
-29.7555465698242
-35.1916542053223
-32.3305435180664
-25.8453617095947
-25.2731399536133
-28.8972129821777
-24.891658782959
-19.360179901123
-12.7796258926392
-3.43333220481873
-8.48795986175537
-20.2185115814209
-19.7416610717773
-19.8370304107666
-35.7638778686523
-52.8351669311523
-47.8759117126465
-29.8509159088135
-34.2379531860352
-48.8296127319336
-41.1046180725098
-30.8046188354492
-29.7555465698242
-25.0823993682861
-17.5481433868408
-13.4472179412842
-18.2157344818115
-24.7009181976318
-24.9870281219482
-23.9379558563232
-23.7472152709961
-23.7472152709961
-20.6953639984131
-16.7851791381836
-23.5564746856689
-21.4583263397217
-7.34351634979248
-2.95648050308228
-1.81203651428223
1.62129580974579
9.537034034729
13.5425882339478
6.96203470230103
6.86666440963745
11.635181427002
13.9240694046021
17.6435127258301
14.2101802825928
6.58055353164673
3.91018390655518
0.47685170173645
4.10092449188232
11.9212923049927
10.9675893783569
19.1694374084473
29.6601753234863
31.9490642547607
41.5814666748047
49.2110939025879
47.3990592956543
35.382396697998
24.0333251953125
26.5129547119141
19.6462898254395
2.09814739227295
-1.52592539787292
-6.19907188415527
-18.9786968231201
-21.0768451690674
-15.5453653335571
-6.00833129882813
0.858333051204681
-3.91018390655518
-5.91296100616455
-9.72777462005615
-24.891658782959
-24.7962875366211
-19.5509204864502
-32.9027671813965
-40.2462844848633
-37.5759124755859
-40.6277656555176
-41.0092468261719
-43.679615020752
-53.2166481018066
-50.832389831543
-39.9601707458496
-35.7638778686523
-30.3277683258057
-26.7990646362305
-29.6601753234863
-30.5185089111328
-30.3277683258057
-32.3305435180664
-28.9925842285156
-20.8861045837402
-20.1231422424316
-20.3138828277588
-14.3055505752563
-18.0249938964844
-28.9925842285156
-33.0935096740723
-30.6138782501221
-25.2731399536133
-26.3222141265869
-36.2407302856445
-56.8407211303711
-104.525894165039
-173.09716796875
-222.880477905273
-247.104553222656
-268.276763916016
-278.004547119141
-268.467498779297
-253.017517089844
-230.128631591797
-191.312896728516
-119.022186279297
-1.04907369613647
136.951812744141
266.178619384766
402.748931884766
551.526672363281
689.241455078125
845.171936035156
1021.51171875
1133.1904296875
1145.58850097656
1121.17370605469
1110.20617675781
1065.00061035156
921.945068359375
689.718322753906
421.727630615234
187.402725219727
8.67870044708252
-144.581436157227
-279.244354248047
-384.247100830078
-453.772064208984
-485.244293212891
-491.729461669922
-494.781311035156
-489.631317138672
-471.797058105469
-476.851684570313
-504.509094238281
-509.468353271484
-490.775756835938
-472.27392578125
-462.832244873047
-445.379486083984
-420.392456054688
-405.991546630859
-391.209136962891
-381.290618896484
-381.481353759766
-373.851745605469
-360.690612792969
-340.567474365234
-309.762878417969
-285.824920654297
-267.036956787109
-238.330474853516
-207.621231079102
-190.931427001953
-188.737899780273
-190.454574584961
-178.914764404297
-160.41291809082
-152.974029541016
-137.810134887695
-109.485153198242
-92.5092315673828
-82.0184936523438
-67.5222015380859
-60.6555366516113
-54.7425765991211
-43.2027626037598
-41.1046180725098
-40.0555419921875
-27.2759170532227
-15.7361059188843
-5.24536848068237
7.82036781311035
17.0712909698486
28.1342506408691
37.3851737976074
38.148136138916
41.2953567504883
53.8842430114746
64.5657196044922
67.5222015380859
75.7240524291992
86.5009002685547
90.0296020507813
94.702751159668
100.52033996582
99.948112487793
100.711082458496
107.673110961914
113.013854980469
111.964782714844
104.907371520996
104.335151672363
117.210144042969
130.561996459961
135.330505371094
133.136993408203
131.229583740234
130.27587890625
127.510147094727
129.036071777344
132.660140991211
137.142547607422
140.003662109375
134.949035644531
128.940704345703
135.521255493164
153.73698425293
160.889770507813
146.774948120117
135.425888061523
132.183288574219
124.839775085449
124.076812744141
135.902740478516
143.15087890625
142.197174072266
141.338836669922
140.289764404297
134.66291809082
119.975891113281
107.005523681641
102.141632080078
99.3758926391602
105.288856506348
113.395332336426
114.158294677734
119.499038696289
124.839775085449
119.403663635254
105.956443786621
90.6018218994141
82.6860809326172
78.1083068847656
73.7212753295898
67.903678894043
60.9416465759277
61.8953514099121
57.2222023010254
50.9277610778809
58.2712783813477
54.170352935791
37.099063873291
38.9110984802246
48.4481315612793
47.2083168029785
41.6768379211426
40.5323944091797
39.5786895751953
29.4694347381592
20.2185115814209
11.4444408416748
0
-2.09814739227295
-4.86388731002808
-6.77129411697388
7.72499752044678
17.2620315551758
7.15277528762817
-2.5749990940094
-3.147221326828
-4.38703584671021
-13.256477355957
-20.8861045837402
-19.360179901123
-21.7444381713867
-19.1694374084473
-10.6814785003662
-14.5916624069214
-12.7796258926392
-8.96481227874756
-14.3055505752563
-12.7796258926392
-15.6407356262207
-27.943510055542
-30.8999900817871
-21.6490669250488
-13.6379585266113
-10.9675893783569
-11.2537002563477
-18.1203651428223
-28.0388793945313
-35.8592491149902
-37.4805450439453
-32.5212860107422
-26.7036952972412
-25.9407329559326
-21.6490669250488
-14.3055505752563
-18.8833274841309
-25.6546211242676
-26.8944358825684
-32.04443359375
-37.1944313049316
-40.6277656555176
-45.300910949707
-52.7397994995117
-53.3120193481445
-44.3472061157227
-46.7314682006836
-52.6444282531738
-45.1101722717285
-47.2083168029785
-52.5490570068359
-37.8620262145996
-30.3277683258057
-33.3796195983887
-28.5157318115234
-32.6166572570801
-41.2953567504883
-35.6685066223145
-31.7583236694336
-39.197208404541
-42.2490615844727
-44.1564674377441
-51.2138710021973
-45.300910949707
-34.9055442810059
-43.9657249450684
-55.6962776184082
-51.9768333435059
-47.2083168029785
-45.1101722717285
-38.4342460632324
-36.3360977172852
-39.2925796508789
-32.9027671813965
-25.7499923706055
-28.3249912261963
-24.9870281219482
-17.5481433868408
-16.9759197235107
-14.9731435775757
-12.9703664779663
-22.0305480957031
-36.431468963623
-43.7749862670898
-40.913875579834
-39.0064697265625
-39.7694320678711
-28.1342506408691
-15.4499950408936
-12.1120328903198
-3.05185079574585
3.8148136138916
5.7222204208374
12.4935140609741
5.24536848068237
-13.5425882339478
-22.5074005126953
-27.7527694702148
-31.4722118377686
-30.8999900817871
-25.5592517852783
-13.5425882339478
-11.1583299636841
-14.9731435775757
-6.1037015914917
-4.67314672470093
-14.3055505752563
-15.9268465042114
-18.787956237793
-22.2212886810303
-18.8833274841309
-16.5944385528564
-14.1148099899292
-12.2074031829834
-13.3518476486206
-15.35462474823
-17.0712909698486
-18.8833274841309
-20.5046234130859
-22.0305480957031
-24.891658782959
-28.3249912261963
-31.0907306671143
-32.5212860107422
-35.9546165466309
-38.3388748168945
-28.8018417358398
-14.1148099899292
-11.9212923049927
-13.256477355957
-11.7305517196655
-12.0166625976563
-8.67870044708252
-0.858333051204681
-1.71666610240936
-14.7824029922485
-22.8888816833496
-20.5999927520752
-18.2157344818115
-13.9240694046021
-3.05185079574585
8.29721927642822
17.9296245574951
25.0823993682861
31.2814712524414
35.6685066223145
33.6657295227051
31.0907306671143
24.0333251953125
0.9537034034729
-17.6435127258301
-16.1175880432129
-7.43888664245605
-1.52592539787292
-9.25092315673828
-26.4175834655762
-30.3277683258057
-29.3740653991699
-38.148136138916
-40.0555419921875
-38.3388748168945
-49.0203552246094
-54.8379440307617
-59.9879455566406
-75.0564575195313
-74.0073852539063
-67.2360916137695
-76.9638671875
-80.4925689697266
-75.3425674438477
-78.1083068847656
-77.2499771118164
-70.0971984863281
-67.8083114624023
-68.3805313110352
-74.1027526855469
-78.8712692260742
-71.3370132446289
-70.5740509033203
-86.7870101928711
-93.4629364013672
-87.0731201171875
-77.8221969604492
-62.1814613342285
-52.9305381774902
-53.3120193481445
-46.3499870300293
-37.9573936462402
-33.6657295227051
-21.0768451690674
-3.33796191215515
0.190740674734116
-7.6296272277832
-10.8722190856934
-18.5018463134766
-51.9768333435059
-112.060150146484
-183.77864074707
-236.709182739258
-258.167510986328
-279.053619384766
-303.754547119141
-302.800842285156
-272.282318115234
-232.226776123047
-185.495315551758
-114.25366973877
2.00277709960938
141.911071777344
256.069366455078
374.423950195313
534.169250488281
691.721069335938
838.305297851563
1005.39410400391
1142.25061035156
1173.72277832031
1147.30517578125
1135.28857421875
1077.494140625
915.269165039063
697.157165527344
460.161895751953
236.136962890625
58.7481307983398
-98.2314529418945
-239.570297241211
-344.09619140625
-419.534118652344
-457.396148681641
-455.011901855469
-442.518371582031
-426.782257080078
-410.855438232422
-417.817443847656
-434.507263183594
-431.741516113281
-416.57763671875
-394.928588867188
-372.898040771484
-357.066558837891
-339.327667236328
-323.496185302734
-314.531372070313
-311.956390380859
-310.430450439453
-302.133239746094
-295.361938476563
-283.059173583984
-257.404541015625
-238.139739990234
-220.686965942383
-193.887893676758
-177.48420715332
-169.473098754883
-150.780502319336
-134.949035644531
-129.703659057617
-111.1064453125
-89.3620071411133
-80.3971939086914
-62.1814613342285
-42.9166526794434
-40.3416519165039
-35.382396697998
-23.4611034393311
-15.9268465042114
-14.1148099899292
-18.0249938964844
-15.5453653335571
6.48518323898315
28.6111011505127
36.5268402099609
44.7286911010742
56.6499824523926
68.2851638793945
73.0536804199219
66.7592391967773
63.6120147705078
69.7157211303711
73.3397903442383
78.8712692260742
90.7925643920898
99.7573776245117
103.381446838379
105.002746582031
112.918479919434
122.074035644531
119.308296203613
120.262001037598
131.324951171875
138.000885009766
145.2490234375
152.306427001953
146.488845825195
143.246246337891
147.251800537109
143.341613769531
146.584213256836
159.649948120117
158.1240234375
146.584213256836
142.292541503906
145.43977355957
153.73698425293
161.175872802734
158.791610717773
152.306427001953
152.401809692383
151.543472290039
142.960144042969
136.856430053711
132.850875854492
130.180511474609
130.561996459961
133.423110961914
140.861999511719
143.436996459961
141.720321655273
149.063842773438
152.211059570313
133.899963378906
115.779594421387
110.152740478516
103.286079406738
102.61848449707
104.812004089355
101.569412231445
97.4684906005859
90.220344543457
84.7842330932617
82.4953460693359
75.6286773681641
69.8110885620117
67.3314590454102
58.652759552002
49.0203552246094
45.0148010253906
43.1073951721191
35.382396697998
28.1342506408691
30.2323970794678
24.1286964416504
14.687032699585
12.0166625976563
2.47962880134583
-2.67036962509155
-1.33518481254578
-8.29721927642822
-12.8749961853027
-7.91573810577393
-4.29166507720947
-15.0685138702393
-29.5648059844971
-30.2323970794678
-31.9490642547607
-35.6685066223145
-28.9925842285156
-29.3740653991699
-36.1453590393066
-37.5759124755859
-41.0092468261719
-41.1999855041504
-38.7203598022461
-42.7259140014648
-45.4916534423828
-45.2055397033691
-47.2083168029785
-50.5462799072266
-54.9333152770996
-54.7425765991211
-51.7860946655273
-58.0805358886719
-61.0370178222656
-54.5518341064453
-57.9851684570313
-69.0481262207031
-67.6175689697266
-59.1296119689941
-51.8814659118652
-38.4342460632324
-39.5786895751953
-57.1268348693848
-62.1814613342285
-54.9333152770996
-54.2657241821289
-61.6092376708984
-64.6610870361328
-64.1842422485352
-65.805534362793
-66.6638641357422
-65.7101669311523
-59.701831817627
-45.3962821960449
-40.1509132385254
-46.5407257080078
-44.0610961914063
-36.0499877929688
-36.3360977172852
-43.2981338500977
-49.5925750732422
-43.3935050964355
-31.7583236694336
-37.1944313049316
-50.2601699829102
-56.0777587890625
-61.7999801635742
-65.7101669311523
-64.6610870361328
-63.039794921875
-62.2768325805664
-59.3203506469727
-60.8462753295898
-67.0453491210938
-62.1814613342285
-54.5518341064453
-56.0777587890625
-53.9796104431152
-55.219425201416
-65.2333145141602
-65.3286819458008
-56.6499824523926
-54.7425765991211
-54.9333152770996
-53.5981292724609
-55.4101676940918
-49.9740562438965
-40.913875579834
-39.7694320678711
-35.7638778686523
-29.5648059844971
-25.9407329559326
-23.8425846099854
-27.3712882995605
-24.2240657806396
-16.4036979675293
-14.5916624069214
-9.44166374206543
-12.6842555999756
-22.7935104370117
-22.0305480957031
-33.1888771057129
-48.8296127319336
-38.148136138916
-17.8342533111572
-11.0629596710205
-20.9814739227295
-30.1370277404785
-18.9786968231201
-3.24259161949158
2.5749990940094
-1.81203651428223
-22.9842510223389
-36.431468963623
-32.1398048400879
-37.2898025512695
-42.3444290161133
-38.2435073852539
-38.6249885559082
-35.7638778686523
-28.4203605651855
-20.9814739227295
-7.15277528762817
0
-3.71944332122803
-8.0111083984375
-13.256477355957
-11.9212923049927
-0.286111027002335
14.4009208679199
27.0851764678955
38.0527648925781
43.7749862670898
36.9083213806152
24.9870281219482
12.4935140609741
-1.33518481254578
-13.256477355957
-27.0851764678955
-35.5731353759766
-25.3685111999512
-23.9379558563232
-36.2407302856445
-35.1916542053223
-37.6712837219238
-45.6823921203613
-32.8073959350586
-5.24536848068237
14.4962921142578
28.6111011505127
52.7397994995117
74.198127746582
73.9120101928711
53.9796104431152
33.5703582763672
29.1833248138428
27.5620288848877
24.3194370269775
22.2212886810303
12.4935140609741
3.33796191215515
6.6759238243103
17.5481433868408
26.7990646362305
39.5786895751953
50.355541229248
47.2083168029785
40.3416519165039
30.5185089111328
5.81759071350098
-24.3194370269775
-30.8046188354492
-19.2648086547852
-21.0768451690674
-26.226842880249
-17.357400894165
-15.2592544555664
-28.6111011505127
-28.2296199798584
-26.6083240509033
-48.8296127319336
-61.99072265625
-62.4675712585449
-65.5194244384766
-46.9222068786621
-22.125919342041
-10.9675893783569
18.8833274841309
47.4944305419922
34.9055442810059
18.8833274841309
13.7333288192749
0.9537034034729
0.667592406272888
12.8749961853027
3.24259161949158
-15.8314762115479
-17.357400894165
-7.82036781311035
6.86666440963745
7.34351634979248
-11.9212923049927
-10.5861072540283
6.96203470230103
5.43610954284668
8.48795986175537
33.5703582763672
47.6851692199707
41.7722091674805
10.7768487930298
-61.8953514099121
-150.971252441406
-219.733261108398
-257.881408691406
-282.963806152344
-310.335083007813
-315.389709472656
-290.879547119141
-256.546203613281
-193.983276367188
-84.3073806762695
44.5379486083984
157.361053466797
258.167510986328
389.587829589844
541.894287109375
682.184020996094
845.171936035156
1001.77001953125
1063.09313964844
1068.05249023438
1096.37744140625
1108.58483886719
1041.92102050781
880.554321289063
647.75537109375
420.964691162109
233.752700805664
73.9120101928711
-67.903678894043
-202.280487060547
-302.228607177734
-362.693389892578
-398.934143066406
-407.326721191406
-418.294311523438
-426.496154785156
-413.430419921875
-426.686889648438
-456.347076416016
-461.973937988281
-453.962829589844
-431.836883544922
-398.552642822266
-378.334136962891
-378.143402099609
-377.571166992188
-364.791564941406
-357.257293701172
-355.731353759766
-341.902679443359
-325.308227539063
-301.942504882813
-261.219360351563
-236.232330322266
-223.643447875977
-202.661972045898
-194.55549621582
-189.691604614258
-175.481430053711
-165.562911987305
-159.554580688477
-152.211059570313
-143.15087890625
-132.755508422852
-127.986999511719
-129.036071777344
-125.125885009766
-118.354591369629
-103.381446838379
-72.4814605712891
-47.017578125
-33.3796195983887
-19.8370304107666
-5.34073925018311
12.9703664779663
33.5703582763672
52.453685760498
71.0509033203125
83.7351608276367
90.1249694824219
95.4657135009766
91.9370040893555
78.4897918701172
67.3314590454102
66.854606628418
74.0073852539063
75.4379425048828
66.1870193481445
54.5518341064453
52.453685760498
53.8842430114746
46.5407257080078
43.4888763427734
49.5925750732422
56.5546112060547
73.6259002685547
90.4110794067383
96.6101531982422
105.956443786621
103.476821899414
80.9694213867188
49.4972076416016
33.6657295227051
49.4018363952637
56.936092376709
54.3610954284668
70.8601608276367
75.247200012207
62.5629425048828
60.274055480957
65.137939453125
64.9472045898438
57.0314636230469
57.1268348693848
62.4675712585449
60.9416465759277
68.9527587890625
84.7842330932617
90.0296020507813
84.2120132446289
80.4925689697266
81.9231185913086
88.6944122314453
101.760154724121
107.100891113281
102.332374572754
86.5009002685547
64.5657196044922
49.4018363952637
35.8592491149902
32.8073959350586
49.9740562438965
66.5684967041016
65.7101669311523
59.2249794006348
52.5490570068359
40.913875579834
41.8675804138184
55.7916488647461
67.1407165527344
70.4786834716797
59.0342407226563
40.913875579834
26.7990646362305
14.5916624069214
11.8259220123291
23.0796222686768
39.6740608215332
55.1240577697754
57.1268348693848
39.864803314209
22.8888816833496
19.9324016571045
31.7583236694336
42.630542755127
32.4259147644043
13.6379585266113
13.0657367706299
27.5620288848877
32.2351760864258
33.4749908447266
40.7231369018555
39.864803314209
28.6111011505127
21.839807510376
18.6925868988037
10.7768487930298
3.91018390655518
-3.5287024974823
6.00833129882813
24.7009181976318
12.7796258926392
-9.34629344940186
-28.1342506408691
-46.9222068786621
-56.5546112060547
-56.2685012817383
-43.8703575134277
-36.9083213806152
-32.5212860107422
-25.9407329559326
-26.4175834655762
-16.9759197235107
4.38703584671021
24.7009181976318
29.278694152832
11.635181427002
-2.38425850868225
-6.86666440963745
-3.8148136138916
4.57777643203735
-3.5287024974823
-17.0712909698486
-15.8314762115479
-12.3981437683105
-24.891658782959
-45.5870208740234
-52.453685760498
-42.0583190917969
-22.6027698516846
-7.0574049949646
-9.06018257141113
-10.8722190856934
12.302773475647
29.5648059844971
21.5536975860596
9.44166374206543
-5.43610954284668
-32.5212860107422
-59.9879455566406
-71.9092330932617
-65.9009017944336
-42.630542755127
-17.357400894165
-5.05462789535522
-0.0953703373670578
7.53425693511963
5.43610954284668
-9.72777462005615
-3.05185079574585
14.4962921142578
3.147221326828
-20.6953639984131
-43.3935050964355
-58.9388694763184
-57.7944259643555
-59.9879455566406
-54.7425765991211
-40.4370231628418
-36.7175827026367
-36.9083213806152
-38.6249885559082
-31.6629524230957
-21.4583263397217
-28.6111011505127
-35.7638778686523
-25.2731399536133
-13.8286991119385
-12.588885307312
-11.3490705490112
-9.15555286407471
-10.0138854980469
-18.2157344818115
-34.1425819396973
-35.9546165466309
-21.9351787567139
-12.1120328903198
-6.29444265365601
4.48240613937378
10.6814785003662
5.1499981880188
-2.00277709960938
-9.06018257141113
-16.8805503845215
-19.9324016571045
-17.6435127258301
-11.3490705490112
2.09814739227295
10.4907369613647
5.53147983551025
2.38425850868225
-2.95648050308228
-10.1092557907104
-6.58055353164673
-6.96203470230103
-14.0194396972656
-10.9675893783569
-2.8611102104187
6.77129411697388
14.7824029922485
16.9759197235107
21.0768451690674
20.5999927520752
9.34629344940186
-6.00833129882813
-17.4527721405029
-22.2212886810303
-26.226842880249
-31.2814712524414
-38.8157272338867
-41.1046180725098
-36.7175827026367
-44.7286911010742
-54.3610954284668
-42.8212814331055
-24.0333251953125
-6.1037015914917
12.588885307312
17.5481433868408
10.1092557907104
10.1092557907104
6.58055353164673
-9.44166374206543
-18.3111057281494
-11.635181427002
0.190740674734116
6.29444265365601
8.96481227874756
12.3981437683105
5.43610954284668
2.28888821601868
12.4935140609741
13.6379585266113
19.360179901123
40.8185043334961
46.0638732910156
33.8564720153809
28.0388793945313
21.839807510376
10.4907369613647
10.0138854980469
16.4990692138672
19.6462898254395
30.4231376647949
47.017578125
43.2981338500977
20.6953639984131
1.71666610240936
-14.8777732849121
-33.2842483520508
-49.4018363952637
-60.8462753295898
-66.5684967041016
-76.8684921264648
-82.3999710083008
-76.9638671875
-71.3370132446289
-63.8981285095215
-50.355541229248
-33.761100769043
-24.891658782959
-30.4231376647949
-38.6249885559082
-42.9166526794434
-47.7805404663086
-51.4999847412109
-48.9249839782715
-42.8212814331055
-38.9110984802246
-35.8592491149902
-35.0962867736816
-34.9055442810059
-28.8972129821777
-25.177770614624
-30.995361328125
-30.70924949646
-16.7851791381836
-8.48795986175537
-10.2999963760376
-11.8259220123291
-17.4527721405029
-30.6138782501221
-51.2138710021973
-92.318489074707
-169.473098754883
-241.000854492188
-265.129547119141
-278.672119140625
-293.263793945313
-286.206390380859
-263.985107421875
-234.134185791016
-200.373077392578
-154.690689086914
-62.9444236755371
68.8573837280273
185.304565429688
287.350830078125
426.496154785156
573.080383300781
712.893310546875
892.761779785156
1041.15795898438
1089.12927246094
1100.47839355469
1118.78942871094
1117.83569335938
1028.66442871094
814.27197265625
548.379455566406
343.619323730469
199.705490112305
47.5897979736328
-102.52311706543
-222.975860595703
-316.438781738281
-372.611907958984
-393.593383789063
-407.708190917969
-426.019317626953
-427.640594482422
-421.250793457031
-435.7470703125
-444.998016357422
-432.313751220703
-418.008209228516
-401.985992431641
-383.198028564453
-364.791564941406
-348.101745605469
-337.992492675781
-343.523956298828
-347.052673339844
-334.082305908203
-325.498962402344
-313.863800048828
-290.974914550781
-272.949920654297
-258.644348144531
-242.336029052734
-228.69807434082
-218.0166015625
-208.670303344727
-206.095306396484
-203.615676879883
-189.500869750977
-162.51106262207
-130.943481445313
-104.62126159668
-90.0296020507813
-86.7870101928711
-80.8740463256836
-72.0046081542969
-67.5222015380859
-61.7999801635742
-55.1240577697754
-54.3610954284668
-52.6444282531738
-38.9110984802246
-28.4203605651855
-22.6027698516846
-4.95925760269165
5.81759071350098
3.5287024974823
10.8722190856934
19.8370304107666
24.3194370269775
35.0009155273438
38.8157272338867
38.9110984802246
52.7397994995117
67.0453491210938
72.7675704956055
76.1055297851563
80.778678894043
79.1573791503906
69.7157211303711
68.3805313110352
65.9009017944336
54.9333152770996
55.5055389404297
67.4268264770508
74.4842376708984
75.5333099365234
79.2527542114258
86.2147903442383
95.2749710083008
104.430519104004
109.485153198242
108.912925720215
101.664779663086
93.2721939086914
92.0323791503906
100.52033996582
107.291633605957
105.288856506348
110.820335388184
118.068481445313
114.444404602051
110.534225463867
115.016632080078
126.174957275391
135.235137939453
140.385147094727
140.003662109375
136.76106262207
135.711990356445
134.472183227539
132.374038696289
126.747184753418
122.93236541748
116.065704345703
107.95922088623
109.96199798584
108.626815795898
106.051818847656
112.823112487793
117.019409179688
113.490707397461
108.817558288574
100.615707397461
87.7407150268555
76.6777496337891
72.9583129882813
73.0536804199219
71.0509033203125
75.1518249511719
76.3916397094727
61.4184989929199
49.9740562438965
45.8731346130371
39.0064697265625
38.6249885559082
41.1999855041504
34.9055442810059
28.7064723968506
29.3740653991699
27.8481388092041
24.4148063659668
19.7416610717773
7.34351634979248
-0.667592406272888
2.00277709960938
1.14444410800934
-0.572222054004669
9.82314491271973
20.5046234130859
18.1203651428223
13.3518476486206
10.5861072540283
-2.8611102104187
-18.2157344818115
-22.6981410980225
-25.3685111999512
-33.2842483520508
-43.5842437744141
-46.6360969543457
-45.5870208740234
-53.9796104431152
-64.6610870361328
-60.5601654052734
-51.404613494873
-53.7888717651367
-49.6879463195801
-31.8536930084229
-22.5074005126953
-24.4148063659668
-30.8999900817871
-40.6277656555176
-45.7777633666992
-48.734245300293
-52.1675758361816
-53.8842430114746
-49.6879463195801
-41.4860992431641
-33.3796195983887
-26.9898052215576
-30.8999900817871
-38.3388748168945
-42.0583190917969
-46.8268356323242
-41.8675804138184
-33.3796195983887
-34.7148017883301
-36.9083213806152
-37.3851737976074
-38.3388748168945
-38.8157272338867
-42.9166526794434
-43.7749862670898
-43.0120239257813
-57.2222023010254
-69.1434936523438
-60.274055480957
-46.8268356323242
-36.8129501342773
-30.3277683258057
-26.8944358825684
-25.0823993682861
-34.9055442810059
-47.3990592956543
-45.9685020446777
-43.3935050964355
-45.6823921203613
-40.8185043334961
-33.5703582763672
-34.4286918640137
-35.4777679443359
-32.9981384277344
-43.1073951721191
-54.9333152770996
-41.4860992431641
-28.3249912261963
-28.7064723968506
-26.3222141265869
-33.1888771057129
-37.9573936462402
-28.5157318115234
-24.0333251953125
-20.9814739227295
-17.0712909698486
-16.4036979675293
-16.022216796875
-19.7416610717773
-16.7851791381836
-10.204626083374
-14.4009208679199
-15.4499950408936
-14.3055505752563
-17.6435127258301
-15.35462474823
-12.4935140609741
-7.43888664245605
0.667592406272888
6.58055353164673
10.8722190856934
5.7222204208374
-0.858333051204681
-6.58055353164673
-16.5944385528564
-13.9240694046021
-2.76573991775513
-0.286111027002335
-1.14444410800934
2.47962880134583
4.29166507720947
-0.47685170173645
-2.76573991775513
5.81759071350098
9.06018257141113
0.0953703373670578
-2.38425850868225
-1.9074068069458
-7.72499752044678
-4.95925760269165
10.2999963760376
14.9731435775757
5.81759071350098
3.147221326828
12.0166625976563
16.30832862854
14.9731435775757
27.0851764678955
41.2953567504883
33.761100769043
19.5509204864502
14.7824029922485
15.0685138702393
11.8259220123291
4.1962947845459
-5.24536848068237
-17.357400894165
-16.8805503845215
-5.81759071350098
-0.190740674734116
11.8259220123291
27.1805477142334
34.9055442810059
38.5296173095703
44.9194297790527
56.2685012817383
55.6009063720703
47.017578125
43.7749862670898
36.9083213806152
27.2759170532227
14.8777732849121
-3.8148136138916
-18.2157344818115
-23.4611034393311
-22.7935104370117
-20.3138828277588
-24.9870281219482
-29.7555465698242
-26.4175834655762
-24.891658782959
-24.7962875366211
-21.6490669250488
-23.5564746856689
-31.7583236694336
-33.761100769043
-32.04443359375
-38.0527648925781
-41.1046180725098
-31.2814712524414
-27.943510055542
-38.6249885559082
-37.7666549682617
-29.0879535675049
-27.4666576385498
-25.3685111999512
-20.7907333374023
-10.6814785003662
1.43055510520935
4.7685170173645
-0.667592406272888
-10.0138854980469
-24.3194370269775
-46.4453544616699
-57.3175735473633
-51.7860946655273
-45.3962821960449
-36.5268402099609
-23.8425846099854
-11.635181427002
-5.62685012817383
-10.5861072540283
-20.3138828277588
-34.4286918640137
-76.9638671875
-144.676803588867
-206.953643798828
-251.968444824219
-287.350830078125
-315.675811767578
-318.727661132813
-294.885101318359
-264.938812255859
-221.640670776367
-148.777725219727
-43.2027626037598
88.9805297851563
214.297149658203
327.978607177734
459.303558349609
587.958129882813
719.569213867188
864.532104492188
945.310791015625
947.504333496094
954.275634765625
971.442260742188
948.553405761719
852.992309570313
651.95166015625
413.335052490234
246.246215820313
108.626815795898
-47.3036880493164
-185.78141784668
-290.593414306641
-354.777648925781
-400.936920166016
-435.079498291016
-424.970245361328
-400.460052490234
-388.7294921875
-377.666534423828
-377.666534423828
-386.059143066406
-386.63134765625
-369.178588867188
-340.567474365234
-320.062866210938
-307.092498779297
-300.607299804688
-300.607299804688
-298.604522705078
-298.223052978516
-300.225830078125
-291.165649414063
-273.4267578125
-256.450836181641
-231.463821411133
-205.618453979492
-197.130493164063
-182.061981201172
-155.549026489258
-148.110137939453
-146.393478393555
-137.237915039063
-137.810134887695
-136.66569519043
-116.542556762695
-88.4083023071289
-75.5333099365234
-77.5360870361328
-70.5740509033203
-57.0314636230469
-52.3583183288574
-47.6851692199707
-38.4342460632324
-31.5675830841064
-22.0305480957031
-14.4009208679199
-7.6296272277832
4.57777643203735
9.9185152053833
13.4472179412842
20.0277709960938
21.1722145080566
20.5046234130859
21.7444381713867
29.1833248138428
38.6249885559082
44.3472061157227
53.8842430114746
60.7509078979492
61.0370178222656
63.6120147705078
70.0018310546875
73.0536804199219
76.4870147705078
79.729606628418
76.296272277832
79.3481216430664
88.3129348754883
90.4110794067383
100.043487548828
120.83422088623
129.417556762695
126.270332336426
123.218475341797
119.117553710938
116.065704345703
112.060150146484
110.629592895508
109.866630554199
106.051818847656
113.395332336426
125.125885009766
125.602737426758
120.929588317871
119.403663635254
117.877738952637
104.525894165039
82.9721984863281
80.3971939086914
93.2721939086914
95.6564483642578
98.5175628662109
103.095336914063
101.187927246094
104.716636657715
106.624038696289
97.2777481079102
84.4981231689453
83.3536758422852
97.6592254638672
109.675888061523
115.970336914063
117.400886535645
111.678665161133
104.525894165039
88.4083023071289
64.8518295288086
51.6907234191895
51.8814659118652
56.6499824523926
60.0833129882813
55.0286865234375
46.9222068786621
46.0638732910156
44.4425773620605
44.0610961914063
52.453685760498
55.3147964477539
46.2546157836914
44.3472061157227
43.7749862670898
34.0472106933594
29.9462871551514
27.657398223877
22.7935104370117
19.7416610717773
17.357400894165
19.7416610717773
26.7990646362305
30.0416564941406
20.9814739227295
8.58333015441895
3.05185079574585
-6.00833129882813
-11.2537002563477
-4.67314672470093
-4.95925760269165
-12.7796258926392
-13.8286991119385
-15.2592544555664
-21.839807510376
-24.9870281219482
-24.891658782959
-22.4120292663574
-18.3111057281494
-14.3055505752563
-13.1611070632935
-19.360179901123
-25.7499923706055
-29.4694347381592
-34.4286918640137
-37.0036926269531
-34.810173034668
-30.4231376647949
-22.8888816833496
-8.0111083984375
-1.52592539787292
-10.7768487930298
-20.7907333374023
-31.6629524230957
-40.3416519165039
-41.7722091674805
-41.4860992431641
-40.7231369018555
-40.5323944091797
-34.0472106933594
-24.0333251953125
-28.1342506408691
-40.6277656555176
-45.9685020446777
-47.5897979736328
-50.355541229248
-48.8296127319336
-37.2898025512695
-24.6055469512939
-23.1749935150146
-29.1833248138428
-34.7148017883301
-34.2379531860352
-26.7036952972412
-20.1231422424316
-23.9379558563232
-35.5731353759766
-42.2490615844727
-43.8703575134277
-43.2027626037598
-39.6740608215332
-36.7175827026367
-28.6111011505127
-17.5481433868408
-20.1231422424316
-33.1888771057129
-40.0555419921875
-45.1101722717285
-47.7805404663086
-36.3360977172852
-25.7499923706055
-23.9379558563232
-13.9240694046021
-10.0138854980469
-22.4120292663574
-25.0823993682861
-20.6953639984131
-25.7499923706055
-32.4259147644043
-35.9546165466309
-37.6712837219238
-41.2953567504883
-46.2546157836914
-49.783317565918
-47.4944305419922
-32.9027671813965
-16.8805503845215
-11.3490705490112
-8.58333015441895
-5.1499981880188
-6.1037015914917
-12.6842555999756
-25.4638805389404
-37.099063873291
-40.913875579834
-36.8129501342773
-28.3249912261963
-25.0823993682861
-27.2759170532227
-28.0388793945313
-24.2240657806396
-14.5916624069214
-6.1037015914917
-0.286111027002335
2.76573991775513
-3.24259161949158
-8.67870044708252
-3.5287024974823
4.38703584671021
5.53147983551025
0.572222054004669
3.71944332122803
9.25092315673828
3.43333220481873
-1.33518481254578
-4.38703584671021
-4.00555419921875
9.06018257141113
14.7824029922485
5.7222204208374
-2.76573991775513
-1.62129580974579
6.96203470230103
15.6407356262207
22.8888816833496
22.6981410980225
24.7009181976318
34.1425819396973
30.1370277404785
29.1833248138428
37.0036926269531
24.6055469512939
7.24814605712891
-1.14444410800934
-9.06018257141113
-9.06018257141113
-3.147221326828
-6.00833129882813
-10.8722190856934
-2.8611102104187
-2.76573991775513
-23.9379558563232
-36.6222114562988
-40.0555419921875
-48.2573928833008
-49.4972076416016
-45.300910949707
-46.5407257080078
-49.4972076416016
-47.4944305419922
-40.3416519165039
-34.7148017883301
-40.4370231628418
-42.8212814331055
-35.2870254516602
-34.2379531860352
-36.0499877929688
-43.2981338500977
-47.5897979736328
-38.4342460632324
-35.382396697998
-35.382396697998
-38.148136138916
-51.8814659118652
-56.5546112060547
-50.7370223999023
-42.4398002624512
-29.9462871551514
-18.8833274841309
-11.1583299636841
-14.7824029922485
-24.4148063659668
-24.5101776123047
-30.8046188354492
-69.8110885620117
-131.134216308594
-182.061981201172
-210.673080444336
-227.935119628906
-239.951782226563
-240.905471801758
-230.128631591797
-214.583267211914
-177.579574584961
-104.430519104004
7.15277528762817
155.739761352539
294.789733886719
406.945251464844
523.48779296875
634.30810546875
747.131225585938
867.2978515625
951.891357421875
985.080261230469
976.115417480469
947.218200683594
888.470092773438
754.951599121094
539.128540039063
279.053619384766
76.9638671875
-58.2712783813477
-204.378631591797
-324.259155273438
-405.133209228516
-470.557250976563
-497.642425537109
-502.506317138672
-500.789642333984
-478.759094238281
-439.561889648438
-404.274871826172
-382.339691162109
-369.178588867188
-353.823974609375
-334.559143066406
-322.54248046875
-302.133239746094
-273.140655517578
-260.074920654297
-253.303619384766
-237.853622436523
-224.787887573242
-228.125854492188
-240.428619384766
-245.197143554688
-235.469375610352
-210.863815307617
-181.108276367188
-157.456436157227
-138.382369995117
-123.695327758789
-109.675888061523
-103.476821899414
-106.719413757324
-105.479598999023
-101.950889587402
-89.7434921264648
-66.7592391967773
-47.1129493713379
-29.4694347381592
-15.2592544555664
-9.44166374206543
-7.24814605712891
-7.34351634979248
-11.1583299636841
-12.0166625976563
-6.1037015914917
0.858333051204681
10.3953666687012
24.1286964416504
38.9110984802246
51.1185035705566
53.6935005187988
53.4073905944824
54.9333152770996
53.5981292724609
55.3147964477539
54.7425765991211
52.9305381774902
65.9962768554688
76.2009048461914
75.1518249511719
78.2036819458008
76.7731246948242
74.8657150268555
84.3073806762695
94.7981185913086
107.291633605957
117.49626159668
111.678665161133
102.52311706543
100.901817321777
94.2258987426758
90.6971969604492
98.2314529418945
92.0323791503906
79.9203414916992
88.9805297851563
95.8471908569336
86.2147903442383
83.1629333496094
93.8444137573242
102.141632080078
101.474044799805
97.9453353881836
98.3268203735352
105.479598999023
105.670333862305
95.751823425293
92.2231216430664
94.416633605957
93.1768188476563
93.367561340332
95.9425582885742
92.6045989990234
89.5527496337891
89.7434921264648
84.5934906005859
79.8249740600586
74.1027526855469
66.4731292724609
69.8110885620117
80.5879364013672
85.0703430175781
87.0731201171875
91.3647842407227
86.3101577758789
69.6203460693359
48.066650390625
28.6111011505127
13.8286991119385
6.38981294631958
6.48518323898315
5.7222204208374
14.1148099899292
29.9462871551514
34.1425819396973
23.9379558563232
12.9703664779663
4.29166507720947
-6.6759238243103
-8.77407169342041
-6.38981294631958
-7.34351634979248
-6.96203470230103
-5.1499981880188
-6.00833129882813
-19.1694374084473
-32.1398048400879
-38.0527648925781
-51.2138710021973
-52.0722045898438
-36.7175827026367
-39.0064697265625
-43.7749862670898
-29.1833248138428
-17.5481433868408
-18.5972156524658
-22.0305480957031
-19.4555492401123
-14.5916624069214
-15.5453653335571
-14.1148099899292
-11.2537002563477
-18.0249938964844
-19.4555492401123
-12.1120328903198
-12.588885307312
-14.7824029922485
-10.4907369613647
-10.204626083374
-16.4990692138672
-17.1666603088379
-14.1148099899292
-18.1203651428223
-22.4120292663574
-23.0796222686768
-27.2759170532227
-28.0388793945313
-20.5999927520752
-19.5509204864502
-27.1805477142334
-31.1861019134521
-33.8564720153809
-36.8129501342773
-30.995361328125
-20.2185115814209
-17.0712909698486
-15.4499950408936
-6.29444265365601
3.33796191215515
0
-7.0574049949646
-5.91296100616455
-7.24814605712891
-7.43888664245605
-1.43055510520935
3.24259161949158
4.29166507720947
2.38425850868225
2.00277709960938
8.29721927642822
11.635181427002
1.14444410800934
-9.82314491271973
-14.2101802825928
-12.8749961853027
-6.48518323898315
-4.1962947845459
2.1935179233551
11.2537002563477
3.71944332122803
-9.44166374206543
-18.0249938964844
-24.2240657806396
-20.8861045837402
-13.0657367706299
-4.86388731002808
-2.38425850868225
-10.6814785003662
-11.4444408416748
-3.91018390655518
-5.05462789535522
-13.4472179412842
-17.0712909698486
-14.687032699585
-13.8286991119385
-20.2185115814209
-26.7990646362305
-24.7962875366211
-19.074068069458
-16.5944385528564
-9.15555286407471
0.9537034034729
-7.0574049949646
-25.177770614624
-31.0907306671143
-30.2323970794678
-26.4175834655762
-18.6925868988037
-15.4499950408936
-11.8259220123291
-10.3953666687012
-19.074068069458
-18.5972156524658
-2.00277709960938
4.57777643203735
8.86944198608398
18.5018463134766
3.8148136138916
-14.3055505752563
-9.72777462005615
-3.8148136138916
0.572222054004669
5.34073925018311
2.47962880134583
-3.5287024974823
-7.0574049949646
-5.34073925018311
2.09814739227295
7.43888664245605
5.7222204208374
11.3490705490112
24.7962875366211
33.2842483520508
35.0962867736816
30.2323970794678
25.3685111999512
17.6435127258301
8.58333015441895
9.9185152053833
7.53425693511963
-0.381481349468231
-3.62407302856445
-7.82036781311035
-16.30832862854
-22.125919342041
-10.0138854980469
-2.38425850868225
-23.6518440246582
-40.1509132385254
-40.8185043334961
-46.1592445373535
-47.1129493713379
-37.9573936462402
-35.8592491149902
-43.4888763427734
-44.7286911010742
-39.4833221435547
-42.630542755127
-51.3092422485352
-46.5407257080078
-37.8620262145996
-46.3499870300293
-47.6851692199707
-26.4175834655762
-17.1666603088379
-24.9870281219482
-23.1749935150146
-20.9814739227295
-31.7583236694336
-41.7722091674805
-43.4888763427734
-37.6712837219238
-27.0851764678955
-20.409252166748
-24.7962875366211
-30.8999900817871
-24.7962875366211
-14.8777732849121
-20.7907333374023
-33.4749908447266
-44.4425773620605
-66.4731292724609
-103.953666687012
-154.404586791992
-204.569381713867
-237.758255004883
-254.734176635742
-258.45361328125
-246.436950683594
-216.967529296875
-176.053649902344
-124.744407653809
-49.2110939025879
62.5629425048828
198.942535400391
327.787872314453
446.047088623047
566.30908203125
683.042358398438
794.625671386719
896.958068847656
972.586730957031
995.189514160156
963.812683105469
912.408020019531
822.66455078125
651.856262207031
403.035064697266
127.128662109375
-63.2305335998535
-173.955505371094
-298.890655517578
-406.182281494141
-472.560028076172
-517.384094238281
-525.681335449219
-522.438720703125
-506.988739013672
-457.777618408203
-415.623931884766
-389.015625
-367.843414306641
-365.936004638672
-370.609130859375
-364.123962402344
-339.995269775391
-304.422119140625
-276.192504882813
-254.25732421875
-232.417510986328
-222.689743041992
-231.368438720703
-245.76936340332
-251.014739990234
-247.009185791016
-234.229553222656
-201.994384765625
-159.173095703125
-131.897186279297
-117.114776611328
-109.294410705566
-116.065704345703
-113.490707397461
-101.283302307129
-110.820335388184
-115.684219360352
-91.5555267333984
-62.3722038269043
-35.2870254516602
-17.4527721405029
-12.1120328903198
-0.858333051204681
0.190740674734116
-10.204626083374
-12.9703664779663
-16.022216796875
-14.0194396972656
-1.33518481254578
11.9212923049927
24.0333251953125
38.0527648925781
43.679615020752
42.2490615844727
43.7749862670898
45.1101722717285
55.7916488647461
63.2305335998535
57.6990547180176
66.9499816894531
84.7842330932617
93.2721939086914
93.367561340332
90.220344543457
91.4601593017578
90.1249694824219
86.8823776245117
86.5009002685547
87.5499725341797
93.1768188476563
101.37866973877
104.144409179688
100.901817321777
99.948112487793
101.855522155762
107.577743530273
117.59162902832
119.117553710938
112.155517578125
110.724967956543
118.545333862305
117.400886535645
105.76570892334
103.095336914063
105.479598999023
104.62126159668
102.52311706543
103.76293182373
97.2777481079102
80.8740463256836
82.1138610839844
87.8360824584961
85.6425628662109
92.7953414916992
96.3240432739258
95.3703384399414
101.950889587402
93.5583038330078
75.0564575195313
73.9120101928711
79.06201171875
76.3916397094727
71.8138656616211
70.5740509033203
73.3397903442383
75.1518249511719
74.8657150268555
72.1953506469727
63.9934997558594
50.6416511535645
42.0583190917969
35.4777679443359
21.7444381713867
13.8286991119385
10.0138854980469
10.3953666687012
21.9351787567139
26.7990646362305
20.2185115814209
11.4444408416748
3.62407302856445
-4.48240613937378
-13.7333288192749
-20.5046234130859
-18.3111057281494
-13.0657367706299
-14.9731435775757
-10.2999963760376
2.09814739227295
1.71666610240936
-8.67870044708252
-16.5944385528564
-22.9842510223389
-29.7555465698242
-35.7638778686523
-34.5240631103516
-23.9379558563232
-18.5018463134766
-19.2648086547852
-21.839807510376
-27.1805477142334
-32.3305435180664
-37.3851737976074
-32.04443359375
-11.3490705490112
7.53425693511963
12.3981437683105
5.81759071350098
-2.47962880134583
-11.635181427002
-24.2240657806396
-27.2759170532227
-24.9870281219482
-29.1833248138428
-26.7990646362305
-16.5944385528564
-8.77407169342041
-5.81759071350098
-5.81759071350098
-6.77129411697388
-2.38425850868225
2.5749990940094
-0.762962698936462
-3.71944332122803
-5.1499981880188
-0.858333051204681
6.96203470230103
1.52592539787292
-4.10092449188232
3.8148136138916
8.0111083984375
-2.47962880134583
-12.2074031829834
-15.4499950408936
-14.7824029922485
-11.2537002563477
-12.302773475647
-7.91573810577393
3.62407302856445
5.91296100616455
1.62129580974579
-0.9537034034729
-4.67314672470093
-6.48518323898315
-5.05462789535522
-6.6759238243103
-13.3518476486206
-16.4036979675293
-14.687032699585
-15.8314762115479
-14.7824029922485
-10.2999963760376
-11.7305517196655
-18.1203651428223
-21.7444381713867
-24.0333251953125
-20.3138828277588
-1.62129580974579
8.29721927642822
0
-4.10092449188232
-4.57777643203735
-8.29721927642822
-1.9074068069458
1.04907369613647
-17.2620315551758
-28.0388793945313
-24.6055469512939
-21.9351787567139
-17.2620315551758
-16.6898097991943
-16.8805503845215
-11.4444408416748
-10.5861072540283
-16.7851791381836
-14.8777732849121
-6.38981294631958
-12.3981437683105
-28.8018417358398
-31.0907306671143
-20.409252166748
-18.2157344818115
-16.5944385528564
-12.6842555999756
-15.9268465042114
-9.34629344940186
0.572222054004669
0.858333051204681
2.09814739227295
-0.0953703373670578
-2.67036962509155
1.62129580974579
2.1935179233551
-3.43333220481873
-6.1037015914917
-4.67314672470093
-6.19907188415527
-10.204626083374
-14.3055505752563
-17.0712909698486
-14.687032699585
-15.0685138702393
-19.8370304107666
-11.1583299636841
3.43333220481873
7.6296272277832
13.3518476486206
20.8861045837402
26.6083240509033
34.5240631103516
33.2842483520508
21.839807510376
15.6407356262207
15.5453653335571
13.7333288192749
9.15555286407471
7.91573810577393
4.10092449188232
-6.86666440963745
-10.204626083374
-13.5425882339478
-18.5972156524658
-20.8861045837402
-26.4175834655762
-23.9379558563232
-12.4935140609741
-8.29721927642822
-16.4036979675293
-28.4203605651855
-38.6249885559082
-41.962947845459
-42.0583190917969
-49.4972076416016
-52.1675758361816
-48.5435028076172
-43.7749862670898
-36.431468963623
-40.4370231628418
-50.6416511535645
-58.8434982299805
-66.3777542114258
-62.7536849975586
-53.3120193481445
-50.5462799072266
-51.404613494873
-43.1073951721191
-32.5212860107422
-31.0907306671143
-29.4694347381592
-28.3249912261963
-26.7990646362305
-19.4555492401123
-19.7416610717773
-24.6055469512939
-17.738883972168
-14.7824029922485
-32.1398048400879
-55.0286865234375
-84.8796005249023
-143.436996459961
-214.774002075195
-264.843444824219
-282.677673339844
-287.541564941406
-297.269348144531
-291.547119140625
-259.121215820313
-219.733261108398
-169.186981201172
-77.0592346191406
61.5138702392578
200.182342529297
320.539703369141
466.265594482422
622.291442871094
753.807189941406
904.492309570313
1059.2783203125
1130.90148925781
1122.12744140625
1091.89501953125
1059.94592285156
981.07470703125
797.963623046875
536.839660644531
265.320281982422
45.2055397033691
-111.1064453125
-243.861953735352
-367.748016357422
-463.499847412109
-515.476684570313
-527.97021484375
-512.234069824219
-482.669281005859
-446.714660644531
-409.520233154297
-396.645233154297
-409.424865722656
-423.062835693359
-423.825775146484
-412.38134765625
-400.173950195313
-386.535980224609
-365.745239257813
-343.047119140625
-330.935089111328
-330.172119140625
-326.452667236328
-316.248046875
-303.373046875
-288.209167480469
-272.759185791016
-255.783248901367
-240.714736938477
-222.308258056641
-194.55549621582
-175.958282470703
-167.756423950195
-157.837905883789
-149.349945068359
-134.853652954102
-115.207366943359
-108.436073303223
-98.3268203735352
-73.8166427612305
-58.2712783813477
-49.783317565918
-42.630542755127
-40.6277656555176
-33.8564720153809
-27.8481388092041
-29.0879535675049
-24.7962875366211
-12.3981437683105
-1.14444410800934
9.9185152053833
25.0823993682861
34.6194343566895
37.8620262145996
50.5462799072266
60.0833129882813
53.7888717651367
53.4073905944824
64.5657196044922
71.4323883056641
67.7129440307617
59.2249794006348
59.7972030639648
72.8629379272461
80.0157165527344
70.8601608276367
70.1925735473633
87.0731201171875
98.6129302978516
104.335151672363
109.103668212891
109.485153198242
116.637924194336
123.886070251465
120.071258544922
117.877738952637
111.774040222168
105.479598999023
113.967559814453
117.114776611328
118.73607635498
127.796257019043
122.741630554199
118.831443786621
125.507369995117
125.316627502441
121.406440734863
109.00830078125
100.138854980469
105.479598999023
108.722190856934
109.866630554199
108.340705871582
105.384223937988
112.727745056152
122.360145568848
126.270332336426
131.897186279297
132.56477355957
124.362922668457
118.640701293945
112.632369995117
102.713859558105
101.664779663086
110.724967956543
113.681442260742
110.534225463867
104.716636657715
94.6073760986328
86.2147903442383
79.06201171875
72.2907180786133
71.5277557373047
70.2879409790039
64.3749771118164
64.6610870361328
66.2823867797852
61.1323890686035
49.3064651489258
39.9601707458496
33.761100769043
21.2675857543945
12.7796258926392
5.53147983551025
2.09814739227295
14.7824029922485
21.3629570007324
17.4527721405029
14.1148099899292
3.8148136138916
-0.762962698936462
5.05462789535522
4.7685170173645
0
-2.09814739227295
-0.190740674734116
0.9537034034729
-4.00555419921875
-4.57777643203735
0.381481349468231
-4.1962947845459
-14.9731435775757
-13.9240694046021
-11.1583299636841
-18.5972156524658
-19.4555492401123
-11.5398111343384
-11.2537002563477
-14.1148099899292
-16.6898097991943
-20.409252166748
-16.9759197235107
-15.9268465042114
-21.9351787567139
-26.5129547119141
-29.278694152832
-28.7064723968506
-29.0879535675049
-31.4722118377686
-24.9870281219482
-10.0138854980469
-4.7685170173645
-7.6296272277832
-2.47962880134583
4.57777643203735
1.33518481254578
-9.34629344940186
-15.8314762115479
-19.074068069458
-24.0333251953125
-27.657398223877
-33.761100769043
-38.5296173095703
-33.8564720153809
-29.8509159088135
-33.1888771057129
-37.0036926269531
-36.0499877929688
-32.4259147644043
-28.8018417358398
-24.7962875366211
-24.7962875366211
-27.0851764678955
-25.9407329559326
-25.0823993682861
-35.6685066223145
-50.7370223999023
-51.4999847412109
-39.3879508972168
-28.8972129821777
-29.8509159088135
-32.4259147644043
-30.5185089111328
-32.7120246887207
-34.9055442810059
-33.9518394470215
-35.382396697998
-36.7175827026367
-36.7175827026367
-37.5759124755859
-30.5185089111328
-24.891658782959
-33.761100769043
-41.7722091674805
-46.3499870300293
-51.7860946655273
-48.734245300293
-34.4286918640137
-25.9407329559326
-34.0472106933594
-36.9083213806152
-27.3712882995605
-24.0333251953125
-23.4611034393311
-22.5074005126953
-24.2240657806396
-24.4148063659668
-24.3194370269775
-26.226842880249
-32.5212860107422
-35.0009155273438
-34.3333206176758
-37.9573936462402
-31.9490642547607
-23.3657341003418
-20.8861045837402
-15.4499950408936
-8.10647869110107
-3.8148136138916
-8.10647869110107
-14.4962921142578
-15.4499950408936
-15.5453653335571
-18.2157344818115
-18.787956237793
-13.6379585266113
-10.3953666687012
-12.1120328903198
-3.5287024974823
5.81759071350098
-1.81203651428223
-2.47962880134583
4.67314672470093
-1.33518481254578
-7.34351634979248
-5.34073925018311
-3.147221326828
2.8611102104187
5.43610954284668
-0.47685170173645
7.15277528762817
19.6462898254395
17.0712909698486
19.360179901123
25.9407329559326
30.70924949646
34.1425819396973
30.1370277404785
31.8536930084229
32.04443359375
22.8888816833496
16.4036979675293
13.256477355957
7.0574049949646
-5.05462789535522
-7.72499752044678
-1.9074068069458
-8.96481227874756
-24.1286964416504
-28.5157318115234
-25.0823993682861
-20.0277709960938
-14.7824029922485
-13.7333288192749
-17.357400894165
-25.7499923706055
-33.5703582763672
-35.6685066223145
-38.2435073852539
-42.1536903381348
-44.7286911010742
-41.962947845459
-38.2435073852539
-39.9601707458496
-41.8675804138184
-42.2490615844727
-39.7694320678711
-34.1425819396973
-31.1861019134521
-31.9490642547607
-32.3305435180664
-35.5731353759766
-43.5842437744141
-46.8268356323242
-47.6851692199707
-44.5379486083984
-32.04443359375
-27.1805477142334
-27.5620288848877
-20.9814739227295
-15.1638841629028
-12.9703664779663
-15.2592544555664
-21.3629570007324
-26.5129547119141
-34.4286918640137
-44.6333198547363
-78.4897918701172
-158.791610717773
-245.387878417969
-292.691558837891
-311.098052978516
-320.635070800781
-326.643402099609
-320.348968505859
-292.023986816406
-244.052703857422
-177.388824462891
-88.2175674438477
22.2212886810303
145.630508422852
282.677673339844
451.864685058594
621.814636230469
770.878479003906
962.477478027344
1147.78198242188
1203.76440429688
1190.03112792969
1202.52465820313
1197.85144042969
1122.22277832031
945.883056640625
666.829406738281
383.770233154297
173.764755249023
1.23981440067291
-152.878662109375
-280.961029052734
-384.723937988281
-438.226715087891
-451.673919677734
-457.205413818359
-446.52392578125
-440.897094726563
-452.150787353516
-460.829467773438
-476.279479980469
-484.195220947266
-474.085968017578
-466.456329345703
-459.589660644531
-448.145233154297
-438.512817382813
-425.542449951172
-404.560974121094
-389.206359863281
-380.146179199219
-368.224884033203
-355.922119140625
-339.995269775391
-318.823059082031
-296.506378173828
-272.759185791016
-250.823989868164
-230.414733886719
-213.915664672852
-209.719375610352
-202.948089599609
-187.87956237793
-180.345306396484
-171.857345581055
-152.497177124023
-139.240692138672
-131.992553710938
-110.915702819824
-88.5990447998047
-78.9666442871094
-62.2768325805664
-45.7777633666992
-41.1999855041504
-31.9490642547607
-21.9351787567139
-14.3055505752563
-5.1499981880188
1.62129580974579
9.72777462005615
18.787956237793
27.8481388092041
38.0527648925781
41.2953567504883
43.3935050964355
53.8842430114746
60.9416465759277
65.6147918701172
78.2990493774414
91.9370040893555
98.7083053588867
102.427742004395
105.86107635498
102.999969482422
99.1851501464844
106.719413757324
106.433296203613
98.2314529418945
107.387001037598
117.400886535645
121.883293151855
128.36848449707
125.411994934082
119.117553710938
119.880516052246
118.163848876953
115.111999511719
120.548110961914
124.649032592773
125.030517578125
128.559219360352
132.755508422852
138.95458984375
141.720321655273
140.289764404297
143.723098754883
144.199951171875
139.717544555664
136.76106262207
133.041625976563
133.232360839844
144.104583740234
151.161987304688
146.584213256836
146.107360839844
148.300872802734
136.474960327148
122.550888061523
121.501815795898
124.458290100098
131.038848876953
133.613845825195
128.749954223633
122.264778137207
112.346260070801
104.335151672363
103.095336914063
105.384223937988
100.711082458496
88.6944122314453
84.5934906005859
85.2610855102539
84.5934906005859
88.5990447998047
88.2175674438477
69.8110885620117
50.832389831543
49.9740562438965
55.219425201416
51.4999847412109
45.1101722717285
37.5759124755859
18.5972156524658
9.82314491271973
19.7416610717773
20.5999927520752
15.8314762115479
14.4962921142578
8.3925895690918
3.91018390655518
4.7685170173645
7.43888664245605
8.0111083984375
3.33796191215515
-3.43333220481873
-4.10092449188232
1.04907369613647
2.5749990940094
-2.09814739227295
-4.10092449188232
-0.286111027002335
2.09814739227295
2.76573991775513
6.77129411697388
7.15277528762817
-2.67036962509155
-11.7305517196655
-17.0712909698486
-29.278694152832
-38.6249885559082
-30.995361328125
-27.4666576385498
-37.6712837219238
-38.9110984802246
-36.8129501342773
-39.2925796508789
-32.7120246887207
-25.4638805389404
-25.7499923706055
-23.4611034393311
-19.1694374084473
-25.9407329559326
-40.0555419921875
-41.1046180725098
-30.2323970794678
-22.6027698516846
-26.7990646362305
-29.9462871551514
-24.5101776123047
-25.2731399536133
-31.3768424987793
-36.0499877929688
-39.2925796508789
-40.6277656555176
-42.1536903381348
-38.0527648925781
-35.382396697998
-45.6823921203613
-51.1185035705566
-42.630542755127
-40.6277656555176
-43.8703575134277
-49.2110939025879
-56.8407211303711
-51.8814659118652
-45.6823921203613
-45.6823921203613
-46.0638732910156
-56.6499824523926
-62.6583137512207
-49.3064651489258
-38.4342460632324
-44.0610961914063
-52.1675758361816
-53.6935005187988
-54.2657241821289
-54.3610954284668
-47.6851692199707
-47.7805404663086
-57.7944259643555
-54.3610954284668
-43.5842437744141
-42.7259140014648
-41.5814666748047
-33.5703582763672
-31.6629524230957
-30.8046188354492
-28.0388793945313
-33.3796195983887
-32.9981384277344
-26.226842880249
-30.8046188354492
-37.2898025512695
-34.2379531860352
-31.4722118377686
-29.5648059844971
-25.4638805389404
-25.3685111999512
-25.4638805389404
-23.5564746856689
-20.8861045837402
-16.30832862854
-16.6898097991943
-24.1286964416504
-24.1286964416504
-26.4175834655762
-38.3388748168945
-39.2925796508789
-30.4231376647949
-25.4638805389404
-27.4666576385498
-33.8564720153809
-34.4286918640137
-31.2814712524414
-27.3712882995605
-17.6435127258301
-8.77407169342041
-6.86666440963745
-7.43888664245605
-9.9185152053833
-19.7416610717773
-28.4203605651855
-24.1286964416504
-24.9870281219482
-29.6601753234863
-21.3629570007324
-14.8777732849121
-17.0712909698486
-20.7907333374023
-18.787956237793
-8.10647869110107
-1.23981440067291
0
-2.09814739227295
-6.77129411697388
-5.62685012817383
-0.667592406272888
5.05462789535522
10.9675893783569
19.6462898254395
18.4064750671387
11.8259220123291
18.0249938964844
18.9786968231201
12.2074031829834
4.1962947845459
-10.0138854980469
-11.0629596710205
-4.1962947845459
-1.33518481254578
7.53425693511963
20.7907333374023
26.7990646362305
26.226842880249
25.177770614624
24.7009181976318
27.8481388092041
38.3388748168945
49.0203552246094
44.0610961914063
28.6111011505127
22.3166599273682
20.9814739227295
22.6027698516846
27.657398223877
21.9351787567139
7.0574049949646
-3.05185079574585
1.33518481254578
1.71666610240936
-7.6296272277832
-5.81759071350098
-2.47962880134583
-2.5749990940094
-3.24259161949158
-11.1583299636841
-23.4611034393311
-29.7555465698242
-29.1833248138428
-31.9490642547607
-36.1453590393066
-34.9055442810059
-25.3685111999512
-15.9268465042114
-21.6490669250488
-30.6138782501221
-32.8073959350586
-32.7120246887207
-31.7583236694336
-35.0962867736816
-35.7638778686523
-31.7583236694336
-36.431468963623
-39.3879508972168
-31.9490642547607
-19.5509204864502
-11.7305517196655
-15.0685138702393
-14.1148099899292
-7.24814605712891
-11.8259220123291
-20.409252166748
-17.357400894165
-9.82314491271973
-6.38981294631958
-1.81203651428223
-6.19907188415527
-24.7009181976318
-60.6555366516113
-130.561996459961
-214.964752197266
-267.895294189453
-289.353607177734
-306.615631103516
-312.0517578125
-304.898986816406
-292.786956787109
-258.644348144531
-197.798080444336
-109.771263122559
9.82314491271973
134.949035644531
256.546203613281
404.179504394531
563.066467285156
704.500671386719
886.848815917969
1090.84594726563
1166.66540527344
1145.68383789063
1164.18579101563
1179.921875
1122.89038085938
972.777465820313
714.228454589844
444.139678955078
253.875839233398
87.9314498901367
-75.6286773681641
-200.75456237793
-304.803619384766
-378.143402099609
-413.907287597656
-435.174865722656
-437.749847412109
-436.605407714844
-446.047088623047
-455.584106445313
-474.753540039063
-499.359100341797
-498.882232666016
-477.900787353516
-460.829467773438
-449.766510009766
-444.139678955078
-436.033203125
-421.06005859375
-409.710968017578
-401.890625
-388.538757324219
-367.938781738281
-341.616546630859
-316.248046875
-302.514709472656
-292.119354248047
-274.380462646484
-258.835113525391
-247.104553222656
-232.512893676758
-218.779556274414
-212.771224975586
-199.705490112305
-172.334197998047
-152.306427001953
-136.951812744141
-122.264778137207
-110.057373046875
-89.3620071411133
-71.0509033203125
-57.3175735473633
-45.4916534423828
-42.8212814331055
-35.2870254516602
-19.4555492401123
-8.77407169342041
-9.15555286407471
-8.0111083984375
4.48240613937378
16.8805503845215
20.6953639984131
24.7009181976318
30.8046188354492
33.9518394470215
41.2953567504883
51.7860946655273
57.5083160400391
61.6092376708984
70.3833084106445
82.876823425293
92.5092315673828
90.8879318237305
86.9777526855469
94.7981185913086
99.1851501464844
96.4194107055664
98.8036727905273
105.76570892334
118.163848876953
127.033294677734
128.940704345703
124.267555236816
114.825889587402
118.640701293945
127.033294677734
124.267555236816
120.548110961914
123.218475341797
130.561996459961
139.526809692383
147.44255065918
147.34716796875
142.960144042969
141.624954223633
134.376815795898
127.414772033691
127.128662109375
130.752731323242
137.333282470703
141.911071777344
143.15087890625
141.815689086914
144.104583740234
147.34716796875
135.521255493164
123.313850402832
125.984222412109
126.461067199707
124.744407653809
125.888847351074
122.83699798584
119.59440612793
116.161071777344
114.921257019043
112.537002563477
100.806449890137
93.2721939086914
96.4194107055664
95.1795959472656
86.7870101928711
86.1194152832031
83.6397857666016
73.8166427612305
72.0046081542969
67.4268264770508
62.2768325805664
58.9388694763184
45.2055397033691
35.4777679443359
33.8564720153809
33.6657295227051
39.0064697265625
43.679615020752
43.3935050964355
37.3851737976074
25.7499923706055
20.1231422424316
23.0796222686768
24.4148063659668
20.1231422424316
14.2101802825928
14.5916624069214
17.8342533111572
13.0657367706299
6.1037015914917
5.81759071350098
3.05185079574585
-3.8148136138916
-6.1037015914917
-4.86388731002808
-1.14444410800934
2.8611102104187
4.29166507720947
1.81203651428223
-4.00555419921875
-10.6814785003662
-17.357400894165
-20.3138828277588
-24.4148063659668
-31.5675830841064
-31.3768424987793
-26.8944358825684
-23.6518440246582
-25.6546211242676
-34.0472106933594
-33.6657295227051
-24.5101776123047
-24.2240657806396
-32.2351760864258
-37.6712837219238
-38.6249885559082
-34.810173034668
-31.0907306671143
-33.2842483520508
-33.6657295227051
-24.7962875366211
-21.0768451690674
-27.5620288848877
-26.9898052215576
-23.7472152709961
-32.7120246887207
-44.6333198547363
-50.0694274902344
-51.404613494873
-48.5435028076172
-44.251838684082
-38.3388748168945
-34.2379531860352
-37.099063873291
-35.6685066223145
-38.4342460632324
-44.251838684082
-45.2055397033691
-49.9740562438965
-48.5435028076172
-46.5407257080078
-48.3527641296387
-49.9740562438965
-56.936092376709
-58.652759552002
-52.2629470825195
-50.7370223999023
-53.121280670166
-53.121280670166
-54.4564628601074
-57.8897972106934
-55.1240577697754
-51.5953521728516
-49.1157264709473
-46.6360969543457
-48.8296127319336
-45.300910949707
-42.1536903381348
-48.066650390625
-45.8731346130371
-40.7231369018555
-45.0148010253906
-46.9222068786621
-47.3036880493164
-47.1129493713379
-41.0092468261719
-41.1999855041504
-39.9601707458496
-27.5620288848877
-20.1231422424316
-20.0277709960938
-22.7935104370117
-31.8536930084229
-36.1453590393066
-32.3305435180664
-29.3740653991699
-33.3796195983887
-38.0527648925781
-29.278694152832
-17.4527721405029
-18.6925868988037
-25.3685111999512
-22.7935104370117
-14.1148099899292
-11.0629596710205
-11.1583299636841
-14.0194396972656
-22.5074005126953
-29.3740653991699
-31.3768424987793
-28.8018417358398
-27.2759170532227
-33.0935096740723
-28.0388793945313
-9.34629344940186
-4.86388731002808
-7.72499752044678
-2.95648050308228
-10.1092557907104
-20.6953639984131
-14.1148099899292
-12.302773475647
-17.0712909698486
-9.9185152053833
-0.762962698936462
3.43333220481873
1.43055510520935
-2.8611102104187
-0.381481349468231
-0.572222054004669
-2.76573991775513
-0.9537034034729
-3.71944332122803
-4.10092449188232
-1.23981440067291
-6.38981294631958
-7.6296272277832
-6.48518323898315
-6.00833129882813
2.47962880134583
5.81759071350098
-1.52592539787292
-6.19907188415527
-0.858333051204681
6.77129411697388
8.86944198608398
5.7222204208374
-3.91018390655518
-5.43610954284668
1.71666610240936
-2.8611102104187
-12.302773475647
-13.0657367706299
-6.19907188415527
0
-1.43055510520935
-2.47962880134583
-0.572222054004669
-2.76573991775513
-8.3925895690918
-5.24536848068237
5.62685012817383
11.2537002563477
17.4527721405029
22.3166599273682
25.8453617095947
33.3796195983887
32.4259147644043
27.8481388092041
29.5648059844971
27.4666576385498
23.5564746856689
23.0796222686768
12.588885307312
5.81759071350098
15.4499950408936
12.1120328903198
5.53147983551025
16.6898097991943
25.3685111999512
28.5157318115234
32.7120246887207
31.2814712524414
33.8564720153809
44.5379486083984
43.2027626037598
27.657398223877
25.7499923706055
31.1861019134521
30.5185089111328
27.943510055542
17.9296245574951
10.4907369613647
10.1092557907104
-0.0953703373670578
-17.8342533111572
-23.5564746856689
-20.3138828277588
-22.6027698516846
-21.839807510376
-13.9240694046021
-14.2101802825928
-24.1286964416504
-28.8972129821777
-26.0361022949219
-21.4583263397217
-20.9814739227295
-23.6518440246582
-20.2185115814209
-20.5046234130859
-33.3796195983887
-37.6712837219238
-33.8564720153809
-31.1861019134521
-22.9842510223389
-19.8370304107666
-22.125919342041
-21.6490669250488
-26.0361022949219
-27.2759170532227
-18.8833274841309
-18.5972156524658
-26.8944358825684
-26.8944358825684
-20.2185115814209
-10.3953666687012
1.14444410800934
2.1935179233551
-2.38425850868225
-2.47962880134583
-3.05185079574585
-6.86666440963745
-17.2620315551758
-53.3120193481445
-122.93236541748
-198.75178527832
-254.638809204102
-281.151763916016
-288.495269775391
-303.659149169922
-311.670257568359
-292.214721679688
-260.742523193359
-210.863815307617
-127.605514526367
-15.7361059188843
103.572189331055
225.074005126953
376.331359863281
538.7470703125
680.181274414063
848.605285644531
1038.39221191406
1133.57189941406
1134.43017578125
1144.34875488281
1159.60791015625
1124.98852539063
997.478393554688
746.940490722656
474.276702880859
298.318420410156
162.797164916992
-3.33796191215515
-163.655502319336
-279.911956787109
-345.717468261719
-383.770233154297
-411.809112548828
-422.776702880859
-433.172088623047
-452.246154785156
-468.07763671875
-487.2470703125
-502.315582275391
-494.399841308594
-474.944305419922
-467.600769042969
-463.59521484375
-448.240600585938
-430.406341552734
-412.572082519531
-403.321166992188
-400.078582763672
-383.007293701172
-364.219329833984
-357.448028564453
-347.148040771484
-324.163787841797
-305.280456542969
-298.127685546875
-282.486938476563
-259.025848388672
-242.240661621094
-228.221221923828
-210.577713012695
-190.740676879883
-171.761978149414
-158.600875854492
-144.199951171875
-117.973114013672
-100.329597473145
-97.4684906005859
-87.5499725341797
-76.296272277832
-70.9555358886719
-66.854606628418
-57.1268348693848
-39.1018409729004
-26.4175834655762
-26.7036952972412
-25.7499923706055
-3.5287024974823
19.8370304107666
20.5999927520752
24.891658782959
37.5759124755859
36.0499877929688
34.7148017883301
44.4425773620605
51.4999847412109
55.887020111084
65.0425720214844
71.9092330932617
74.2934951782227
80.6833038330078
84.3073806762695
81.6370086669922
79.06201171875
75.9147872924805
84.2120132446289
98.1360778808594
95.751823425293
99.2805252075195
110.152740478516
107.768486022949
110.152740478516
120.071258544922
121.215698242188
115.970336914063
111.487930297852
112.346260070801
117.49626159668
119.117553710938
123.9814453125
135.807357788086
135.330505371094
128.654586791992
130.085144042969
129.703659057617
122.741630554199
119.59440612793
129.131439208984
138.668472290039
136.66569519043
131.324951171875
131.324951171875
129.894409179688
122.264778137207
113.681442260742
115.779594421387
127.891624450684
134.853652954102
141.243469238281
147.44255065918
146.774948120117
143.15087890625
128.082366943359
110.343482971191
107.86385345459
106.242561340332
101.569412231445
100.234230041504
95.084228515625
92.5092315673828
95.1795959472656
94.2258987426758
87.8360824584961
80.3018264770508
77.9175643920898
71.4323883056641
62.5629425048828
54.2657241821289
44.5379486083984
48.2573928833008
53.8842430114746
46.6360969543457
43.8703575134277
48.734245300293
44.3472061157227
36.2407302856445
35.0962867736816
27.3712882995605
15.6407356262207
13.7333288192749
13.6379585266113
14.7824029922485
19.1694374084473
19.6462898254395
15.5453653335571
5.91296100616455
-8.96481227874756
-13.9240694046021
-12.588885307312
-18.0249938964844
-17.9296245574951
-10.9675893783569
-7.53425693511963
-9.15555286407471
-11.8259220123291
-10.8722190856934
-12.302773475647
-14.3055505752563
-12.302773475647
-7.72499752044678
-7.15277528762817
-12.9703664779663
-20.9814739227295
-24.7962875366211
-17.8342533111572
-10.3953666687012
-13.8286991119385
-24.7009181976318
-31.6629524230957
-30.2323970794678
-31.1861019134521
-37.8620262145996
-39.3879508972168
-35.0962867736816
-34.7148017883301
-38.9110984802246
-38.9110984802246
-36.9083213806152
-37.3851737976074
-38.5296173095703
-38.8157272338867
-35.0009155273438
-39.7694320678711
-50.7370223999023
-46.4453544616699
-38.0527648925781
-40.7231369018555
-43.5842437744141
-39.197208404541
-36.2407302856445
-43.5842437744141
-48.9249839782715
-47.5897979736328
-54.4564628601074
-62.8490524291992
-65.9009017944336
-67.1407165527344
-62.5629425048828
-61.1323890686035
-64.3749771118164
-64.2796096801758
-63.6120147705078
-62.7536849975586
-60.1786842346191
-54.9333152770996
-49.1157264709473
-48.8296127319336
-44.9194297790527
-34.7148017883301
-35.382396697998
-39.2925796508789
-35.4777679443359
-36.5268402099609
-40.913875579834
-42.1536903381348
-42.1536903381348
-40.4370231628418
-33.5703582763672
-26.7990646362305
-25.4638805389404
-24.1286964416504
-22.5074005126953
-28.6111011505127
-31.6629524230957
-25.177770614624
-27.2759170532227
-33.4749908447266
-29.6601753234863
-27.943510055542
-30.8999900817871
-30.4231376647949
-28.0388793945313
-22.125919342041
-19.074068069458
-22.8888816833496
-22.4120292663574
-18.5018463134766
-18.3111057281494
-20.2185115814209
-20.9814739227295
-17.8342533111572
-18.2157344818115
-23.9379558563232
-23.6518440246582
-18.5018463134766
-15.0685138702393
-14.8777732849121
-12.9703664779663
-12.588885307312
-17.4527721405029
-20.9814739227295
-24.6055469512939
-28.2296199798584
-23.2703628540039
-12.7796258926392
-8.29721927642822
-15.2592544555664
-21.6490669250488
-15.9268465042114
-10.204626083374
-10.6814785003662
-8.77407169342041
-5.05462789535522
-4.29166507720947
-14.2101802825928
-30.0416564941406
-25.9407329559326
-10.1092557907104
-2.95648050308228
3.8148136138916
5.43610954284668
-7.82036781311035
-17.9296245574951
-14.7824029922485
-6.48518323898315
-1.71666610240936
-3.147221326828
-2.8611102104187
-2.5749990940094
-9.15555286407471
-6.58055353164673
-0.667592406272888
-8.0111083984375
-10.1092557907104
-8.29721927642822
-7.82036781311035
-0.381481349468231
2.00277709960938
0
1.81203651428223
3.147221326828
5.24536848068237
6.77129411697388
5.62685012817383
7.6296272277832
7.6296272277832
4.10092449188232
5.91296100616455
8.77407169342041
5.05462789535522
0
0.0953703373670578
-1.52592539787292
-0.381481349468231
5.1499981880188
-0.572222054004669
-2.38425850868225
8.58333015441895
12.2074031829834
13.8286991119385
25.3685111999512
29.3740653991699
24.1286964416504
32.6166572570801
39.6740608215332
33.1888771057129
34.1425819396973
31.1861019134521
19.6462898254395
27.943510055542
37.0036926269531
23.3657341003418
19.4555492401123
26.7036952972412
29.6601753234863
35.2870254516602
37.4805450439453
37.1944313049316
39.4833221435547
44.1564674377441
46.5407257080078
41.4860992431641
38.148136138916
37.099063873291
36.6222114562988
39.2925796508789
34.2379531860352
21.5536975860596
9.15555286407471
3.91018390655518
9.15555286407471
6.96203470230103
-3.62407302856445
-2.5749990940094
0.190740674734116
-9.06018257141113
-18.5018463134766
-20.1231422424316
-14.4009208679199
-15.7361059188843
-31.7583236694336
-40.0555419921875
-38.9110984802246
-32.5212860107422
-25.8453617095947
-27.5620288848877
-22.3166599273682
-9.06018257141113
-5.91296100616455
-15.6407356262207
-23.1749935150146
-22.3166599273682
-26.6083240509033
-33.761100769043
-26.4175834655762
-12.3981437683105
-8.10647869110107
-11.7305517196655
-14.5916624069214
-14.2101802825928
-16.4990692138672
-11.9212923049927
-2.76573991775513
-5.43610954284668
-10.2999963760376
-14.4009208679199
-24.7009181976318
-31.5675830841064
-34.3333206176758
-53.5027618408203
-106.337928771973
-177.579574584961
-231.463821411133
-261.028625488281
-278.004547119141
-290.211944580078
-301.847137451172
-295.075836181641
-266.178619384766
-233.180480957031
-178.247161865234
-78.5851593017578
46.8268356323242
171.189758300781
297.460083007813
445.951721191406
594.824829101563
753.044189453125
947.408935546875
1072.7255859375
1079.30615234375
1086.93579101563
1119.93395996094
1097.42651367188
985.652465820313
779.84326171875
526.253540039063
328.741546630859
187.402725219727
29.3740653991699
-121.406440734863
-233.752700805664
-314.626739501953
-359.832305908203
-383.960998535156
-400.841552734375
-412.762817382813
-419.629486083984
-432.409118652344
-466.265594482422
-487.2470703125
-469.698913574219
-453.199859619141
-450.624847412109
-442.232269287109
-425.733184814453
-410.378570556641
-403.70263671875
-400.936920166016
-389.778564453125
-366.985076904297
-345.145263671875
-329.504516601563
-309.381378173828
-291.642486572266
-278.672119140625
-262.64990234375
-250.347137451172
-242.812881469727
-237.090667724609
-228.60270690918
-213.248077392578
-193.220306396484
-170.712905883789
-155.930511474609
-144.104583740234
-124.649032592773
-106.528671264648
-96.7055282592773
-94.5120086669922
-95.084228515625
-90.1249694824219
-78.5851593017578
-65.5194244384766
-56.4592399597168
-47.3990592956543
-29.8509159088135
-14.7824029922485
-11.4444408416748
-2.67036962509155
16.4036979675293
25.6546211242676
29.0879535675049
34.7148017883301
38.0527648925781
41.6768379211426
48.2573928833008
59.7972030639648
76.9638671875
87.3592300415039
86.2147903442383
86.9777526855469
88.9805297851563
86.2147903442383
83.3536758422852
80.8740463256836
84.0212707519531
92.986083984375
97.849967956543
103.381446838379
110.915702819824
115.207366943359
118.545333862305
118.259223937988
116.35181427002
113.299964904785
104.907371520996
109.103668212891
124.076812744141
128.845321655273
131.515701293945
134.281433105469
131.992553710938
134.66291809082
127.605514526367
110.057373046875
103.667556762695
103.667556762695
103.76293182373
104.430519104004
107.005523681641
113.109222412109
123.886070251465
135.425888061523
134.56755065918
126.747184753418
121.501815795898
119.403663635254
119.308296203613
116.161071777344
114.825889587402
118.44995880127
119.59440612793
111.774040222168
103.667556762695
104.239784240723
104.430519104004
100.424964904785
94.9888610839844
95.2749710083008
101.474044799805
94.1305236816406
83.7351608276367
85.3564529418945
82.9721984863281
78.2036819458008
75.6286773681641
68.1897964477539
62.9444236755371
63.5166473388672
59.7972030639648
55.1240577697754
58.2712783813477
56.8407211303711
48.066650390625
43.0120239257813
37.7666549682617
34.3333206176758
28.8972129821777
18.0249938964844
17.5481433868408
15.9268465042114
4.67314672470093
-2.1935179233551
-3.71944332122803
6.1037015914917
8.58333015441895
-4.48240613937378
-7.0574049949646
-1.23981440067291
10.6814785003662
24.4148063659668
16.2129573822021
-5.24536848068237
-19.7416610717773
-23.0796222686768
-22.125919342041
-25.6546211242676
-32.04443359375
-34.7148017883301
-31.6629524230957
-29.1833248138428
-25.2731399536133
-25.7499923706055
-37.6712837219238
-36.8129501342773
-28.9925842285156
-33.2842483520508
-30.4231376647949
-27.7527694702148
-37.0036926269531
-41.962947845459
-38.6249885559082
-30.8999900817871
-29.1833248138428
-28.2296199798584
-23.8425846099854
-29.8509159088135
-37.4805450439453
-39.0064697265625
-43.9657249450684
-51.0231323242188
-51.4999847412109
-43.9657249450684
-32.5212860107422
-35.1916542053223
-44.4425773620605
-29.3740653991699
-24.2240657806396
-43.2027626037598
-45.5870208740234
-43.2027626037598
-45.8731346130371
-35.0962867736816
-29.9462871551514
-44.7286911010742
-53.4073905944824
-51.1185035705566
-49.8786888122559
-50.355541229248
-56.7453536987305
-63.2305335998535
-63.1351661682129
-64.3749771118164
-64.8518295288086
-62.1814613342285
-56.3638725280762
-48.5435028076172
-46.2546157836914
-47.6851692199707
-43.9657249450684
-41.7722091674805
-43.679615020752
-38.6249885559082
-38.9110984802246
-49.5925750732422
-50.4509086608887
-41.3907279968262
-39.1018409729004
-41.1046180725098
-39.3879508972168
-35.6685066223145
-24.6055469512939
-11.2537002563477
-8.86944198608398
-12.2074031829834
-14.8777732849121
-14.4009208679199
-13.7333288192749
-24.2240657806396
-38.2435073852539
-43.7749862670898
-40.4370231628418
-30.8046188354492
-24.2240657806396
-25.2731399536133
-22.6027698516846
-16.9759197235107
-20.3138828277588
-20.7907333374023
-12.3981437683105
-10.1092557907104
-13.4472179412842
-13.3518476486206
-16.8805503845215
-26.3222141265869
-30.995361328125
-29.6601753234863
-25.177770614624
-25.5592517852783
-28.9925842285156
-26.7036952972412
-21.7444381713867
-13.5425882339478
-4.29166507720947
-2.67036962509155
-6.6759238243103
-8.67870044708252
-12.4935140609741
-19.9324016571045
-16.5944385528564
-8.67870044708252
-10.6814785003662
-12.3981437683105
-10.9675893783569
-18.0249938964844
-24.9870281219482
-17.1666603088379
-3.33796191215515
3.43333220481873
7.34351634979248
9.63240432739258
6.19907188415527
6.58055353164673
8.10647869110107
-5.1499981880188
-17.357400894165
-13.0657367706299
-6.77129411697388
-5.53147983551025
-5.24536848068237
0.190740674734116
10.9675893783569
14.687032699585
5.1499981880188
-2.38425850868225
0.381481349468231
-1.43055510520935
-4.86388731002808
3.91018390655518
5.53147983551025
-3.43333220481873
-0.190740674734116
3.24259161949158
-2.67036962509155
-3.91018390655518
-1.62129580974579
-1.43055510520935
-0.286111027002335
6.96203470230103
9.9185152053833
5.81759071350098
13.6379585266113
24.4148063659668
19.1694374084473
9.63240432739258
6.58055353164673
11.1583299636841
24.7009181976318
30.8046188354492
26.5129547119141
30.70924949646
37.1944313049316
33.9518394470215
24.9870281219482
18.9786968231201
28.2296199798584
39.6740608215332
35.8592491149902
35.382396697998
42.1536903381348
42.9166526794434
46.4453544616699
46.2546157836914
41.1999855041504
41.962947845459
34.9055442810059
20.6953639984131
16.4990692138672
18.5972156524658
16.022216796875
9.72777462005615
3.43333220481873
2.00277709960938
4.29166507720947
5.7222204208374
9.44166374206543
6.19907188415527
-2.95648050308228
0.190740674734116
-2.09814739227295
-20.1231422424316
-29.9462871551514
-30.1370277404785
-28.1342506408691
-26.3222141265869
-32.3305435180664
-31.1861019134521
-19.360179901123
-18.1203651428223
-19.8370304107666
-20.2185115814209
-25.9407329559326
-28.1342506408691
-27.5620288848877
-26.4175834655762
-24.891658782959
-26.7036952972412
-23.9379558563232
-18.5018463134766
-12.6842555999756
-4.95925760269165
-12.1120328903198
-26.1314735412598
-26.1314735412598
-14.4962921142578
-4.67314672470093
-6.86666440963745
-17.0712909698486
-34.810173034668
-72.4814605712891
-129.417556762695
-188.261047363281
-231.559188842773
-253.494369506836
-271.614715576172
-283.631378173828
-276.955474853516
-264.748077392578
-236.327697753906
-179.3916015625
-94.03515625
30.5185089111328
152.306427001953
242.240661621094
357.543395996094
498.882232666016
630.970153808594
786.614562988281
918.034912109375
959.23486328125
967.818237304688
984.031188964844
990.993225097656
950.079345703125
799.584899902344
562.589660644531
362.788787841797
226.123077392578
83.0675659179688
-63.2305335998535
-190.454574584961
-292.119354248047
-358.973968505859
-396.359130859375
-405.705413818359
-407.994323730469
-405.705413818359
-385.773010253906
-388.7294921875
-410.187835693359
-401.795227050781
-384.628570556641
-377.666534423828
-371.753570556641
-368.797119140625
-352.965637207031
-335.798980712891
-335.894348144531
-333.605438232422
-324.640625
-316.343414306641
-306.424896240234
-288.018432617188
-264.938812255859
-239.188812255859
-210.291595458984
-197.130493164063
-195.795303344727
-183.492538452148
-174.623092651367
-180.249938964844
-173.860122680664
-150.685134887695
-135.044403076172
-127.510147094727
-111.964782714844
-95.1795959472656
-90.6971969604492
-88.1221923828125
-78.7759017944336
-68.9527587890625
-59.8925743103027
-55.6009063720703
-52.6444282531738
-38.2435073852539
-23.4611034393311
-13.8286991119385
-2.95648050308228
2.38425850868225
6.29444265365601
16.4990692138672
23.7472152709961
30.5185089111328
39.4833221435547
45.300910949707
47.2083168029785
43.1073951721191
43.679615020752
51.404613494873
58.9388694763184
70.1925735473633
77.5360870361328
81.0647888183594
83.4490509033203
76.0101623535156
73.6259002685547
84.7842330932617
94.1305236816406
98.7083053588867
102.427742004395
98.0407104492188
87.8360824584961
88.8851547241211
98.1360778808594
94.2258987426758
87.7407150268555
97.0870056152344
104.716636657715
102.427742004395
103.572189331055
105.098114013672
102.332374572754
104.049041748047
107.196258544922
113.20458984375
123.409217834473
120.262001037598
110.057373046875
106.814781188965
105.098114013672
100.424964904785
98.1360778808594
102.52311706543
103.953666687012
106.528671264648
111.583297729492
103.953666687012
94.1305236816406
95.5610809326172
101.283302307129
104.144409179688
107.291633605957
111.201812744141
108.340705871582
100.138854980469
85.5471954345703
72.0999755859375
71.9092330932617
73.4351654052734
76.1055297851563
82.7814559936523
83.2583084106445
76.1055297851563
64.3749771118164
60.6555366516113
59.4157218933105
47.6851692199707
40.7231369018555
41.1999855041504
44.8240585327148
49.2110939025879
45.5870208740234
36.7175827026367
29.9462871551514
27.3712882995605
17.6435127258301
-1.81203651428223
-11.2537002563477
-8.86944198608398
-8.0111083984375
-7.15277528762817
-4.67314672470093
-3.33796191215515
-2.67036962509155
-6.48518323898315
-14.1148099899292
-14.687032699585
-15.0685138702393
-21.0768451690674
-16.4036979675293
-2.76573991775513
4.1962947845459
0.190740674734116
-5.05462789535522
-3.71944332122803
-5.81759071350098
-12.7796258926392
-15.9268465042114
-19.1694374084473
-20.0277709960938
-14.4962921142578
-13.3518476486206
-12.8749961853027
-9.25092315673828
-12.7796258926392
-20.0277709960938
-24.6055469512939
-22.6981410980225
-20.409252166748
-28.5157318115234
-36.6222114562988
-41.5814666748047
-41.962947845459
-35.9546165466309
-33.6657295227051
-26.7036952972412
-16.9759197235107
-17.738883972168
-21.4583263397217
-20.1231422424316
-17.8342533111572
-27.0851764678955
-42.0583190917969
-43.7749862670898
-41.0092468261719
-45.0148010253906
-44.5379486083984
-41.3907279968262
-40.5323944091797
-34.810173034668
-29.6601753234863
-31.5675830841064
-29.7555465698242
-24.5101776123047
-26.1314735412598
-27.657398223877
-30.6138782501221
-35.4777679443359
-32.1398048400879
-39.4833221435547
-49.4972076416016
-38.4342460632324
-32.2351760864258
-37.3851737976074
-32.3305435180664
-28.4203605651855
-33.2842483520508
-34.6194343566895
-30.1370277404785
-34.1425819396973
-42.9166526794434
-37.1944313049316
-30.2323970794678
-36.5268402099609
-38.5296173095703
-36.2407302856445
-39.2925796508789
-39.2925796508789
-33.1888771057129
-29.6601753234863
-30.3277683258057
-28.2296199798584
-26.6083240509033
-27.657398223877
-30.4231376647949
-39.864803314209
-43.7749862670898
-39.864803314209
-41.4860992431641
-36.6222114562988
-26.5129547119141
-19.2648086547852
-13.3518476486206
-20.409252166748
-27.0851764678955
-26.0361022949219
-25.0823993682861
-17.1666603088379
-10.6814785003662
-12.9703664779663
-7.82036781311035
-3.62407302856445
-8.20184898376465
-11.1583299636841
-10.4907369613647
-6.1037015914917
-4.38703584671021
-11.0629596710205
-14.8777732849121
-6.6759238243103
-2.5749990940094
-10.4907369613647
-10.8722190856934
-9.15555286407471
-16.2129573822021
-14.7824029922485
-3.05185079574585
1.62129580974579
-7.34351634979248
-15.5453653335571
-18.1203651428223
-21.0768451690674
-15.6407356262207
-13.9240694046021
-22.2212886810303
-16.9759197235107
-4.57777643203735
2.28888821601868
7.24814605712891
4.48240613937378
-1.71666610240936
-6.58055353164673
-10.5861072540283
-6.48518323898315
2.38425850868225
8.0111083984375
4.29166507720947
-7.0574049949646
-5.81759071350098
5.62685012817383
8.77407169342041
10.2999963760376
12.0166625976563
9.15555286407471
3.8148136138916
-3.05185079574585
-3.5287024974823
2.76573991775513
0.667592406272888
-4.10092449188232
1.52592539787292
6.86666440963745
8.20184898376465
8.48795986175537
4.00555419921875
4.29166507720947
13.0657367706299
17.4527721405029
10.3953666687012
7.91573810577393
16.6898097991943
18.787956237793
14.8777732849121
15.1638841629028
13.0657367706299
4.67314672470093
3.71944332122803
14.4962921142578
22.2212886810303
28.9925842285156
37.8620262145996
43.4888763427734
49.4972076416016
49.5925750732422
40.1509132385254
34.5240631103516
36.5268402099609
37.0036926269531
33.1888771057129
31.9490642547607
31.5675830841064
21.4583263397217
6.38981294631958
-1.33518481254578
2.8611102104187
8.86944198608398
0.572222054004669
-12.1120328903198
-17.9296245574951
-24.7009181976318
-28.4203605651855
-22.6981410980225
-21.9351787567139
-25.3685111999512
-18.9786968231201
-20.6953639984131
-35.6685066223145
-32.6166572570801
-22.8888816833496
-29.1833248138428
-27.8481388092041
-13.1611070632935
-16.4036979675293
-33.3796195983887
-40.2462844848633
-42.8212814331055
-46.3499870300293
-40.3416519165039
-30.0416564941406
-25.2731399536133
-18.5972156524658
-15.7361059188843
-21.4583263397217
-18.787956237793
-9.06018257141113
-6.19907188415527
-5.62685012817383
0.190740674734116
6.6759238243103
-0.381481349468231
-18.4064750671387
-31.5675830841064
-51.7860946655273
-105.193481445313
-176.911987304688
-230.414733886719
-258.262878417969
-273.4267578125
-289.162872314453
-296.124908447266
-278.004547119141
-245.197143554688
-200.182342529297
-130.085144042969
-25.8453617095947
101.950889587402
211.054565429688
326.261932373047
487.628540039063
635.071105957031
776.982177734375
939.302490234375
1028.09228515625
1037.53393554688
1045.83117675781
1056.89416503906
1031.81164550781
909.070068359375
681.134948730469
442.899871826172
276.383239746094
141.624954223633
-16.6898097991943
-165.944396972656
-273.808258056641
-343.810089111328
-380.527648925781
-395.596160888672
-400.841552734375
-403.225799560547
-404.942474365234
-411.236907958984
-427.068389892578
-440.706329345703
-437.368377685547
-416.959136962891
-397.694305419922
-388.634124755859
-378.811004638672
-364.219329833984
-356.68505859375
-357.448028564453
-355.254516601563
-350.104522705078
-340.567474365234
-312.719329833984
-278.672119140625
-261.696197509766
-251.682327270508
-238.902694702148
-220.496231079102
-205.332336425781
-205.999938964844
-200.277709960938
-186.449020385742
-179.3916015625
-164.418472290039
-146.584213256836
-131.992553710938
-109.103668212891
-94.03515625
-94.2258987426758
-87.8360824584961
-76.296272277832
-69.4296035766602
-60.1786842346191
-48.5435028076172
-37.0036926269531
-23.8425846099854
-6.48518323898315
9.537034034729
14.0194396972656
18.4064750671387
30.2323970794678
32.5212860107422
32.6166572570801
42.8212814331055
43.7749862670898
38.8157272338867
38.0527648925781
40.3416519165039
51.5953521728516
58.652759552002
59.5110931396484
64.756462097168
67.903678894043
70.6694183349609
79.3481216430664
89.5527496337891
96.9916381835938
100.234230041504
94.7981185913086
87.5499725341797
86.6916351318359
94.6073760986328
105.479598999023
105.956443786621
104.049041748047
103.858299255371
97.182373046875
97.4684906005859
102.141632080078
104.907371520996
118.640701293945
127.986999511719
121.024963378906
112.727745056152
109.00830078125
107.100891113281
100.901817321777
101.283302307129
119.403663635254
127.224029541016
117.400886535645
116.065704345703
114.825889587402
105.956443786621
105.384223937988
102.61848449707
86.8823776245117
76.9638671875
80.8740463256836
82.9721984863281
85.0703430175781
95.084228515625
103.953666687012
107.196258544922
106.624038696289
101.664779663086
90.6971969604492
79.06201171875
73.9120101928711
75.0564575195313
77.4407196044922
78.7759017944336
77.7268295288086
70.8601608276367
64.5657196044922
67.0453491210938
60.4647941589355
44.8240585327148
47.4944305419922
54.0749816894531
44.3472061157227
41.2953567504883
51.0231323242188
57.4129447937012
53.121280670166
40.5323944091797
27.943510055542
17.6435127258301
9.44166374206543
12.588885307312
18.5972156524658
12.0166625976563
10.7768487930298
15.0685138702393
8.29721927642822
-1.52592539787292
-5.91296100616455
-10.9675893783569
-22.4120292663574
-22.6027698516846
-8.3925895690918
-8.10647869110107
-19.9324016571045
-18.5018463134766
-9.06018257141113
-11.3490705490112
-19.4555492401123
-22.2212886810303
-23.5564746856689
-22.7935104370117
-20.0277709960938
-16.8805503845215
-10.5861072540283
-10.204626083374
-16.8805503845215
-17.6435127258301
-20.1231422424316
-29.7555465698242
-35.8592491149902
-40.4370231628418
-38.7203598022461
-29.9462871551514
-33.9518394470215
-40.913875579834
-36.0499877929688
-34.0472106933594
-35.6685066223145
-31.1861019134521
-28.4203605651855
-27.1805477142334
-24.891658782959
-29.1833248138428
-28.5157318115234
-20.409252166748
-24.7962875366211
-33.4749908447266
-31.6629524230957
-32.4259147644043
-37.4805450439453
-35.1916542053223
-30.0416564941406
-27.3712882995605
-25.5592517852783
-29.3740653991699
-32.1398048400879
-30.995361328125
-31.8536930084229
-35.0009155273438
-38.2435073852539
-33.761100769043
-30.70924949646
-32.9981384277344
-33.0935096740723
-39.4833221435547
-45.6823921203613
-41.2953567504883
-37.7666549682617
-33.2842483520508
-25.5592517852783
-28.3249912261963
-30.70924949646
-24.891658782959
-26.8944358825684
-32.9027671813965
-35.0009155273438
-38.2435073852539
-30.8999900817871
-18.4064750671387
-19.8370304107666
-23.2703628540039
-27.1805477142334
-38.5296173095703
-47.3990592956543
-49.9740562438965
-47.9712791442871
-44.251838684082
-38.3388748168945
-30.8046188354492
-24.9870281219482
-19.7416610717773
-14.9731435775757
-14.687032699585
-19.2648086547852
-21.839807510376
-21.2675857543945
-19.9324016571045
-20.409252166748
-22.6981410980225
-23.8425846099854
-24.0333251953125
-20.409252166748
-15.6407356262207
-16.022216796875
-16.4990692138672
-18.5018463134766
-24.5101776123047
-25.0823993682861
-17.2620315551758
-8.67870044708252
-9.34629344940186
-6.6759238243103
6.86666440963745
4.86388731002808
-1.9074068069458
1.52592539787292
-2.1935179233551
-10.4907369613647
-17.357400894165
-23.8425846099854
-22.125919342041
-13.8286991119385
-8.86944198608398
-9.537034034729
-13.7333288192749
-18.4064750671387
-19.9324016571045
-18.6925868988037
-14.687032699585
-8.77407169342041
-7.15277528762817
-8.48795986175537
-6.38981294631958
-5.62685012817383
-1.14444410800934
5.7222204208374
6.29444265365601
10.8722190856934
14.7824029922485
12.4935140609741
16.5944385528564
17.738883972168
5.1499981880188
-1.9074068069458
-4.7685170173645
-19.360179901123
-26.226842880249
-10.7768487930298
1.62129580974579
-0.9537034034729
-0.572222054004669
3.147221326828
-3.147221326828
-6.1037015914917
5.24536848068237
12.2074031829834
3.8148136138916
-5.1499981880188
-5.91296100616455
-2.95648050308228
3.62407302856445
12.0166625976563
18.787956237793
18.0249938964844
9.537034034729
5.43610954284668
15.4499950408936
30.0416564941406
34.810173034668
39.7694320678711
48.5435028076172
43.7749862670898
32.2351760864258
32.1398048400879
34.3333206176758
33.9518394470215
35.2870254516602
35.0009155273438
28.0388793945313
13.4472179412842
8.3925895690918
6.58055353164673
-6.86666440963745
-12.588885307312
-4.7685170173645
0
-2.8611102104187
-13.4472179412842
-21.7444381713867
-19.7416610717773
-23.7472152709961
-32.04443359375
-32.2351760864258
-28.2296199798584
-20.5046234130859
-17.0712909698486
-24.4148063659668
-27.943510055542
-23.4611034393311
-21.839807510376
-28.2296199798584
-34.810173034668
-32.2351760864258
-23.6518440246582
-18.1203651428223
-19.2648086547852
-19.8370304107666
-16.4036979675293
-12.4935140609741
-5.7222204208374
0.667592406272888
-1.62129580974579
-11.0629596710205
-15.6407356262207
-13.4472179412842
-12.0166625976563
-13.8286991119385
-21.0768451690674
-26.8944358825684
-34.3333206176758
-72.3860855102539
-145.344390869141
-215.632339477539
-260.837890625
-286.778625488281
-298.986022949219
-299.939727783203
-286.778625488281
-260.074920654297
-225.264739990234
-180.536056518555
-102.52311706543
21.6490669250488
144.390701293945
251.110107421875
390.350799560547
539.986877441406
674.649780273438
842.978454589844
999.671875
1050.50427246094
1052.50708007813
1077.58947753906
1082.83483886719
1020.36724853516
865.008972167969
622.00537109375
392.067474365234
238.235107421875
94.5120086669922
-61.6092376708984
-188.0703125
-279.339721679688
-346.575805664063
-385.391540527344
-397.026733398438
-407.231353759766
-418.294311523438
-421.536895751953
-436.605407714844
-458.254486083984
-460.829467773438
-447.859130859375
-432.027648925781
-417.912841796875
-403.225799560547
-383.674865722656
-367.366546630859
-364.791564941406
-365.840637207031
-360.785980224609
-350.199890136719
-330.648956298828
-315.866577148438
-301.847137451172
-269.039733886719
-242.526779174805
-229.461044311523
-218.588821411133
-222.499008178711
-222.022155761719
-206.858261108398
-191.408279418945
-167.661056518555
-144.581436157227
-132.755508422852
-115.302742004395
-98.2314529418945
-92.0323791503906
-86.5962677001953
-80.2064590454102
-72.6721954345703
-62.6583137512207
-51.0231323242188
-45.8731346130371
-41.1046180725098
-24.7009181976318
-10.5861072540283
2.47962880134583
11.9212923049927
7.43888664245605
8.20184898376465
22.125919342041
35.4777679443359
40.5323944091797
43.7749862670898
49.4018363952637
51.5953521728516
56.6499824523926
63.2305335998535
70.4786834716797
84.8796005249023
89.3620071411133
85.7379379272461
84.5934906005859
82.3046035766602
85.7379379272461
92.1277465820313
102.427742004395
115.874961853027
121.597183227539
118.545333862305
113.586074829102
115.779594421387
117.973114013672
114.921257019043
109.485153198242
100.329597473145
98.2314529418945
102.046264648438
105.574966430664
112.346260070801
114.539779663086
108.912925720215
105.956443786621
109.771263122559
117.49626159668
120.166625976563
112.727745056152
107.482376098633
107.95922088623
109.96199798584
113.490707397461
113.872184753418
108.912925720215
98.8036727905273
92.5092315673828
98.9944152832031
105.002746582031
99.948112487793
103.381446838379
117.305519104004
116.733299255371
111.774040222168
108.912925720215
97.5638580322266
84.8796005249023
76.1055297851563
73.4351654052734
74.4842376708984
71.3370132446289
69.1434936523438
75.8194198608398
78.9666442871094
78.394416809082
78.8712692260742
69.5249786376953
59.701831817627
53.7888717651367
50.355541229248
55.7916488647461
57.1268348693848
57.6036834716797
63.039794921875
53.3120193481445
36.8129501342773
29.4694347381592
18.1203651428223
2.95648050308228
-2.76573991775513
-1.23981440067291
2.00277709960938
8.0111083984375
7.72499752044678
4.00555419921875
7.0574049949646
2.8611102104187
-1.9074068069458
-2.67036962509155
-13.1611070632935
-13.9240694046021
-4.10092449188232
-3.8148136138916
-1.81203651428223
-1.04907369613647
-8.0111083984375
-9.9185152053833
-14.0194396972656
-15.4499950408936
-14.0194396972656
-26.1314735412598
-31.3768424987793
-20.5999927520752
-9.25092315673828
-5.91296100616455
-13.1611070632935
-20.9814739227295
-25.7499923706055
-27.4666576385498
-23.1749935150146
-21.6490669250488
-25.3685111999512
-33.2842483520508
-39.1018409729004
-31.7583236694336
-26.6083240509033
-30.6138782501221
-32.8073959350586
-33.2842483520508
-35.6685066223145
-46.1592445373535
-51.9768333435059
-41.5814666748047
-36.6222114562988
-39.197208404541
-43.4888763427734
-54.170352935791
-52.7397994995117
-43.9657249450684
-45.2055397033691
-41.3907279968262
-36.6222114562988
-43.7749862670898
-45.0148010253906
-36.8129501342773
-31.7583236694336
-33.6657295227051
-33.1888771057129
-23.3657341003418
-26.8944358825684
-36.3360977172852
-26.8944358825684
-25.9407329559326
-35.1916542053223
-31.9490642547607
-34.5240631103516
-40.3416519165039
-40.1509132385254
-47.8759117126465
-49.8786888122559
-39.864803314209
-39.7694320678711
-45.300910949707
-41.6768379211426
-41.7722091674805
-49.9740562438965
-50.9277610778809
-40.1509132385254
-29.8509159088135
-26.8944358825684
-24.6055469512939
-27.943510055542
-33.1888771057129
-31.0907306671143
-32.8073959350586
-35.2870254516602
-33.1888771057129
-34.810173034668
-35.6685066223145
-33.761100769043
-28.5157318115234
-19.360179901123
-22.125919342041
-35.6685066223145
-40.7231369018555
-31.2814712524414
-19.8370304107666
-19.6462898254395
-21.9351787567139
-21.5536975860596
-21.839807510376
-11.4444408416748
-0.381481349468231
-10.7768487930298
-15.5453653335571
-2.00277709960938
-0.858333051204681
-5.43610954284668
-3.43333220481873
-10.9675893783569
-18.8833274841309
-14.8777732849121
-13.1611070632935
-11.635181427002
-8.0111083984375
-18.5018463134766
-29.0879535675049
-22.0305480957031
-16.4036979675293
-16.022216796875
-5.91296100616455
7.6296272277832
9.82314491271973
1.9074068069458
0.0953703373670578
1.52592539787292
-8.29721927642822
-21.2675857543945
-20.5999927520752
-11.8259220123291
-4.7685170173645
-3.5287024974823
0.381481349468231
7.82036781311035
-1.9074068069458
-14.2101802825928
-9.06018257141113
-9.72777462005615
-15.9268465042114
-9.82314491271973
-6.38981294631958
-6.1037015914917
5.7222204208374
13.8286991119385
10.9675893783569
14.687032699585
21.6490669250488
24.2240657806396
16.7851791381836
0.190740674734116
3.24259161949158
11.9212923049927
0.9537034034729
-1.23981440067291
11.4444408416748
20.5999927520752
24.6055469512939
31.6629524230957
44.3472061157227
50.2601699829102
48.5435028076172
48.734245300293
47.4944305419922
41.2953567504883
25.8453617095947
13.3518476486206
9.25092315673828
4.7685170173645
12.302773475647
18.2157344818115
11.8259220123291
7.0574049949646
-3.33796191215515
-14.5916624069214
-23.5564746856689
-32.7120246887207
-30.995361328125
-24.4148063659668
-20.5046234130859
-22.9842510223389
-25.6546211242676
-21.0768451690674
-25.8453617095947
-32.1398048400879
-23.8425846099854
-19.360179901123
-22.3166599273682
-23.1749935150146
-28.7064723968506
-37.9573936462402
-36.431468963623
-24.5101776123047
-14.5916624069214
-13.7333288192749
-20.7907333374023
-23.4611034393311
-19.5509204864502
-25.177770614624
-32.5212860107422
-20.3138828277588
-10.9675893783569
-19.6462898254395
-24.891658782959
-22.0305480957031
-21.0768451690674
-20.5046234130859
-18.787956237793
-21.839807510376
-21.3629570007324
-20.409252166748
-40.4370231628418
-87.7407150268555
-157.647171020508
-222.499008178711
-249.107330322266
-261.886962890625
-281.247131347656
-279.72119140625
-260.074920654297
-238.521224975586
-207.43049621582
-150.399032592773
-45.5870208740234
84.5934906005859
186.449020385742
293.168426513672
451.00634765625
601.500732421875
745.509948730469
918.7978515625
1030.57189941406
1047.92932128906
1052.88854980469
1072.53479003906
1053.17468261719
941.877502441406
736.640502929688
495.735015869141
307.378601074219
163.655502319336
8.96481227874756
-132.56477355957
-244.815658569336
-332.556365966797
-386.345245361328
-411.332275390625
-417.340606689453
-410.473937988281
-401.890625
-410.950805664063
-433.458190917969
-437.368377685547
-421.536895751953
-405.705413818359
-386.345245361328
-363.933227539063
-354.682281494141
-354.968414306641
-353.919342041016
-352.870269775391
-350.295257568359
-348.578582763672
-346.861938476563
-332.270263671875
-305.280456542969
-279.053619384766
-261.600830078125
-243.861953735352
-223.643447875977
-215.82307434082
-207.525863647461
-186.544387817383
-173.383270263672
-165.467544555664
-152.974029541016
