Value(bpm)
87.2727272727273
87.3347060144422
87.3955208061543
87.4539128817323
87.5086170698246
87.5583626653769
87.6018746721608
87.6378754190203
87.6650865508104
87.6822313927946
87.6880376846117
87.6812406768201
87.6605865795003
87.6248363484837
87.5727697905152
87.5031899641062
87.4149278480666
87.306847244794
87.1783914501995
87.0342611904431
86.8820353785185
86.7292291349312
86.583254157313
86.451424467878
86.3409745556161
86.2590895621685
86.2129473325551
86.209772406434
86.2569023637647
86.3612464355751
86.5204297401244
86.7247369097737
86.9642239507687
87.228821996633
87.5082650357097
87.7920406022278
88.0693646200818
88.3291819764551
88.5601945458601
88.7509182529867
88.8910388034385
88.9802494297855
89.0231370558601
89.0244903104319
88.9892242852285
88.9223374351005
88.8288734650449
88.713888624328
88.5824246637199
88.4394875709896
88.2900320852719
88.1386307777897
87.988096923071
87.8406463564483
87.6984652030939
87.5637124424191
87.4385231663269
87.3250128586745
87.2252826745011
87.1414257074518
87.0755342456321
87.0297080298883
87.0054405008753
87.0006141494659
87.0118233012647
87.0356774704254
87.0687919857582
87.1077794530397
87.1492438499349
87.1897772561282
87.2259592362914
87.2543588999182
87.271539659709
87.2747358890611
87.2650998346516
87.2452082506937
87.2176437420456
87.1849875165769
87.1498156172484
87.1146966827126
87.0821912286554
87.054852438445
87.035228451756
87.0258661436409
87.0289297656662
87.0441050730965
87.0701015927144
87.1056320455032
87.1494117782211
87.2001561242962
87.2565781438853
87.3173867408266
87.3812851567907
87.4469698450483
87.5131297279217
87.5782600922934
87.6397610593835
87.6946251313327
87.7398315859807
87.7723525962529
87.7891609044176
87.7872395817979
87.7635938386176
87.7152648177084
87.63934526953
87.5329969650321
87.394393710838
87.2266875149637
87.0346546652916
86.823038870794
86.5965271174396
86.3597318333901
86.1171782137468
85.8732965143445
85.6324190809804
85.3987818596262
85.1765301326748
84.9694713106514
84.7778773662453
84.5995369197321
84.432232277752
84.273788758974
84.1220694751842
83.9749712726206
83.8304217805198
83.6863775216229
83.5408230447527
83.3917710426887
83.2372639903584
83.0762761076717
82.9105153686749
82.7421749227184
82.5734138471313
82.4063565374303
82.2430932089967
82.0856814640307
81.9361488801541
81.7964965817518
81.6687037618468
81.5547331308755
81.4565299155381
81.3755214818842
81.3123008102712
81.2674014136523
81.2413784045391
81.2348111111175
81.2483058568559
81.282498923808
81.3380597222404
81.4156941919539
81.5161484637929
81.6402128133881
81.788524719586
81.9582485758377
82.143529812095
82.3383317491734
82.5365107650041
82.7318059795982
82.9178382161606
83.0881187013139
83.2360679464123
83.355045164971
83.4383884237853
83.4794659492684
83.473966842348
83.425120471206
83.3378111351481
83.2169988007752
83.0676769240155
82.8948359873112
82.7034330152702
82.4983671658818
82.2844613578485
82.0664497891534
81.8489711275391
81.6365490728963
81.4323566705988
81.2374545359075
81.0526977956253
80.8789313756221
80.7169923972455
80.5677127301008
80.4319217031623
80.3104489785208
80.2041275945547
80.1137971879623
80.0403074069323
79.9845045927618
79.9460665961187
79.92275239207
79.91216502363
79.9119238703339
79.9196577773924
79.9329996175536
79.9495822649423
79.9670359719667
79.9829871486618
79.9950585486274
80.000870867005
79.998071873048
79.9861447451186
79.9675772785209
79.9451346947493
79.9215778735627
79.8996616340087
79.8821349192307
79.8717428748686
79.8712308141426
79.8833500714412
79.9108657604297
79.9565664724406
80.0232479463502
80.1117856699637
80.2198613541546
80.3448607968588
80.4841596910445
80.6351131436119
80.7950468675055
80.9612500681081
81.130970067422
81.3014087274946
81.4697207477985
81.6330139194992
81.7884296440859
81.9344387690159
82.0706635016617
82.1967661098423
82.3124130040338
82.4172755023958
82.5110306120436
82.5933618239925
82.6639599189988
82.7225237813176
82.7687612172133
82.8023897748801
82.8233692528873
82.8326891225951
82.8316297100616
82.8214797043516
82.8035331221779
82.779086673818
82.7494375300997
82.7158814948388
82.6797115844507
82.6422170143211
82.6046825899293
82.5683756984564
82.5338464612938
82.5005695126251
82.4679324698495
82.4353249394296
82.4021384653657
82.3677665677522
82.3316048706499
82.2930513184566
82.251506479856
82.2063739382644
82.1570607674863
82.1032174740533
82.0473845705423
81.9940018897567
81.9475208389071
81.9123750614128
81.892990343292
81.8937992977938
81.9192608674566
81.9738847607923
82.0622610420105
82.1890952188938
82.3592493297587
82.576230529836
82.8374881918007
83.1389624542218
83.4765843122385
83.8462349648266
84.2437088062429
84.6646800094917
85.1046728023279
85.5590356775722
86.0229199094897
86.4912628652928
86.9589938138487
87.4219852448625
87.8763266047523
88.3179559108029
88.742667287699
89.1461229207012
89.5238694843432
89.8713592903225
90.1839763240944
90.4570672432583
90.6860138703182
90.8688118154137
91.0078022852117
91.1058856752758
91.1661063280619
91.191625765018
91.1856972911559
91.151642324825
91.0928287387526
91.012651433479
90.9145153031945
90.8018059105741
90.6777640934585
90.5455405240852
90.4082551221802
90.2689931885582
90.1308031438406
89.9966963596705
89.8696490176358
89.7526059338451
89.6484862953526
89.560191241378
89.489654295746
89.4353268349619
89.3948927558459
89.3660586514105
89.346547283292
89.3340922553315
89.3264338601868
89.3213160810485
89.3164847381688
89.3096867750753
89.2986874121757
89.2827691585469
89.263916148009
89.2443889810323
89.2264445193326
89.2123361171651
89.2043149915397
89.204632728533
89.2155449269825
89.2393159873779
89.278225062735
89.3344097693744
89.4067716251243
89.4912079299889
89.5834840798466
89.6793361653974
89.7744654430288
89.8645368784922
89.9451818508348
90.0120051018027
90.0605959965334
90.0865441242493
90.0863206254504
90.0614658654439
90.0153768188669
89.9514726296883
89.873177359935
89.7839078316843
89.6870640837127
89.5860224411332
89.4841311702288
89.3847086729697
89.2910430435213
89.2055839123444
89.1285250730155
89.0596803056903
88.9988689377728
88.9459155297998
88.9006495753968
88.862905214396
88.8325209582719
88.8093394271071
88.7932070973581
88.7839798425083
88.7819221986367
88.7879663745292
88.8031108043727
88.8283604935062
88.8647291882114
88.9132417900889
88.974937025518
89.0508703832172
89.142117335775
89.2497768642136
89.3748736586499
89.5166848948331
89.6729813060274
89.8414682481375
90.0198263114873
90.2057053756591
90.3967198270832
90.5904449779812
90.7844147348663
90.9761205718543
91.1630118704306
91.3425737842705
91.5125337480111
91.6706552088141
91.8146800678191
91.9423348546806
92.0513380540855
92.1394085797251
92.2042753749295
92.2436881006372
92.2554288507897
92.2376247775227
92.1925285079922
92.1253627513075
92.0414218404779
91.9459847473401
91.8442990145195
91.7415707589779
91.6429606569136
91.5535857866937
91.4785272017787
91.4228396354128
91.3890433285693
91.3726911981855
91.3681696565299
91.3698801119274
91.372227897522
91.3696180643071
91.3564580262174
91.3271670490992
91.2761925442228
91.198033060987
91.0877230452534
90.9473690254947
90.7845442661554
90.6069025313907
90.4220011413212
90.2372831694859
90.0600721864387
89.8975790587696
89.7569203213838
89.6451477290026
89.569288755278
89.5350934899806
89.5407804869747
89.5819168255686
89.6541411860449
89.7531350340494
89.8745944379587
90.0142061062472
90.1676275324921
90.3304712247599
90.4982930687155
90.6666080798505
90.8329682349231
90.9986548432775
91.1653588884786
91.3347962760303
91.5087086548061
91.6888649058555
91.8770633259623
92.0751345365168
92.2849451526871
92.5084022536596
92.7468171276007
92.99811568496
93.2590498776271
93.5263023560912
93.7964809121779
94.0661145535693
94.3316520605965
94.5894631790975
94.8358426051939
95.0670169111236
95.2798192742829
95.4757880643615
95.6585680347935
95.8318837362433
95.9995227789509
96.1653300806017
96.333205101097
96.5071021851763
96.6910341306624
96.8890791077328
97.1038118420657
97.3294460485594
97.55730048811
97.7785303741847
97.9841322405642
98.1649635488155
98.3117794418347
98.4152870938413
98.4662177515099
98.455429031055
98.3791918599542
98.247132132366
98.0710136084673
97.8625776545685
97.6334533965426
97.395096184397
97.1587537809064
96.9354592215637
96.7360491017248
96.5711777084104
96.4466255626166
96.3580867006163
96.3000856370804
96.2672379691242
96.2542193177019
96.2557404712961
96.2665284993266
96.281313704926
96.2948223606404
96.3017964641257
96.2995474403887
96.2903831741198
96.2771869109909
96.2628404064393
96.250222375573
96.2422086667507
96.2416741546842
96.2514963515007
96.2745607411139
96.3137272242057
96.3681964451463
96.4306039064404
96.4928736320912
96.5468891380524
96.5845004430788
96.5975448233512
96.5778813606498
96.5174391380585
96.4082786455787
96.2427489376984
96.0193027395606
95.7461097040745
95.4322110188647
95.0865466086914
94.7178904258963
94.3348029211359
93.9456000320506
93.5583377381667
93.1808110706842
92.8205664221962
92.4830958231242
92.1657650430273
91.8638527409594
91.572772507921
91.2880590496736
91.005358982731
90.7204259956805
90.4291200983448
90.1274106959122
89.811383224231
89.4772864161852
89.1259901632513
88.7670042552926
88.4105352588722
88.0664677061017
87.7443838344773
87.4536041483983
87.2032473121397
87.0023083561782
86.8597548025729
86.7846410858349
86.7862189046105
86.8681867678649
87.0209522241362
87.2332186757244
87.4937385344976
87.7911701857899
88.1139634967447
88.4502740134446
88.7879071097941
89.114294167791
89.4165033559012
89.6815340885193
89.9027895387961
90.0808884044672
90.2169565932425
90.3122589385905
90.3681868164089
90.3862452840195
90.3680399353325
90.3152636575757
90.2296834633353
90.1131275573986
89.9678935093005
89.7992853721435
89.613855668585
89.418081523528
89.2183404887564
89.0209009369385
88.8319214679201
88.6574589300757
88.5034846841748
88.3759088098321
88.2806120717303
88.2220431823278
88.1977516379226
88.2032786014197
88.2342295227534
88.2862470004747
88.3549877288263
88.436103793593
88.5252282392878
88.6179648990419
88.7098825297089
88.7965158493792
88.8751970277715
88.9483097562467
89.0191255182736
89.0909376969584
89.1670611405651
89.2508341846918
89.3456231767694
89.4548295590269
89.5818995846893
89.7303367694102
89.9035848734385
90.1009926115468
90.3169843901154
90.5456165078786
90.7808359166322
91.0164665326333
91.2462036776479
91.4636170925411
91.6621629777448
91.8352054745432
91.9760479041916
92.0798005832061
92.1489317312295
92.1878387335321
92.2010000539065
92.1929479775789
92.1682455219369
92.1314677186264
92.0871873849188
92.0399654340308
91.9943457243296
91.9546739932761
91.9221392809588
91.8952618889575
91.8724833129493
91.8522495509595
91.8330099782622
91.813216748376
91.7913247171667
91.7657918875484
91.7350803720178
91.6976585080774
91.6530130616339
91.6036918846157
91.5528092259618
91.5034661241237
91.4587504158129
91.421738833538
91.3955011721313
91.3831065133552
91.3876315123677
91.4121707703423
91.459611526379
91.5292309294105
91.6174697048025
91.7206899284344
91.835237615672
91.9574320799678
92.0835581771701
92.2098614867317
92.3325465025829
92.4477779181118
92.5516919575485
92.6415595681512
92.7171072249335
92.7783875138131
92.8254668220993
92.8584250926182
92.8773555476178
92.882364383859
92.8735704404032
92.851104840702
92.8151106106788
92.7657735468399
92.7034727244674
92.6286623164733
92.5418042539551
92.4433669558001
92.333824183152
92.2136539312442
92.0833373619425
91.9433577799091
91.7941996548723
91.6363892117025
91.4720018581382
91.3050616577923
91.1396641034015
90.9798458493106
90.8295881216775
90.6928236063595
90.5734467045942
90.4753270785396
90.4023264522924
90.358318688977
90.3463318101703
90.3625303059342
90.3998582536432
90.4512543300312
90.5096435940122
90.567920951107
90.6189457052385
90.6555473222675
90.6705425287436
90.6567637936137
90.6071161558009
90.5188694710681
90.3992244304191
90.2567614396856
90.0999995949321
89.9373622302523
89.7771585721595
89.627581034834
89.4967176111403
89.3925788545711
89.3231390996883
89.2961642723716
89.3123438997803
89.3640472837486
89.4432213419141
89.541817468249
89.6517490253275
89.7648632922385
89.8729280285622
89.9676329737805
90.0406066484606
90.0834487538328
90.0888605959507
90.0581147010533
89.9965747520446
89.9096700906919
89.802838342769
89.6814983084302
89.5510294557145
89.4167579915081
89.2839493978668
89.1578072686535
89.0434782608696
88.9447333015441
88.8600143749371
88.7864640477826
88.7212534260125
88.661575924165
88.6046428560001
88.5476808071117
88.4879307597647
88.422648944892
88.3491093962914
88.2646105934712
88.1682264570195
88.0638650248799
87.9562267438844
87.8499684096735
87.7497022870223
87.6600001045033
87.585401810988
87.5304290098749
87.4996030356195
87.4974677058259
87.5286112769306
87.5954565301071
87.694834544262
87.8227374129655
87.9751701177236
88.1481258382189
88.3375648613744
88.5393970570929
88.749467963505
88.9635485863769
89.1773290658148
89.3864401705213
89.587326864815
89.7775232288922
89.9546048173004
90.1161209228794
90.2596020886198
90.382569008424
90.4825428103192
90.5570566938621
90.6036688686482
90.6199767133506
90.6042282325992
90.5589686137463
90.4886213113155
90.3976369080758
90.2904635006622
90.1715287889836
90.0452265700991
89.9159076022335
89.7878747584849
89.6653823617582
89.5526387409444
89.4524853785798
89.3637327753896
89.2844546221375
89.2127448288542
89.1467138774913
89.0844860028658
89.0241971816853
88.9639939137908
88.9020327826511
88.8364807836293
88.7655394280863
88.6895039926073
88.6123735086835
88.5385021746683
88.4722156691963
88.4178165077291
88.3795935764642
88.361835814825
88.3688500652183
88.4049831732669
88.474648504048
88.5821802999659
88.7264602978951
88.8998468760043
89.0942637533163
89.3015283246405
89.5133195685858
89.7211609592082
89.916419066109
90.0903186064856
90.2339746634478
90.3384425969567
90.3961230397908
90.4090076226222
90.3833355513494
90.325458358265
90.2417739501814
90.1386857861537
90.0225710794908
89.8997581170225
89.7765126272796
89.659033022397
89.5534531398442
89.4640448121449
89.3895886496468
89.3278591325743
89.2766549442178
89.2337932495249
89.1971050831325
89.1644318182615
89.1336226963149
89.1025334031808
89.0690256822163
89.030979034376
88.987055583379
88.9371924144676
88.8814466676746
88.8198776158339
88.7525465940937
88.6795169281604
88.6008538614098
88.5166244809997
88.4268976431163
88.3317438974907
88.2312941855187
88.127525800318
88.0245662927219
87.9266291110439
87.8378912967082
87.7625003506711
87.7045849973945
87.6682698095298
87.6576937069155
87.6770324092445
87.7305250035883
87.822285211195
87.9514863573574
88.1123013461252
88.2986700525902
88.5044782548764
88.7235255356245
88.9495014960959
89.1759705747465
89.3963658810784
89.6039925239909
89.7920409268705
89.9543457327775
90.0899294947911
90.2001236760088
90.2863283670675
90.3499954220706
90.3926208375391
90.4157374450372
90.4209079812903
90.4097185904422
90.3837728040435
90.3446861321768
90.294105121295
90.2337343676351
90.1652844829697
90.0904608767503
90.0109610553475
89.9284725713374
89.8446716161571
89.761222246746
89.6797762351163
89.6019735291092
89.5294290728921
89.4633682452678
89.4045992407692
89.3539085525773
89.3120831071747
89.2799117752426
89.2581870244361
89.2477067180561
89.2492760649398
89.2637097273331
89.2918340950919
89.3342927532682
89.3898370085902
89.4561525542253
89.5309083280297
89.6117632474408
89.6963623598751
89.7823342111529
89.867289450433
89.9488206946705
90.0245036773988
90.0918997901563
90.1489755044743
90.1950744116605
90.2298315933106
90.2528894758191
90.2638987253503
90.2625191543977
90.2484206363275
90.2212840240785
90.1808020689877
90.1266803355213
90.0586693574648
89.9777030877721
89.8862116177203
89.7867112844127
89.6817018537396
89.5736628329434
89.4650511816645
89.3583003926414
89.2558209096568
89.160001849892
89.0732140004202
88.9975442389989
88.9314145005157
88.8706301852139
88.8109647461774
88.7482149525314
88.678201774328
88.5967752094215
88.4998229803451
88.3832830029075
88.2431594874247
88.0755424792677
87.8775356915029
87.6550690810211
87.4188652337428
87.1794967143251
86.9473125921589
86.732444596849
86.5448370824782
86.3942996453586
86.2905816494047
86.2434685282183
86.2629005518484
86.3583044414719
86.5270650116104
86.7570747851909
87.0359918383901
87.351337492275
87.6903691458047
88.0399880758907
88.3866840848102
88.7165198255096
89.0151581292459
89.2679356263153
89.4619443062254
89.5969076778823
89.6778032721929
89.7098693503153
89.6985317962756
89.6493481750753
89.5679575329402
89.4600366453577
89.3312631800516
89.1872860321408
89.0337027774015
88.8753796851591
88.7149192115365
88.5544336227212
88.3960049625107
88.2416856626307
88.0935001081286
87.9534471235754
87.8235033499573
87.7056274879423
87.6017653905804
87.5138556125217
87.4432279327405
87.389382793497
87.3514960843116
87.3287644572182
87.3204024974617
87.325640085476
87.3437199353429
87.3738952970151
87.4154278114663
87.4675855096434
87.5296408093306
87.6007684743762
87.6798657156239
87.765778638592
87.8573476364552
87.9534057058971
88.0527770642444
88.1542760722865
88.2567064685895
88.3588609221765
88.4595209111692
88.557460401799
88.6517574923795
88.7420453591626
88.8280135743106
88.909350658444
88.9857443827644
89.0568820935714
89.1224510590062
89.1821388377514
89.2356336693167
89.2826248854288
89.3227759825591
89.3552062297279
89.3785324828801
89.3913549634804
89.3922790964128
89.3799189973705
89.352901374834
89.3098698292761
89.2494895270454
89.1704522208222
89.0714815827079
88.9515999859279
88.8121358498518
88.655592097212
88.484469485898
88.3012482806401
88.1083810689926
87.9082870051656
87.703347449673
87.4959029613701
87.2882515904161
87.0826484158352
86.8811840261391
86.6847335204681
86.4934997113163
86.3076755764977
86.1274519010471
85.953017566702
85.7845598473412
85.6222647104669
85.4663171248735
85.3169013747051
85.1742013801626
85.038434293589
84.910861045539
84.7939566832188
84.6902454070828
84.6022369021932
84.5324350641537
84.4833481940333
84.4575006938266
84.4574463215783
84.4857830971396
84.5451699862245
84.6383445299008
84.7665511658867
84.9262921316541
85.1131736070815
85.3227783834206
85.5506390213061
85.7922154446011
86.042877056409
86.297889554806
86.552406698277
86.8014673230269
87.0399981336015
87.2637573544662
87.4715502769077
87.6628286124297
87.8370560312607
87.993709976906
88.1322834991175
88.2522870957522
88.3532505534287
88.4347247763891
88.496283592556
88.5375307994939
88.5589880576051
88.5630927825036
88.5525460967388
88.5300630405421
88.4983644315501
88.4601703793452
88.4181954715565
88.3751456337067
88.333716654751
88.2965943643314
88.2664239418671
88.2440351822296
88.2275312662193
88.2147952408294
88.2037140198262
88.1921770838455
88.1780761924749
88.1593061050278
88.1337663062786
88.0993637309848
88.0540164765742
87.9957675439207
87.9261073959907
87.8505542960295
87.774823984168
87.704593708591
87.6455057378175
87.6031781429003
87.5832227696917
87.5912703990515
87.6330032093265
87.7141948119134
87.8405055585845
88.0119512211255
88.2228184648987
88.4671384968584
88.7388879158902
89.031945356292
89.3400560108632
89.6568043061702
89.9755951920943
90.2896446526283
90.591980139791
90.8759459177546
91.1373804015158
91.3729388971934
91.5792553841856
91.7529612638637
91.8907071201903
91.9891868171339
92.0451637337944
92.0554988660111
92.0171804487752
91.9275812089647
91.7903043257219
91.6156004827853
91.4140049549634
91.1959346597931
90.9716400219632
90.7511806121749
90.5444235865274
90.361063839165
90.2106648746465
90.102719689705
90.0450884445107
90.0340765107504
90.061094708085
90.1176256157572
90.195179711218
90.2852475314299
90.3792678282287
90.4686117891367
90.544583584923
90.5984375668174
90.6214356460887
90.6088068136188
90.5641786778282
90.4922952640609
90.3979262030398
90.2858407569945
90.160786862615
90.0274752368377
89.8905685104429
89.7546752959912
89.6243490605244
89.5040579868429
89.3974543999393
89.3073947354522
89.2366947032626
89.1881745347125
89.1646722624358
89.1690588634888
89.2042553724489
89.2732521158558
89.3791302712578
89.5250860146193
89.7132221206542
89.9360374655666
90.1813382809912
90.43667888836
90.6893418543069
90.9263258285628
91.1343700757255
91.3000176484002
91.4097186301698
91.4499738610991
91.407620460494
91.2791942661433
91.0781595654281
90.8198309744873
90.519448886643
90.1920175487454
89.8521948850518
89.5142323276497
89.1919617686057
88.8988262927366
88.6479515060866
88.4519151368058
88.3125742535655
88.2194403566869
88.1615611337077
88.1281449855316
88.1084879357341
88.091927171614
88.0678206181715
88.0255522887075
87.9545632329541
87.8444077206576
87.6851909688563
87.4754820016507
87.2221808765123
86.9325348846959
86.613716521283
86.2727721549924
85.916582887129
85.5518371899998
85.1850146984314
84.8223803939599
84.4699883620031
84.1336934901845
83.8178863231903
83.5229767809215
83.2486606169303
82.9946636038394
82.7607407068608
82.5466753632403
82.3522788633618
82.1773898299218
82.0218737922367
81.8856228533642
81.7685554483166
81.6706163095674
81.5917828134218
81.5320682675849
81.4915130077082
81.4701838685186
81.4681745669054
81.4856061815815
81.5226277329683
81.5794168676659
81.6561806526212
81.7531564849309
81.8706131240972
82.0085550626838
82.1629713961911
82.3268856725588
82.4931542241885
82.6545192283467
82.8036104278067
82.9329599156294
83.0350304382086
83.1022575106927
83.1271053728754
83.1021364414199
83.0200942270466
82.8778364193213
82.6852033970565
82.4546828494148
82.1986248541102
81.9291497299128
81.6580931542751
81.3969868383482
81.1570726171149
80.9493478036872
80.7846400264627
80.6737104744167
80.6273714588197
80.6510264501599
80.7361767972655
80.8723374472063
81.0491017699687
81.2560215569583
81.4825136881454
81.7177934020085
81.9508349837273
82.1703612840051
82.3648637752066
82.5226548117144
82.6324856010166
82.6937671005463
82.7158827484718
82.7087342296879
82.682294912432
82.646551370814
82.6114688979701
82.5869811048058
82.5830034720326
82.6094707390683
82.6763982707092
82.7939680432434
82.9699958310927
83.1998146637444
83.4749719130961
83.7869435360205
84.1270468251812
84.4863690680587
84.8557135352465
85.2255640093865
85.5860694942036
85.9270510073766
86.2380324314172
86.5094120885054
86.7394127571751
86.9298074459277
87.0825358845626
87.1996727843672
87.2834097381054
87.3360374332755
87.3599284389119
87.3575207946771
87.3313025977279
87.2837977491132
87.217650414865
87.1362058184795
87.0431014743765
86.9419570935073
86.8363653080357
86.7298866181452
86.6260473048222
86.5283402395247
86.4402285197457
86.3651518673168
86.3065357434479
86.2674788424154
86.2475951088699
86.2443913525229
86.2553660830679
86.2780310435797
86.3099037363988
86.3485013946475
86.3913363833292
86.4359130268352
86.4797258690983
86.5202593786034
86.5551187680168
86.5838934451337
86.6077324878731
86.6278311075319
86.645387955462
86.6616042545205
86.6776832617274
86.694830064038
86.71425170871
86.7371576697016
86.7647606518889
86.7981900138492
86.8368293189558
86.8784462037208
86.9207403124699
86.9614025340082
86.9981152458458
87.0285537920181
87.0503892043115
87.061292172009
87.0589382577673
87.0410143469338
87.0053281764866
86.9520548895637
86.8837268093275
86.8029795302202
86.7124417153278
86.6147284565317
86.5124362396295
86.4081394973709
86.3043887227464
86.2037101083118
86.1086066746824
86.02152676066
85.9430056901903
85.8707249848075
85.8021490411312
85.7347598525051
85.6660555404873
85.5935503583357
85.5147761413915
85.4272851775884
85.3286544661798
85.2164913243413
85.0884406095954
84.9437573175802
84.7869003975987
84.623345873964
84.4584923266182
84.2976561710824
84.1460737407243
84.0089099075853
83.8912730077593
83.7982358997221
83.7348630773065
83.7062438825267
83.7170812534509
83.7652631967716
83.8433441192176
83.943753236171
84.0588913630901
84.1810970003505
84.3026261455546
84.415646129021
84.5122438710565
84.5844489531117
84.624271773424
84.6237933968947
84.5796181833839
84.4970628552873
84.3824999210574
84.2423175480497
84.0828766042769
83.9104774250721
83.731336279182
83.5515713311786
83.3771977815305
83.2141318097845
83.0682029462285
82.9446824367016
82.8435118923037
82.7614430199447
82.6952359210416
82.64169179797
82.5976419326768
82.5599391887551
82.5254519663951
82.4910605631991
82.4536559094297
82.4101406541245
82.3574326150676
82.2937698407074
82.2221337782115
82.1465647922247
82.0710760455453
81.9996516776738
81.9362488758999
81.8848037700839
81.8492410986444
81.8334876248554
81.8414893291983
81.8772324654522
81.9447252710451
82.0450226399367
82.1742552356913
82.3281039440499
82.5022321581088
82.6922614467973
82.8937516848523
83.1021857206395
83.3129587385537
83.5213725336001
83.7226349557879
83.9118647991689
84.0847740252438
84.240958829787
84.3814611356968
84.5073590768018
84.6197611108906
84.7198022847186
84.8086407312024
84.8874544253643
84.9574382219976
85.0198011946095
85.0757642920183
85.1265085043525
85.1724577132352
85.2134401176651
85.2492689980344
85.2797588721053
85.3047257186366
85.3239872076236
85.3373629367467
85.3446746735849
85.3457466031125
85.3404055799574
85.3284920401744
85.3104432036856
85.2875927438017
85.2613474720543
85.2331118303206
85.2042870070605
85.1762705162127
85.1504562359364
85.1282349041187
85.1109950679428
85.1001244858038
85.0970120330049
85.1033029592235
85.1214890195905
85.1542491076306
85.2042836523178
85.2743247007979
85.3671478329239
85.4855860120269
85.6325455124348
85.8110241072268
86.0241317507801
86.2751140514257
86.5656102014989
86.8887951513315
87.2350967253281
87.5946703697097
87.9573550444439
88.3126508412654
88.6497208056402
88.9574190510933
89.2243471297789
89.4389402048902
89.5896158408606
89.6703071572463
89.6866933375478
89.6462168467547
89.5565294445383
89.4254022675423
89.2606481319061
89.070057043807
88.8613453960658
88.6421189108923
88.4198490712345
88.201817532184
87.9926656571706
87.7932006508982
87.6039102993137
87.4252791162949
87.2577896320629
87.1019237294345
86.9581640301611
86.8269953342603
86.7089061159396
86.6043900804375
86.5139416525879
86.4373229068412
86.3728736187626
86.3187895053437
86.2732835023018
86.2345818467545
86.2009209147089
86.1705447961937
86.1417035957199
86.112652449316
86.0816512516889
86.0469657643943
86.007938241839
85.9671500340751
85.9277824709221
85.8930054033658
85.8659794328441
85.849860466051
85.8478065877019
85.8629872613737
85.8985948934257
85.9578588273583
86.0440618762337
86.1590319389687
86.2972728416801
86.4510232598286
86.612432363803
86.7735386815599
86.9262628348944
87.0624151367754
87.1737185875743
87.251847690273
87.2884832609237
87.2753830379314
87.2067195635342
87.0877404507309
86.9270791172171
86.7333837672885
86.5152439255813
86.2811349932998
86.0393800227329
85.7981281918484
85.5653492230244
85.3488428887289
85.1562627704535
84.9945974240951
84.8640876110682
84.7606050222862
84.6800372063094
84.6183437058507
84.571536179783
84.5356625118875
84.506794746061
84.481020743515
84.454439497762
84.423160068702
84.3833264391774
84.3331205805212
84.2743361785079
84.2091342571343
84.1396663169216
84.0680716380731
83.996475685574
83.9269896001286
83.8617107566379
83.8027243720285
83.7521061465739
83.7119259273349
83.6842285795392
83.6708945097815
83.6737421324489
83.694607513388
83.7353521684396
83.7978714699012
83.8841040183852
83.9960420623354
84.1357430677485
84.3053425641244
84.5070684199675
84.7431154327654
85.0119949807871
85.308091544804
85.625471484777
85.9580515738206
86.2995708867802
86.6435711179568
86.9833860093096
87.3121406755241
87.6227616601048
87.907998537426
88.1606888488906
88.3776261814184
88.5590849940756
88.705547596097
88.817591427376
88.8958839196949
88.9411769117704
88.9543006915803
88.9361577406989
88.887716255327
88.8100035174456
88.70443011685
88.57532020485
88.4284653698094
88.2696210697891
88.1044754213801
87.9386378062296
87.7776347872887
87.6269130726066
87.4918492631916
87.3777661563603
87.2899554447429
87.2330001588531
87.205371563503
87.2024412563971
87.2196035697126
87.252278104625
87.2958909970242
87.345861011888
87.3975904319254
87.4464607569117
87.4878332598136
87.5170544541688
87.5302434995583
87.5296307430621
87.5203418039313
87.5075227896411
87.4963160704912
87.4918591531171
87.4992895917055
87.5237559364408
87.5704347578647
87.644553855121
87.7514218565012
87.894909360972
88.0689740172077
88.2635510354629
88.4684238097414
88.6731969870098
88.867283471756
89.039916319376
89.1801866411944
89.2771083990446
89.319710446629
89.2971585479499
89.2039177443029
89.0499601502305
88.8482414704617
88.6116747676778
88.3530130696285
88.0847698416763
87.819176292069
87.568173759116
87.3434391512236
87.1564415325644
87.0185275606789
86.9367918724534
86.9043911324041
86.9117683920183
86.9494889918322
87.0081643104834
87.078396199369
87.1507417200104
87.2156982147765
87.2637089702988
87.2851897756219
87.2705773002653
87.2141753400985
87.1229389934824
87.0064470187463
86.8742342782853
86.7357473548004
86.6003210790251
86.4771754686635
86.3754324602445
86.3041518796084
86.272386333285
86.2892551061449
86.3616235945027
86.48491359163
86.6511494810818
86.8523735528436
87.0805734249117
87.327623166988
87.5852389131205
87.8449494443221
88.0980825213069
88.335767930089
88.5489596624371
88.7307094687308
88.8808061593316
89.0003902543531
89.0906819966463
89.1529728043522
89.1886167210547
89.1990219604157
89.185642634181
89.1499707435957
89.0935285048642
89.0178633256916
88.9246964922832
88.8160154608423
88.6938305367821
88.560144390942
88.4169465613908
88.2662088771765
88.1098817949136
87.9498916314687
87.788138670147
87.6264961136433
87.4668008992372
87.3103659994268
87.1577388093569
87.0093979586026
86.865816334667
86.7274616159864
86.5947968512763
86.4682810843053
86.3483700234627
86.2355167557806
86.1301725053877
86.0327872142564
85.9437551111961
85.8633434993908
85.7918044553345
85.7293935137945
85.6763702316582
85.632998773467
85.5995485203688
85.5762947043956
85.5635190701674
85.5615105663293
85.5705660692557
85.5906846155463
85.6205261781589
85.6583839383912
85.702550195331
85.7513135050839
85.8029564883696
85.8557543195445
85.9079739029444
85.9578737444264
86.0037045268098
86.0437103975545
86.0761441913742
86.0993508697859
86.1117177922308
86.1116380830485
86.0975148058278
86.0677658737748
86.0208295097672
85.9551702241956
85.8692852702226
85.7617115271499
85.6310327533582
85.4761207153077
85.2994734758686
85.1063661951914
84.9020794652463
84.6918077386458
84.480649451871
84.2736034854233
84.0755716592479
83.891366961825
83.7257272403067
83.5833341343829
83.468836064354
83.3852157176104
83.3304691784818
83.3017186975563
83.2961465733204
83.3109785737669
83.3434694208581
83.3908902140085
83.4505177073198
83.519625387885
83.595476329668
83.6753178196048
83.7564898586891
83.8378368007839
83.9192949574244
84.0008244951836
84.0823852697411
84.1639368246395
84.2454383904237
84.3268488841748
84.408126909444
84.4892307565951
84.5701184035644
84.6507523097518
84.7315294281759
84.8136265748559
84.8983102221941
84.9868572680171
85.080556028644
85.1807076273858
85.2886277892642
85.4056490548277
85.5331234286077
85.6724254810294
85.8249551899363
85.9909714661635
86.167188978578
86.3496022998048
86.5341409130718
86.7166649252213
86.8929646586966
87.0587642956856
87.2097297423323
87.3414808584222
87.4496081570666
87.5296960502545
87.5788209435607
87.5981837531192
87.589747842995
87.5555305706665
87.4975909822364
87.4180182698628
87.3189210866347
87.2024177931
87.0706276897595
86.9256632714722
86.7696235640041
86.6047882486246
86.4340705735511
86.2604786584953
86.0869742813703
85.9164721509961
85.7518411809991
85.5959076832326
85.4514604059321
85.3212573538036
85.2080343439721
85.1145152729747
85.0430846187474
84.9934794656983
84.9642148542139
84.9538329441031
84.9609037887424
84.9840192291934
85.0217873304141
85.0728273255948
85.1357650422656
85.209228790594
85.2918457003017
85.3822213652782
85.4786115251119
85.5789425314439
85.6811107204545
85.7829926773224
85.882444794049
85.9773038908184
86.0653889265412
86.1445038218742
86.21244141328
86.2669885495135
86.3059526463413
86.3279104789036
86.3324284821247
86.3191571626514
86.2877691555353
86.2379606020452
86.1694524764837
86.0819918528887
85.9753531026013
85.8493390138831
85.7037818250501
85.5385506664231
85.3551648883614
85.1588693085651
84.9553527812427
84.7502041640518
84.5489071054458
84.3568420777436
84.1792953066687
84.0214742804703
83.8885295889554
83.7855829422347
83.7177613492823
83.6896221306633
83.6998584564463
83.7439269418036
83.8173179815133
83.915558387334
84.0341821464366
84.168705988242
84.3146096676473
84.4673209722193
84.6222055396545
84.7745616297228
84.9196953960259
85.0556851096547
85.1842219868071
85.3072605333067
85.4267811612042
85.5447881719494
85.6633086550375
85.78439233172
85.9101123722984
86.0425672163533
86.1838834281117
86.3361955941201
86.4994910139592
86.6698537418414
86.8429040981846
87.0141930465469
87.179201387954
87.3333436069232
87.4719765495337
87.5904130874989
87.6839408734321
87.7478462204571
87.77751191983
87.7722202906814
87.7371177971931
87.6778809054066
87.600202422947
87.5097640279051
87.4122161970562
87.3131655224997
87.2181693171681
87.1327373612354
87.062340632186
87.0123768344879
86.9847367621595
86.9755932637849
86.9806169421384
86.995493496932
87.0159118026387
87.0375562725286
87.0561034980009
87.0672231752033
87.0665833360129
87.0498598875935
87.0127855389315
86.9543066118889
86.8790562256248
86.7922421983541
86.699043803564
86.6046011830129
86.5140109338333
86.4323277478048
86.3645719743934
86.3157430021931
86.2908384049245
86.2948736311238
86.3308112710585
86.3963619697553
86.4884566098062
86.6040521579154
86.7401137340778
86.8935988514878
87.0614437627222
87.2405518915957
87.4277843677694
87.6199527129379
87.8138133640561
88.0059992543268
88.1929439724342
88.3710042706618
88.536483215288
88.685638819186
88.81469589564
88.9198611870132
88.9973417743007
89.0433667140842
89.0542117785224
89.0263565333464
88.9604518997248
88.8620219021162
88.7368959229325
88.5908950780439
88.4298015231076
88.2593354648382
88.0851397846883
87.9127720789338
87.7477038576629
87.5953266235954
87.460794749998
87.3446832419115
87.24267582245
87.1502668858284
87.0629971448968
86.9764460001231
86.8862284690315
86.7879965734974
86.6774450863664
86.5503215243588
86.4024402420254
86.2297819615087
86.0329554044064
85.8193878437264
85.5969491620213
85.3733598626324
85.1561830029335
84.9528298046961
84.7705782353108
84.6166039486211
84.4980231583586
84.4219472845088
84.3955495615592
84.4235804284963
84.4997168406905
84.6146633712775
84.7591478886863
84.9238457595824
85.0993241807936
85.2760069179514
85.4441600688074
85.5938997066249
85.7152222959179
85.7980585938493
85.8334746759409
85.8214649422104
85.7663403426958
85.6725532539571
85.5446308641463
85.3871373710015
85.204640758915
85.0016844070066
84.7827636445272
84.5523072552643
84.3146638404346
84.0740626105397
83.8332766166583
83.5931356486623
83.35431291531
83.1174662543256
82.883238504428
82.6522579734603
82.4251389967242
82.2024825800229
81.9848771223562
81.7728992136974
81.5671145037932
81.3680850329843
81.1764613464307
80.992960231224
80.8182907229778
80.653153673749
80.4982434860551
80.3542499543434
80.2218602148439
80.1017608061468
79.9946398443189
79.9011893179511
79.8221075101928
79.7580882231872
79.7096047142093
79.6769483788616
79.6604218492667
79.660346532446
79.6770639465675
79.7109371471631
79.7623522527068
79.8317200798933
79.9194779000278
80.0260913291453
80.1520563658363
80.2977403341482
80.4610590569499
80.6379649724215
80.824301305403
81.0158411510414
81.2082793314496
81.397228682692
81.5782209923507
81.7467128160991
81.8980963880796
82.027715802573
82.1308885818687
82.2040346287397
82.2494645841116
82.271494828438
82.2744977497827
82.2628779582567
82.2410542791252
82.2134464322033
82.1844664527611
82.1585148598479
82.1399815499797
82.1332513875284
82.1427042444679
82.1710101282679
82.2172027924497
82.2798680566297
82.357603882689
82.4490149094272
82.5527074811632
82.667285152676
82.7913446597202
82.9234723504784
83.0622410787811
83.2062075647584
83.3540380258575
83.5057642065614
83.6622663697664
83.8244511110429
83.993240576354
84.1695738542275
84.3544085940514
84.5487228627401
84.7535172537785
84.9698172647014
85.1986759614388
85.4411438468958
85.6972563503458
85.9658171820213
86.2455356650804
86.5350927016618
86.8331371165281
87.138282355773
87.4491035640333
87.7641350681903
88.0818682997198
88.4007501915661
88.7191270941504
89.0344480511688
89.3434212397011
89.6426493871054
89.9286525648301
90.1978762687022
90.4467024135125
90.6714633507994
90.8684589781084
91.0339769563349
91.1643163256955
91.2574690019936
91.3170018496804
91.3477218742369
91.3545105332159
91.3422955097851
91.3160275596275
91.2806626174043
91.2411492564746
91.2024215264622
91.169397148443
91.1467631834692
91.1348585330755
91.1300255071794
91.1284630954985
91.1263723754486
91.119955368582
91.1054170633573
91.078970597902
91.03684558384
90.9752995287221
90.8906322803995
90.7807065409449
90.6500309176445
90.5048985733154
90.3515423864929
90.1961196475326
90.0447053827006
89.9032939858483
89.7778088750511
89.6741199248271
89.5980685010833
89.5554680566196
89.5483063592715
89.5711306002362
89.6176802393245
89.6817138456871
89.7569802735123
89.8371985306429
89.9160463564887
89.9871576184687
90.0441286778824
90.0805338652751
90.0901756861501
90.0703507582206
90.0211181484978
89.9426663992396
89.8352402294786
89.6991392010637
89.5347161328792
89.3423752779686
89.1225702801622
88.8758019284429
88.6026157286715
88.3038149706721
87.9820993537458
87.6410914029413
87.2843492861268
86.9153459103012
86.5374590885591
86.1539645817497
85.7680318351143
85.3827222149585
85.0009895441014
84.6256827362761
84.2595419065838
83.9048346648959
83.5632336926409
83.2363237278567
82.9256471056661
82.6327103868512
82.358991425977
82.1059468687482
81.8750200798075
81.6676495141453
81.4852775578281
81.3293598770104
81.2012760472878
81.100713775465
81.0259541688034
80.9752947304856
80.9470859138026
80.9397217464391
80.9516312915881
80.9812708692131
81.0271169752398
81.0876598491537
81.161397651695
81.246831224266
81.3422792345708
81.4444802118613
81.5493325487879
81.6526867842291
81.7503515499799
81.8380971364475
81.9116634382461
81.9667723585097
81.9991447066511
82.0045215603718
81.9786899793168
81.917512909506
81.8188794857444
81.6877575726511
81.5307172422288
81.3542893688258
81.1649301799676
80.9689963902952
80.7727306464826
80.5822568833567
80.4035851323087
80.2426253273936
80.1052097168244
79.9971235629811
79.9227089531842
79.881129816113
79.8704467560726
79.8887970606664
79.934380753625
80.0054478326213
80.1002865535095
80.2172126478971
80.35455938327
80.5106683946299
80.683881234232
80.8725293149373
81.0740068647971
81.2833264499542
81.4950363390742
81.7035713591986
81.9032527320959
82.0882957321188
82.2528255498536
82.3909016795964
82.4965510307347
82.5638097912543
82.5867738458712
82.5600008346474
82.485069471956
82.3700060916652
82.2231174392649
82.0526829997463
81.8669002811691
81.673846912188
81.4814591880526
81.2975264561967
81.1297006262992
80.9855201108773
80.8724476405207
80.7972352774761
80.7583966089433
80.7490592780159
80.7623344148108
80.7913709874383
80.8293232012823
80.8693295473941
80.9045034638741
80.927935682162
80.9327083551643
80.9119210051793
80.8587281859934
80.7676556422476
80.6432940616878
80.4949372128303
80.3318285457394
80.163089664231
79.9976979276164
79.8444845821413
79.7121525912196
79.6093134130849
79.5445422300512
79.5264515558328
79.56378373516
79.6644562312054
79.8263760446475
80.0418554383728
80.3032036712798
80.6026913224866
80.932465342138
81.2844783306044
81.6504324036765
82.0217385418738
82.3894927526003
82.7444706804264
83.0771489524849
83.3803594640866
83.6534608176756
83.8969156748881
84.1112725580849
84.2971612939682
84.455288089705
84.5864303076377
84.691431005237
84.7711933064176
84.8266746687772
84.8588811088472
84.8690614943795
84.8597884953111
84.8341711092893
84.7953336119754
84.7464034334629
84.6905025978825
84.6307414731737
84.5702148252823
84.5120001553412
84.4591582898183
84.41473619204
84.3816702607416
84.3601747595706
84.3475219467631
84.3408462994417
84.3372876516042
84.3339881094731
84.3280909070529
84.316741197904
84.2970887796508
84.2662927427445
84.2215280245477
84.1599941005084
84.080230748473
83.9851350913265
83.8784911902763
83.7640573301774
83.6455575138859
83.5266763386712
83.4110571762953
83.3023035658747
83.2039837283006
83.1196381221753
83.0527899833649
83.0068784765829
82.9835087161629
82.9824701552623
83.0035081879987
83.0464032233612
83.1109694772695
83.1970539079239
83.3045352855312
83.4333233886
83.5833583200074
83.7546099369656
83.9470771054738
84.159384460668
84.385472441256
84.6181899851796
84.8502315683095
85.0741310245756
85.2822682803457
85.4668897112108
85.6201427341581
85.7341250443084
85.8009485869783
85.8128179220392
85.7639960116293
85.659928911008
85.5101761673126
85.3243409255286
85.1119743353558
84.8825071145851
84.645202719299
84.4091315080822
84.1831649593911
83.9759888668574
83.7961344800889
83.6518828684673
83.546095710162
83.4748409236611
83.433856997233
83.4189709173726
83.4260700690387
83.4510785443493
83.4899376245365
83.5385902904298
83.592969688993
83.6489915388312
83.7025504967413
83.7505285376695
83.7946655330498
83.8381794281781
83.8843022434254
83.9362805624174
83.9973788291928
84.0708851924428
84.1601199483092
84.2684466569023
84.3992860404997
84.5561328140408
84.7422206959899
84.9554207014173
85.1893043782282
85.437217451345
85.6923645881971
85.9477912471997
86.1963763970984
86.4308367912507
86.6437434985124
86.8275513258774
86.9746416088024
87.0777294738928
87.1357093496949
87.1528140761308
87.1335722920911
87.0826035597649
87.0045824102499
86.9042070302917
86.786172868139
86.6551513080011
86.5157734552874
86.3726189903417
86.2301600300478
86.0912431274142
85.9568392916248
85.8278031295704
85.7049804126594
85.5892092747796
85.481321566931
85.3821443665327
85.2925016406045
85.213216063327
85.145110989916
85.0890114466246
85.0452891756723
85.0131681116216
84.9917046863
84.979965697496
84.9770260784545
84.9819668846685
84.9938734904282
85.0118339893517
85.0349377946857
85.0622744365261
85.092932554285
85.1261993449382
85.1625307802972
85.2028090290693
85.2479211144146
85.298759245965
85.3562219254926
85.4212152470613
85.4946543969702
85.5774653600641
85.6705868404595
85.7749724064262
85.8912345048118
86.0161236269363
86.1439856213715
86.2690666935147
86.3855466173194
86.4875461880854
86.5691426896281
86.6243935201468
86.6473680095974
86.6321873024676
86.5730719752591
86.4648992633129
86.3104334201488
86.1185399208323
85.8982055397227
85.6583100102873
85.4075780230369
85.1545497492645
84.9075690945814
84.6747887201912
84.4641908515663
84.2836230087154
84.1408340681177
84.0400706512251
83.9776187027466
83.9487657855268
83.9489005857285
83.973478606139
84.0179932134344
84.0779517424141
84.1488564817492
84.2261904631192
84.3054080505502
84.3819303801189
84.4517981619376
84.5156679747367
84.5762139640339
84.6361351456631
84.6981461705891
84.7649778253604
84.8393792907064
84.9241221894382
85.022006463518
85.1358681339391
85.2685890161926
85.4228404785219
85.596669277285
85.7841140790954
85.9789961354629
86.1750291050776
86.365812153591
86.5448323934035
86.7054770973562
86.8410560772249
86.9448345100523
87.0100763190944
87.0304264526309
87.0061931623745
86.9438481395983
86.8501632758271
86.7319314532075
86.5959233148208
86.4488546919059
86.2973646645716
86.1480040557188
86.0072340510186
85.8814345983046
85.7768451810625
85.6953812820674
85.632522881798
85.5832705335464
85.5426642039516
85.5057703587175
85.4676748119359
85.4234812585015
85.3683154301505
85.2973348093457
85.2057438022076
85.0888147418624
84.9445012404534
84.7793925934996
84.6017817544942
84.4198430340433
84.2416165386228
84.0750082448543
83.9278050527543
83.8077042257329
83.7223568027864
83.6794248528046
83.6866528303973
83.7513131244681
83.8710843255235
84.0360972152034
84.236285335165
84.4614914940286
84.7013932113065
84.9454523709762
85.182890110039
85.4026883705904
85.5936196823182
85.7443065868166
85.8434933368313
85.8868014255473
85.8787516828954
85.8246242157479
85.7298327303565
85.5998703617561
85.440261837676
85.2565224956381
85.0541244375719
84.8384699063295
84.6148718069175
84.3885411658969
84.1643090346856
83.9459183367038
83.7368120622176
83.5403681042635
83.3599086328581
83.1987120233279
83.0600272657205
82.9470908267501
82.8631459878448
82.8114647429556
82.7953724087211
82.8181360501083
82.8787482186932
82.971126704933
83.0889199019623
83.2257580359871
83.3752185501174
83.5308011704751
83.6859128401633
83.83386283879
83.9678684731633
84.0810717243815
84.1665672367012
84.2200910619529
84.247081124385
84.2552458042212
84.2523330659482
84.2461029725401
84.2443144319465
84.2547262321674
84.2851123740373
84.343291774233
84.4371725859795
84.574811674826
84.7634701193897
84.9996350192631
85.2730775538754
85.5733130428988
85.8896141040046
86.2109537227217
86.5259751713561
86.8229908289831
87.0900121528809
87.3148129166708
87.4850273167756
87.5895625643356
87.6298741720141
87.6146538384188
87.5528926820191
87.4537003910046
87.3262184905047
87.1795523564132
87.0227223836599
86.8646342081004
86.7140675407948
86.5796829994884
86.4695692910738
86.385300897316
86.3238316390025
86.2820688499679
86.2569615179229
86.2454874603538
86.244642724681
86.2514331394637
86.2628679716401
86.2759556664953
86.2877016625351
86.2952181576548
86.2981434308932
86.2986443064404
86.2989983546608
86.3014833579036
86.308377834266
86.3219627646692
86.3445245267882
86.378359044553
86.4257771698403
86.4891113236554
86.5706792945524
86.6711790359715
86.7892138389688
86.9232543449151
87.0717699904298
87.2332234322487
87.4060654951335
87.588730639077
87.7796329493034
87.9771626590923
88.1796832212714
88.3854466058418
88.5910221922299
88.7913874683398
88.9813731669456
89.1557281244707
89.3091340874781
89.4362269603194
89.5316245957777
89.5899611083122
89.6059275341762
89.5743184765679
89.4913054722258
89.3619038853701
89.1949559925544
88.999301710027
88.7836992299718
88.5567783898572
88.3270114202213
88.1027004466993
87.8919809590771
87.7028404310874
87.5431513677418
87.4194321885493
87.3299445344228
87.2697794135131
87.2341118821406
87.2181795792088
87.2172586120222
87.2266447404414
87.2416397150857
87.2575426994484
87.2696467562666
87.2732404058644
87.2643759840049
87.2440164157956
87.2150711072488
87.1804530033269
87.1430689997712
87.1058171399496
87.0715857480174
87.0432544829861
87.0236972985747
87.0157872993133
87.0224034942275
87.0457622755871
87.0832893989581
87.1303323926652
87.1822190031854
87.2342577786866
87.2817353526382
87.319918799709
87.3440631192702
87.3494238795181
87.3312750094039
87.2849316563081
87.2066369155088
87.098810350999
86.9665369364383
86.8148995007673
86.6489430402967
86.4736556150389
86.2939551729084
86.1146821435467
85.9405975953945
85.7763867292567
85.6266674871037
85.4958337171007
85.3856388430114
85.2958093720907
85.2260481576937
85.1760878752193
85.1456898834048
85.1346431999028
85.14276358376
85.1698927182367
85.2158974881592
85.2806693466758
85.3640908127549
85.4642265990299
85.5763610813074
85.6955105107781
85.8166405796455
85.9346609472102
86.0444257289485
86.1407401190129
86.2183732994942
86.27207774102
86.2966149177607
86.2868105237726
86.2414807998359
86.1678001136344
86.0740113800147
85.9683239345803
85.8588832878534
85.7537565310759
85.6609330756772
85.5883403547157
85.5438741803215
85.5354436316242
85.5710306406685
85.656182123751
85.7862858417262
85.9542225712198
86.1528714948876
86.3750519762138
86.6134769318576
86.860717932693
87.1091824563836
87.3511039261785
87.5785452967583
87.7834173451909
87.9593147258954
88.1057882467448
88.223692506361
88.313950678651
88.3775483150735
88.4155270556041
88.4289783158615
88.4190370139262
88.3868753957598
88.3336970129626
88.2607333330517
88.1698425457042
88.0642904636188
87.9475258597949
87.8229722810981
87.6940208085401
87.5640254985144
87.4363014409705
87.3141253603713
87.2007386835292
87.0993530045996
87.0131545658164
86.943985591469
86.8903348990119
86.8501944961949
86.8215775694613
86.8025127715605
86.7910394428464
86.7852037413947
86.7830556653718
86.7826469575991
86.7820298870656
86.7792573465027
86.7730817343566
86.7643710857224
86.7543916371111
86.744408683143
86.7356863912454
86.7294879851033
86.7270762961418
86.7297146827659
86.7386683179881
86.7552058474199
86.7806014161516
86.8159478144535
86.8616575991194
86.9179949417836
86.985232949211
87.0636543162296
87.1535520142494
87.2552300183156
87.3690040759115
87.4952025210105
87.6341671372025
87.7862530938658
87.9502724488026
88.120293795787
88.2894018786615
88.450575481593
88.5966940006717
88.720555466778
88.8149063535607
88.8724833434688
88.8860669811304
88.8485468183014
88.7530526780887
88.5979840634683
88.3908762405115
88.140245227424
87.8545715564711
87.5422275244696
87.211421103027
86.8701561717761
86.5262083664921
86.1871155962699
85.8601821694923
85.5524951563615
85.269455994649
85.011413672663
84.7777258045665
84.5677989895297
84.38108597778
84.2170830917199
84.0753278796756
83.9553969822923
83.8569041937676
83.779498702041
83.7228634937794
83.6866926278204
83.6703848898046
83.6731133584428
83.694070828076
83.7324730303778
83.7875552594267
83.8585692014268
83.9447799500161
84.0454631907329
84.1599025405971
84.2873870309376
84.4272068355613
84.578332760972
84.739048943175
84.9075325281895
85.0819354716021
85.2603813754324
85.440963112219
85.6217412686263
85.800743444829
85.9759644483762
86.1453674220359
86.3068859823612
86.4584880450452
86.5983044578868
86.7244865654119
86.8351770636271
86.9285160617344
87.0026479443961
87.0557290130791
87.0859358722344
87.0914745121683
87.0705900256436
87.0215771387054
86.9440592638876
86.8419182586863
86.7199146289766
86.5827887786574
86.4352422227516
86.2819240328874
86.1274224205226
85.9762613141856
85.8329017613727
85.7017479823139
85.5871579201807
85.4929257819135
85.4194173338836
85.3656722886893
85.3307596850662
85.3137771410183
85.3138470099842
85.3301128008915
85.3617358382237
85.4078921415312
85.4677695068009
85.5405647747788
85.6254799151946
85.7217024945946
85.8284083818599
85.944772530217
86.0699672606529
86.2031604066553
86.3435136118393
86.4901807806143
86.6423066833912
86.799025719064
86.9594608386184
87.1227308052367
87.2880672183717
87.4547888971212
87.622206853113
87.789621468127
87.956322387994
88.1215885299557
88.2846882080239
88.4448793808706
88.6014100266766
88.7535186491825
88.9004037946948
89.0410103887907
89.1741567914074
89.2986505045946
89.4132909278211
89.5168717643129
89.6081837601905
89.6860177743158
89.7491681735033
89.7964365441405
89.8266362203718
89.8394089429864
89.8368758936269
89.8216383483362
89.7963064540416
89.7634926147075
89.7258063905081
89.6858509178376
89.6462208473881
89.6095017906561
89.5782712620723
89.5550647882512
89.5407716723634
89.5340035292335
89.5332090626374
89.5368399447803
89.5433490177077
89.5511890309177
89.5588119137923
89.5646685829065
89.5672092849422
89.5648844758278
89.556329367951
89.5423931876493
89.5253921676593
89.5076663848935
89.4915524463866
89.4793837221019
89.4734917953066
89.476209128079
89.489872944013
89.516830337367
89.5594446277883
89.6194151302074
89.6951430573072
89.7840321314479
89.8834781302127
89.9908621092101
90.1035449157424
90.2188632145556
90.3341270550925
90.4466190177542
90.5535949809563
90.6522986614296
90.7406300080737
90.8175004462128
90.8819072193717
90.932851898354
90.9693431808225
90.9903998923114
90.9950541765648
90.9823548604036
90.9513709755517
90.9011954170401
90.831647068363
90.7480441053637
90.6582629118456
90.5701392106663
90.4914489260711
90.4299178277382
90.3932443742834
90.3891356450771
90.4253564602095
90.5097920944788
90.6505063920501
90.8510796505498
91.1042844191639
91.4013494902435
91.7334050316507
92.0914022977558
92.4660498858139
92.847767313041
93.2266571691682
93.5924974406548
93.9347557848721
94.244731610018
94.5228607339627
94.7722332265809
94.9960705886252
95.1977071294908
95.38057320645
95.5481805219401
95.704109702049
95.8520003401726
95.9955436565055
96.1371882796122
96.2737304886653
96.4003674790536
96.5122508981438
96.6044990835049
96.6722142374231
96.710504595381
96.7145115197511
96.6794413460619
96.6006017427095
96.4754588642656
96.308955278529
96.1077431046893
95.8784534673363
95.627654404765
95.3618180812525
95.0872971631689
94.810310060374
94.5369346297245
94.2731098835006
94.0238039402461
93.788501636806
93.5645847001938
93.3494863625148
93.1406909865102
92.9357297724032
92.7321778431336
92.5276526426781
92.3198135877112
92.106362915516
91.8851004744921
91.6558419367962
91.4209157023079
91.1827693931952
90.9438021519058
90.7063638952803
90.4727558121361
90.2452320382725
90.0260024458282
89.8172364892546
89.6210680576047
89.4395705222041
89.2744639855597
89.1272567631014
88.9994528593969
88.8925614457284
88.808103959868
88.7476217631778
88.7126843997017
88.704898514133
88.7259174991791
88.7774519582153
88.8605079107167
88.9716376867853
89.1057725859847
89.2578203725412
89.4226436790611
89.5950419033813
89.7697389622385
89.9413770904531
90.1045169211551
90.2536440994807
90.3831974025462
90.4893616556328
90.5717971347965
90.6305997250745
90.6659035320407
90.6778800674112
90.6667372938686
90.6327185371306
90.5761012741186
90.4971958068064
90.3963438319385
90.2741463063703
90.1343339902096
89.9828465365397
89.8256072336926
89.668462203645
89.517177049724
89.3774410089243
89.2548783501964
89.1550668031859
89.0835628821674
89.045934085923
89.0465398613472
89.0817282887977
89.1447093193288
89.2287077966609
89.3269341153965
89.4325571778974
89.5386876614167
89.6383717575179
89.724595620671
89.7903007696123
89.8284201430297
89.8357273203863
89.8186977266629
89.7853424135708
89.7436737248918
89.7016833505145
89.6673346613453
89.6485692281989
89.6533274235205
89.6895831058495
89.7653925930941
89.8886863842271
90.0603070306686
90.2732925568416
90.5202688602248
90.7937810406517
91.086241511172
91.3898900360203
91.696766213628
91.9986951703906
92.2872873927846
92.553954726626
92.7915899905082
92.9980077676232
93.1719990939109
93.3124084013485
93.418140994637
93.4881704578191
93.5215459131804
93.5173990520686
93.4749508557456
93.3935179242008
93.2733449361834
93.1206222623877
92.9440613027652
92.7523017221362
92.5538657989553
92.3571390673757
92.1703665090445
92.0016636512632
91.8590419600124
91.7504480559363
91.6836919372342
91.6596976820178
91.6690392349013
91.7015040407387
91.7468981775235
91.7950062027504
91.8355736933106
91.8583126093198
91.8529296689664
91.8091777630035
91.7169300629676
91.5686898518932
91.3712813692176
91.1366450845321
90.8766051460592
90.6027833832111
90.3265512895133
90.0590116253368
89.8110080017729
89.5931607773397
89.4159278469438
89.2896843065017
89.2211495128991
89.207023448613
89.2424720530732
89.3228226441163
89.4435140531556
89.6000523982389
89.7879719135392
90.0028004394322
90.2400293367013
90.4950877261624
90.7634027342138
91.0419416983588
91.3291220326528
91.6233807007094
91.9231153595434
92.2266817706307
92.532391748062
92.8385116832061
93.1432616885323
93.4448154056385
93.7413015313061
94.0308958832646
94.3118985377312
94.5825928182336
94.8412316799165
95.0860414820296
95.3152264613442
95.5269739195732
95.7194601304395
95.8908569634143
96.0393341529152
96.1626131340787
96.257610736579
96.3211823598401
96.3502253074219
96.3416997714438
96.2926514310219
96.2002354098226
96.0617412828125
95.8746187687462
95.6365266960657
95.3481014962583
95.0154714717061
94.6453543682152
94.2443788616883
93.8190399602963
93.3756640746579
92.9203834012375
92.4591190988932
91.9975726295031
91.5412245755248
91.0950919290859
90.6618567528903
90.2430089350161
89.8399777736851
89.4541471523058
89.0868617296601
88.7394334122737
88.4131480980022
88.109272688665
87.8290623784627
87.5737682340006
87.3442015197944
87.1377269789599
86.9501625702946
86.7774129777243
86.6154633523857
86.4603672563453
86.3082383885264
86.1552459257264
85.9976133374156
85.8316205450258
85.6536092956552
85.4602773296331
85.2533551029371
85.0387457090739
84.8223757142912
84.6100542486419
84.4074752748176
84.2202275785452
84.053812106411
83.9136663565843
83.8051956454131
83.7338112264951
83.7049736349185
83.721404466604
83.7773563545869
83.865548151434
83.978723609647
84.1096013546321
84.2508373742682
84.3950000666862
84.5345581177657
84.6618816185007
84.7692568756829
84.848915311438
84.8943415141098
84.9090005579354
84.9011260645059
84.8790195235872
84.8509866435879
84.8253176469556
84.8102837967273
84.81415008162
84.8452040247776
84.911800751414
85.0224247548393
85.1853956264524
85.4006946369022
85.6597981053651
85.9537366180785
86.2733813773745
86.6093765274712
86.9520903619859
87.2915866690649
87.6176178488008
87.919641630375
88.1868631927732
88.4088270381026
88.5821240744345
88.7086045555765
88.7904121965836
88.8298488198054
88.8293512696535
88.7914686185551
88.718840011045
88.6141734497004
88.4802257804879
88.3197840879138
88.1356823273134
87.9310433348047
87.7091169970671
87.4731160727233
87.2262040500522
86.9714866844741
86.7120058847432
86.4507358477949
86.1905813285411
85.9343779240372
85.6848942507398
85.4447892879062
85.2157408596819
84.998548064743
84.7939689185645
84.602754988752
84.4256539469064
84.26341224005
84.1167778872478
83.9865034091782
83.8733489006399
83.7780852583737
83.7014973904081
83.6434627736965
83.6008164690286
83.5697907431548
83.5466410492266
83.5276372884038
83.5090584372882
83.4871905061665
83.4583278069895
83.4187775114956
83.3648674690622
83.2929572309493
83.1996485908878
83.0855106112863
82.9547283004686
82.811592853392
82.660351760339
82.5051986197069
82.3502673278152
82.1996305042411
82.0573019965305
81.927243311101
81.813373836536
81.719584760202
81.6492035436228
81.6012324278385
81.5726684653391
81.560535549243
81.5618835259957
81.5737773806941
81.5932885862302
81.6174885750142
81.6434443150362
81.6682159885689
81.6888567819981
81.7024148332842
81.7071657962941
81.7058641321321
81.7022860808547
81.7002077100244
81.7034045556969
81.7156547537153
81.7407456673519
81.7824840363067
81.8447097048095
81.9313130334863
82.0462561616098
82.1935488288016
82.3745536779002
82.5865319555248
82.8264066160161
83.0910825118643
83.3774253469926
83.6822427796641
84.0022676918424
84.3341437005047
84.6744130393382
85.0195069861835
85.3657394900493
85.7100026738879
86.0512231396374
86.3887009775394
86.7217174824387
87.0495356344237
87.3714007146757
87.6865410634807
87.9941689869451
88.2934818184162
88.5836631399463
88.8638877259433
89.1336436962199
89.3929989673861
89.6420943829861
89.8810843374126
90.1101363802579
90.3294308009712
90.539160196278
90.7395290228405
90.9307531376431
91.1130593285809
91.2865688166418
91.4503976652497
91.6031326570858
91.7433459240641
91.8696027635587
91.9804656330816
92.0744985988819
92.1502722277258
92.2063689051189
92.2413885567502
92.2539860784758
92.2445924856154
92.2163009349031
92.1724406146589
92.1163463749698
92.0513487174121
91.9807662005594
91.9079002604113
91.8360324255726
91.7684238950493
91.7083174417977
91.6583940311991
91.6181336520844
91.5858687684161
91.5599397178074
91.5386937137774
91.5204828563373
91.5036627415198
91.4865916648724
91.4676304155928
91.4451426587447
91.4175269911758
91.3845944589271
91.3481094334247
91.3099754351802
91.2720900421651
91.2363446046921
91.2046247461766
91.1788116435236
91.1607840824417
91.1524212858821
91.1556065180373
91.1720112800073
91.201902340357
91.2449970067793
91.3010216941134
91.3697125101954
91.4508144801246
91.5440808035645
91.6492721420986
91.7661559338948
91.8945057331454
92.0340479653322
92.1825352800004
92.3351606761424
92.4868893296264
92.6326203096164
92.7671901280413
92.8853820426258
92.9819412653693
93.0515961713865
93.0890855172627
93.0891928369733
93.0487991885834
92.9709851030531
92.8600508454958
92.720333970454
92.5561809271976
92.3719226681259
92.1718543639542
91.960219242567
91.741196497859
91.5188931608848
91.2972236770424
91.0782549550222
90.8626338612187
90.6509584977753
90.4438161363916
90.2417838499862
90.0454292111422
89.855311054497
89.6719803006568
89.4959808396585
89.3278504724629
89.1679456024442
89.0154904303282
88.8692766412763
88.7281129472625
88.5908246529534
88.4562524269158
88.3232513898704
88.1906905092815
88.0574522904669
87.9224327549631
87.7845416971155
87.6430190671107
87.4987863028327
87.3533039032509
87.2080137895068
87.064338857259
86.9236833490179
86.7874336796354
86.6569596998358
86.533616384172
86.4187459318399
86.3136802713477
86.2200297840919
86.1416388696934
86.083393949569
86.0501850923212
86.0469255597557
86.0785833375264
86.1502186419675
86.2670278528526
86.4343945285925
86.6579484115658
86.9436336380053
87.2964944748363
87.7106450698057
88.1742974142487
88.6752634565092
89.2008717438637
89.7378685294969
90.2723544043496
90.7897610921992
91.2748737084364
91.7119038998874
92.0847375085553
92.3853861816582
92.6198075625854
92.7956926650286
92.9211057571485
93.0043885901591
93.0540767771941
93.078830115551
93.0873780821759
93.0884812599496
93.0909090909091
93.1014257924075
93.1187677479073
93.1396628894673
93.1608348099779
93.1790014133364
93.1908758735426
93.1931699113736
93.1825993910356
93.1558922260456
93.1097985636531
93.0414384554224
92.9515881934314
92.8432464155659
92.719440472439
92.5831840172571
92.4374681236832
92.2852543902706
92.1294700013467
91.9730046984907
91.818709606386
91.6693890214322
91.5263245416794
91.3876442153006
91.2511013756107
91.1144765010758
90.9755766130715
90.8322357401895
90.6823164148969
90.5237121666101
90.3543509715471
90.1721996141985
89.9753996795161
89.7644093876131
89.541612480583
89.309419554581
89.0702009252826
88.8262826281624
88.5799437036977
88.33341470916
88.0888773946906
87.8484654800738
87.6142664697608
87.3881865464005
87.1699900616549
86.9578094535299
86.7497714625835
86.5440391475669
86.338810318996
86.132316750073
85.9228241272248
85.708632703609
85.4880786188023
85.2595358466174
85.0214515720968
84.7746040391303
84.5234903028744
84.2728497323112
84.0273110211974
83.791396037396
83.5695285460849
83.3660475289718
83.1852248737719
83.0312872785757
82.9084423031457
82.8209086033043
82.7723399551814
82.7605699720035
82.7802236533188
82.8259596514852
82.8924696741655
82.9744482870798
83.0665695418373
83.163470374158
83.2597408258586
83.3499212157261
83.4285064192446
83.4899692694331
83.5307725063001
83.5516397165571
83.5538662181645
83.5387737748308
83.5077049080074
83.4620175684251
83.4030801990944
83.332267214992
83.2509549183437
83.1605178625859
83.062325672802
82.9578491339797
82.8498584708779
82.7419639970862
82.6377544193936
82.5407829128354
82.4545719329305
82.382621018761
82.328417540953
82.2954503819628
82.2872265797519
82.3072910202538
82.3592493297587
82.445301540588
82.5617589175615
82.7034606345518
82.865226003703
83.0418254381034
83.2279577968901
83.4182342366776
83.6071687984017
83.7891760299314
83.9585759797037
84.1096068919557
84.2367133352388
84.3384223871632
84.4165170756414
84.4729227303054
84.5096111141324
84.5285906807256
84.5318976385766
84.5215878941802
84.4997299293411
84.4683986529023
84.429670253694
84.3856182170315
84.3383348883259
84.2899569426063
84.2426182651902
84.1984432431586
84.1595478377941
84.128041719797
84.106031459479
84.0956247697574
84.0989358076113
84.118091549733
84.1552392705015
84.2118374366803
84.2842722405458
84.366711957021
84.45328064271
84.5380569832679
84.615072550671
84.678318443644
84.7217604618743
84.7393629000958
84.7251209320025
84.6731013865855
84.5777837081359
84.4416140628915
84.2755556673225
84.0909055081091
83.8988042698061
83.710202911691
83.5358584958302
83.3863579908566
83.2721688909105
83.20371589462
83.1914835682409
83.2461458686728
83.3754520882956
83.5717489663465
83.8227696659133
84.1161882720648
84.4394728689036
84.7797730371778
85.1238440328064
85.4580101641492
85.7681706560663
86.0398515396188
86.25830675338
86.4106217224499
86.4978602118689
86.5274091872751
86.5069532157024
86.4443547784973
86.3475708386984
86.2245831228505
86.0833428975146
85.9317305426576
85.7775298557825
85.6284167673862
85.4916776823627
85.3701637379001
85.2633119324678
85.1704889721924
85.0910805778266
85.0244895651259
84.970134051135
84.9274457763471
84.8958685338511
84.8748566976174
84.8638738430119
84.8623843169673
84.8692128952846
84.8820361469618
84.8984119450647
84.9158958300362
84.9320396660022
84.9443917062886
84.9504980732881
84.9479056559453
84.934166422822
84.906843139969
84.8635164707172
84.8026960192748
84.7268787861986
84.6396465830257
84.544563649442
84.4451686173641
84.3449695187528
84.2474417522006
84.1560289416186
84.0741466185755
84.0051886679217
83.9525364938627
83.9194307336842
83.9063312977262
83.9111493568683
83.9317236577377
83.9659081951955
84.011564678081
84.0665561086279
84.1287414541083
84.1959714018906
84.2660851993656
84.3369085881608
84.4062565341493
84.4734111457911
84.5413970806473
84.6138419967753
84.6943993537264
84.7867538925047
84.8946303450176
85.0218054715029
85.1721235632122
85.3495155999764
85.5580223196374
85.8018215407836
86.0830931326689
86.394567404854
86.7261717447101
87.0675504315662
87.4080257391622
87.7365839570589
88.0418884928671
88.3123221775582
88.5360606238365
88.7011778719935
88.795799844899
88.8143883922486
88.7672305980679
88.6672921079291
88.5276454288587
88.3613348925852
88.1812801165583
88.0002179995867
87.830682342911
87.6850197161302
87.5754401680079
87.5140768245845
87.5068887325987
87.5455829676193
87.619964756685
87.7198759619732
87.8351236331611
87.955432098651
88.070418755619
88.1695940738644
88.2423864499171
88.278192425876
88.2665579175316
88.2045564518587
88.1015165277661
87.9679301643697
87.8142448160406
87.6508040301624
87.487812980006
87.3353282482832
87.2032710212577
87.1014628722069
87.0396835518134
87.0276810100279
87.0690309731925
87.1562317287485
87.2807138877121
87.4339203907812
87.6072408437058
87.7919625131372
87.9792381598618
88.1600712272784
88.3253191050005
88.4657152417503
88.5721171724678
88.6418683666792
88.680049313911
88.6922737921563
88.6842147761888
88.6615748629089
88.6300638760937
88.5953837861687
88.5632209796733
88.5392458515054
88.5291196710853
88.5382143645774
88.5674092367099
88.6140731624218
88.6754921781834
88.7489538012366
88.8317387602503
88.9211143773571
89.0143296049247
89.1086117354278
89.2011648135783
89.2891697863544
89.3698563640072
89.4408879637249
89.5000974502032
89.5453152045596
89.5743748842817
89.5851206675005
89.5754155101582
89.5431503724744
89.4862543539179
89.4027056572936
89.2905441256691
89.149213299589
88.9822335439988
88.7938766022763
88.588380532346
88.3699319569878
88.1426524476718
87.9105889386253
87.6777080233302
87.4478939574429
87.2249501791414
87.0126040064339
86.81377006511
86.6288574642585
86.4577712310336
86.3004290285768
86.1567610299322
86.0267098203745
85.9102303278654
85.8072897814726
85.717867697706
85.6419558948427
85.579558535432
85.5302820197263
85.4911097697052
85.4580015299081
85.4269310024224
85.393884624001
85.3548615225684
85.3058772280235
85.2429710972207
85.162217391292
85.0597399076054
84.9317300193914
84.7747192515336
84.5903388276349
84.384828578446
84.1645207970265
83.9356409706731
83.7042914161761
83.4764441231028
83.2579423384482
83.0545104136794
82.8717714736161
82.7152725506435
82.590516953406
82.501763064174
82.4467416505852
82.4211094932318
82.4206019151226
82.4410059999289
82.4781370418128
82.5278193900178
82.5858715673757
82.6480956147949
82.7102706682771
82.7681508115225
82.8174977284538
82.8561939555393
82.8856263925673
82.9075179089049
82.9235998664109
82.9356093304494
82.9452869999786
82.9543758639323
82.9646205881192
82.9777676351369
82.9955661193693
83.019769399995
83.0519483114729
83.0920350538196
83.1391168030647
83.1922733617172
83.250582695423
83.3131196733149
83.3789550106143
83.4471544146573
83.5167779364184
83.5868795303204
83.6565068256391
83.7246986913578
83.7902682312376
83.8516293101364
83.9071469761086
83.9551797517712
83.9940822183857
84.0222082484304
84.0379148838871
84.0395668516371
84.0255417005073
83.9942355366968
83.9440693256365
83.8743046982342
83.7894296747465
83.6959690166351
83.6004038760762
83.5091585216544
83.4286021795094
83.3650606253569
83.3248373527558
83.3142442480725
83.3396418679836
83.4074896423537
83.5243123844188
83.691591732894
83.9030182534858
84.1516357353302
84.4304250403012
84.7322453313267
85.0497865626032
85.375533651912
85.7017430641169
86.0204327648062
86.3233866435363
86.6021976972357
86.851099782644
87.069757970323
87.2585366344813
87.4178751192485
87.548284175312
87.6503420728392
87.7246904377579
87.7720298595623
87.7931153191306
87.7887514846406
87.7598081616228
87.7086119641687
87.6398335758035
87.5583545752063
87.4690350471106
87.3767022939472
87.2861449463505
87.2021123778523
87.1293193144605
87.0724555393872
87.036200626058
87.0252062573499
87.0407680328469
87.078179029355
87.1321279925436
87.1973007158223
87.268363022933
87.3399502255971
87.4066631176318
87.4630706046214
87.503719072013
87.5231485634538
87.5159715103674
87.4807496050106
87.4224896264472
87.3468052872659
87.2592978399299
87.1655374698395
87.0710518869057
86.9813220158073
86.9017846435087
86.8378418786616
86.7948773098143
86.7782558303131
86.7905938798434
86.8291570743473
86.8906300779681
86.9717185936272
87.0691330829267
87.179575000349
87.299725500262
87.4262366153484
87.5557249373885
87.6847678558998
87.809909208595
87.9281307526109
88.0371676524845
88.1348107439847
88.2188395857267
88.2870286520181
88.3371546566395
88.3670049899257
88.3743872350021
88.3571397104192
88.3131429659877
88.2404642668112
88.1413862341935
88.0230933693884
87.8930054471972
87.7584704522293
87.6267513196843
87.5050248801965
87.4003926466764
87.3199031163032
87.2705853753645
87.259493985527
87.2935460780479
87.3728919044398
87.4896596848942
87.6355332936987
87.8021539205836
87.9810716775604
88.1637130304336
88.3413644923823
88.5051732196725
88.6461652187884
88.7552817998672
88.82414259738
88.8540288062001
88.8532608705424
88.8303881541536
88.7939855518456
88.752619145828
88.7148283986144
88.6891248367779
88.6840071024994
88.7079923052885
88.769663793371
88.8764878792803
89.0272336935459
89.2169196765586
89.440570492627
89.6931901669324
89.9697253727285
90.2650340791472
90.5738596342205
90.8908104975205
91.2103459529525
91.5268051972693
91.8369793356291
92.1418806086337
92.442954669096
92.741688493049
93.0396097138756
93.3382864322727
93.6393275376375
93.944383577041
94.2551482092908
94.5733569145812
94.8994318552628
95.2303465054757
95.5624475966582
95.8919788893068
96.2150808426005
96.5277933601993
96.8260618225006
97.1057466031149
97.3626362423153
97.5925016226564
97.7936989443035
97.9689185907423
98.1213386231213
98.2542145026923
98.3708650037081
98.4746601330577
98.5690111951161
98.6573631097707
98.7431890666892
98.8297943097227
98.9175374295755
99.0044512863123
99.0884927121842
99.1676050432468
99.239719707753
99.3027586817288
99.3546378208732
99.3932710728665
99.4165755675542
99.4225222107664
99.4093132045033
99.3752383387002
99.3186170138589
99.2378056076161
99.1312052833367
98.9972701623958
98.8345157852138
98.6415277765717
98.4169726024492
98.1600969992116
97.8713641441847
97.5514555954744
97.2011059194843
96.8210990391987
96.4122644279165
95.9754731804481
95.5116339937277
95.0216890883556
94.506610140365
93.9687644800456
93.4154080641782
92.8546136895233
92.2940948261337
91.7412049287857
91.2029489687472
90.6860057171632
90.1967594547197
89.7413399815475
89.3256700429442
88.9554905793291
88.6329697652079
88.3536160101557
88.1123977968495
87.9044872997481
87.7252217651875
87.5700709274498
87.4346098776106
87.3144969403567
87.2054562240766
87.1032645954861
87.003757068266
86.9051968141515
86.8109100151764
86.7248363027473
86.6508873914302
86.5929563555149
86.5549303821932
86.5407070062726
86.5542138862632
86.5994322502496
86.6804242233703
86.8013557058047
86.9630601318062
87.1576637776762
87.3758556429991
87.6081827276121
87.8450077556912
88.0764873344795
88.2925716259709
88.4830267234001
88.6374808293135
88.7454950084055
88.796783436778
88.788157316625
88.7271257480065
88.6222253399915
88.4820616039767
88.3152330723168
88.1302720930595
87.9356024575483
87.7395136077022
87.5501508981175
87.3755212507878
87.2234285861618
87.0968734438525
86.9917610103673
86.9034836279769
86.8274936185997
86.7592880137261
86.6943980973618
86.6283836336152
86.5568316862747
86.4753599530541
86.3796245328821
86.2653475205235
86.1309278136106
85.980319503476
85.8181434974213
85.6489650764563
85.4772843805024
85.3075317578009
85.1440677999555
84.9911878752046
84.8531309836815
84.7340927881066
84.6382427203503
84.5691868218815
84.5272960892686
84.5118129060612
84.5220294428204
84.5572849632729
84.6169618262721
84.7004817762187
84.8073024882948
84.9369143384037
85.0888373707931
85.262618439039
85.4577234323211
85.6722040689909
85.9030583882736
86.1472135846043
86.4015372949953
86.6628283965648
86.9278100100555
87.1931248408671
87.4553330091737
87.7109125335237
87.9562626370065
88.1878272710352
88.4031292456052
88.6003047537573
88.7774882110731
88.9328128690039
89.0644191967207
89.1704640099977
89.2491302980074
89.29863768324
89.3172534335161
89.3033039286303
89.256559287715
89.1828835580242
89.0898086875995
88.9848376127125
88.8754180978207
88.7689292624301
88.6726805069615
88.5939225458421
88.5398702915442
88.5177374508785
88.5347774134722
88.5943693593949
88.689013057035
88.8093487441149
88.9459710440808
89.0893839624221
89.2299757779188
89.3580143394424
89.4636634160532
89.5370206977845
89.5681777964254
89.5474960106427
89.4727669516166
89.3512301987134
89.1908118266329
88.9994440950442
88.7850046338034
88.5552698701141
88.317882576313
88.0803331285708
87.8499538845951
87.6339260066159
87.4392217885053
87.2703204740104
87.1288629535716
87.0163548216088
86.9343394992112
86.8844092322915
86.8682169087326
86.8874888169701
86.9440384914364
87.0397818168891
87.176753594687
87.3570176489713
87.5793714230114
87.8386527154064
88.1294357332656
88.4462154674666
88.7833694920706
89.1351262580325
89.4955402065112
89.8584741871097
90.2175897928026
90.5663463110116
90.8986632831484
91.2125410770418
91.5076435144768
91.7836609558795
92.0403070940538
92.277319804418
92.4944619222499
92.6915219424753
92.8683146379696
93.0246815928146
93.1604882462115
93.2755596039116
93.3696851642621
93.442679472795
93.4943851429799
93.5246734569902
93.5334448721822
93.5206294298587
93.486187063488
93.4301078041804
93.3524131626717
93.2533094807753
93.133331146229
92.993070800522
92.8331422738179
92.6541781646643
92.4568274396731
92.2417530664797
92.0096296922912
91.7611413792758
91.4969794069442
91.2181278458099
90.9280544976458
90.6314269721986
90.3328103005421
90.036652853331
89.7472875002789
89.4689369926876
89.2057232884662
88.9616805717757
88.7407717659753
88.5469083974337
88.3833631826922
88.2501837698525
88.146411435655
88.0711536584821
88.0235792462338
88.0029132493034
88.008432284365
88.0394602223017
88.0953641988301
88.1755509109243
88.2794631442354
88.4057890291799
88.5503579467951
88.708312058353
88.8747380752917
89.0446547722984
89.2130059252791
89.3746588755266
89.5244089429634
89.6569899056208
89.7670907275439
89.8494285601061
89.9015133215676
89.9251022870603
89.9223609985345
89.8955033861941
89.8467793653985
89.7784633943364
89.6928440781242
89.5922148826442
89.4788660008871
89.3550773961388
89.2230105886898
89.0832412428754
88.9351208473992
88.7779822051617
88.6111736449044
88.434060395799
88.2460260262625
88.0464739373734
87.8348289005415
87.6105386283813
87.3730753670764
87.1221895261551
86.861495903372
86.5975243411323
86.3367309849312
86.0854181339857
85.849744603371
85.6357448500479
85.4493564028983
85.296455279895
85.1828992629847
85.1145791321723
85.0974147089469
85.1330302560161
85.2159296293182
85.3400637254826
85.4994434707185
85.6880850516894
85.8999635944177
86.1289750769115
86.3689065130506
86.6134146498606
86.8560135778302
87.0900931692602
87.3108531867493
87.5168986833097
87.7071878674702
87.8806800833654
88.0363394017948
88.173138438114
88.2900623813531
88.3861132153892
88.4603141093697
88.5117139509423
88.5394619174222
88.5449432213862
88.5321692416983
88.505321475134
88.4685877664343
88.426150997004
88.3821817365997
88.3408348485352
88.3062500176615
88.2825561647469
88.2738797206626
88.2841550587886
88.3138227856192
88.3603578471722
88.421150665671
88.4935927631333
88.5750690510593
88.6629516514441
88.7545952524842
88.8473340158837
88.9384800624213
89.0253235683409
89.1055855985898
89.1805212659515
89.2530750001689
89.3262213656941
89.4029546240693
89.4862901788366
89.5792680554623
89.6849584604615
89.8064694769891
89.9469569735116
90.1096336525569
90.2954749227727
90.4990878989913
90.7139008382715
90.9332266209355
91.1502504005166
91.3580272120092
91.5494900392094
91.7174688279326
91.8547208480036
91.9539726480581
92.0085969834353
92.018780499334
91.9889407491913
91.9236547319424
91.8275630754058
91.7053369289949
91.5616494036112
91.4011517425718
91.2284542967774
91.0481122865609
90.8646158235787
90.6820683287392
90.5036354527289
90.3322847793493
90.1709409505288
90.0224914485128
89.889794186748
89.7756868682091
89.6829980929036
89.6145602237589
89.5732240521496
89.561762104977
89.5787546402809
89.6174058962962
89.6705812555664
89.7311319667423
89.7918776165692
89.8456000196788
89.8850486597436
89.9029578179788
89.8920754487583
89.8452037063444
89.7561141929035
89.6270645094211
89.4650521397834
89.2771118080849
89.0702183405387
88.8512525553764
88.6269781786971
88.404029435279
88.1889088525849
87.987994774054
87.8075580986594
87.6532325964415
87.5262628808577
87.4258775981928
87.3513478889836
87.3019955025242
87.2771890152586
87.2763403489531
87.2989015567994
87.3443618489949
87.412244832313
87.5021059407697
87.6134274341745
87.7449867311727
87.8952571602928
88.0627134651388
88.2458265379973
88.44305741221
88.6528517597286
88.8736348911257
89.1038072632244
89.3417405067463
89.5857739512883
89.8341454203232
90.0848518497984
90.3358068245936
90.5848770981975
90.8298826599614
91.0685978465921
91.2987535549678
91.5180406105296
91.7241143401997
91.9146003908285
92.0872186793326
92.2410922866792
92.3762989111548
92.4929586504289
92.5912166335183
92.6712423104749
92.733228673098
92.777391412045
92.8039680159651
92.8132168184859
92.8054271467673
92.781688027503
92.7443823429068
92.6960171910724
92.6390985384059
92.5761259483835
92.5095886695113
92.4419630758958
92.375711446544
92.3132820652916
92.2571106220479
92.2091734993819
92.1690597752023
92.1355772269991
92.1075397880895
92.0837664919558
92.0630802272763
92.0443067975975
92.0262742827521
92.0078126999796
91.9877539632288
91.9649656577505
91.9392145172031
91.9112404471128
91.8818306709823
91.8517706016032
91.821843664385
91.7928312548233
91.7655128292201
91.7406661277881
91.7190675293825
91.7014925373134
91.6887379598175
91.6816873223476
91.681247090681
91.6883263115783
91.7038380142006
91.7287007976132
91.763840609063
91.8101927191527
91.8687039016479
91.9403348274804
92.025993818167
92.1254047782646
92.2372767980824
92.3602840455003
92.4930946174248
92.6343674209491
92.7827494263468
92.9368732957897
93.0953553948622
93.2567941966948
93.4197695324824
93.5828815095241
93.7447824067226
93.9041133839734
94.0594976054486
94.209541114433
94.3528341274423
94.487952759219
94.6134611883763
94.727914271062
94.8298626423359
94.9186723580401
94.9957851219965
95.062983868871
95.122068903627
95.1748544887646
95.2231661002755
95.2688383683737
95.3137137152532
95.359641699386
95.4084784615423
95.461116511622
95.5155092939302
95.5690459831183
95.6191041262423
95.6630508172705
95.6982453218145
95.7220431628241
95.7318016702364
95.7248869864065
95.698682678545
95.6514522657139
95.5843187351424
95.4990092713691
95.3972612153415
95.2808158822507
95.1514130008122
95.0107857894646
94.8606566770252
94.7027336683717
94.5387073497476
94.3704052208896
94.2004595255187
94.0317383686317
93.8670692253295
93.7092405313785
93.5610051002203
93.425085137265
93.3041788071891
93.200968324435
93.1181295551526
93.0580708059239
93.0190444429966
92.9960736618279
92.9841248855106
92.9781804522328
92.9732294246519
92.9642638168171
92.9462802200348
92.9142868139488
92.8633157296129
92.7884669034369
92.6880695296882
92.5666391579754
92.4293806591283
92.2814588623245
92.1279840544702
91.9740032789212
91.8244972785129
91.6843829016239
91.5585207895386
91.4517281871638
91.3683940084294
91.309405245945
91.2738804454908
91.2609628184019
91.2698309238695
91.2996946930637
91.3497917082701
91.4193837097494
91.5077533062372
91.6142008678635
91.7380334399757
91.8778304663031
92.0308474017934
92.1941776939024
92.3648806446839
92.5399755360457
92.7164376093967
92.8911959669688
93.0611334709634
93.2230887202642
93.3738601823708
93.5108798409882
93.6342375310246
93.7447077338811
93.843084147682
93.9301775379612
94.006813691787
94.0738314868836
94.1320810859489
94.1824222650574
94.2257228837774
94.2627351976351
94.2933475365846
94.3170742912512
94.3334302716873
94.3419329379399
94.3421031752225
94.3334661137902
94.3155519913888
94.2878970558089
94.2500445047224
94.2016076781402
94.1430521519925
94.0754551321871
93.9999068129634
93.9174949828281
93.8293033383726
93.7364100531112
93.6398866000038
93.5407968250802
93.4401962685821
93.339131729286
93.2386410671588
93.1397532392214
93.0434885634369
92.9508592056038
