Value(μV)
37.5576650265451
25.5321581881888
21.1232381065509
23.2753689725612
27.0168915579301
28.1282010062944
26.2590802771216
23.9777701945891
23.4184039578164
24.2174590318712
24.5119009803379
23.3439509059641
21.6234407080053
20.8145183983075
21.1609667783661
21.5528294745459
21.0055874215006
19.8483449504221
19.2400068769092
19.7349944684513
20.696314988375
21.1966590413415
21.196462227684
21.5256286891596
22.7550851920058
24.4203360266485
25.5595548897148
25.8467411174255
25.8755789036273
26.2622536360371
26.7397717428968
26.4067024408697
24.8106709168503
22.4926488955873
20.3206625801956
18.4821722017354
16.4130958112348
13.7156056638213
10.845102146676
8.65844478649757
7.39452244857307
6.39293935588319
4.90624717683306
2.96098068897993
1.18039822192736
-0.159291351590809
-1.57746597382879
-3.74311777669857
-6.57955611919908
-9.30033749651972
-11.3390161422942
-12.9558567180553
-14.7194967560739
-16.5456951413746
-17.5859373304773
-17.1707281802229
-15.6247645759439
-13.9070073163601
-12.5434119707237
-11.2493099094229
-9.74226105777942
-8.65834147296653
-9.28170205470039
-12.2951275501032
-17.0526963188313
-22.2715122878896
-27.2710003702906
-32.2152183192957
-37.1192908956216
-41.0030113734176
-42.4169872723393
-40.8050806725647
-37.0515618982654
-32.5381543562613
-27.8768286033844
-22.8470086358149
-17.4957296492228
-12.8714248415769
-10.3542513357177
-10.3686956241973
-12.0709201229676
-14.3721205057348
-16.9890390803107
-20.2415238146811
-23.97192149068
-27.0870631373488
-28.3874168143497
-27.6682060076988
-25.73444402172
-23.3755066066573
-20.64269290477
-17.2966069725617
-13.7135645216491
-10.948902766797
-9.80010156613114
-10.0538476718059
-10.869553495753
-11.7764470984169
-13.0021303780075
-14.7895817791935
-16.7182445045547
-18.0082063840322
-18.4230110608731
-18.5427841646211
-19.0003131146289
-19.6633787735054
-19.8337267087835
-19.181934553287
-18.1524341937274
-17.2890791804047
-16.4052128014634
-14.765626025123
-12.0969743702654
-9.0891288257492
-6.67127841219742
-4.96713600871389
-3.29866985963231
-1.24857821333208
0.625953035177925
1.40945445428525
0.998420335611613
0.277093412503881
0.030798894834291
0.0121234546894442
-0.583166136442628
-1.82570821842004
-2.66831373940472
-2.05552660000255
-0.154084691225187
1.8758302346648
3.27345144099359
4.41068954542069
5.89933486799728
7.27534659223539
7.09327506475882
4.45999606973773
0.111126035338252
-4.36438663949959
-8.19774752346696
-11.8986194592264
-15.9634141245413
-19.5989648444542
-21.2384058956772
-20.2853035446859
-17.8606649991479
-15.5481568671749
-13.6961192308547
-11.4109699028416
-8.18632730116961
-4.98876575619661
-3.34056125575058
-3.57528321460295
-4.54232112092123
-5.14389641941978
-5.68247381793276
-7.25789132857903
-10.0540508717927
-12.8471891490375
-14.4355322380635
-15.077616082364
-15.9541486781711
-17.3213085252822
-17.8839981240304
-16.3871598437198
-13.4004187473498
-10.8127805194379
-9.4881583668785
-8.12403416915004
-5.04052203292787
-0.818660082206508
1.73218998710397
0.746511083486041
-1.88767542445981
-1.51028292601531
5.31850821526392
17.9280549085188
32.4080158379983
44.6416479663126
52.0433610426151
52.9054129506896
45.3172286027808
27.4792497260786
-1.26839754703884
-40.2830242630247
-88.026963154068
-141.448891041659
-194.725929930209
-240.297344312067
-273.255455672349
-294.524802367049
-306.43666663273
-301.616111802168
-256.492692318988
-141.079700649512
57.7058831230414
318.29698943114
590.98402705377
826.600077887947
1003.28364815915
1127.40369749462
1209.24077459573
1239.04720732445
1188.77237757029
1038.7093983181
802.977026197398
528.765864013302
269.893240526553
58.818558576077
-100.138056772772
-216.223112541199
-295.37810328395
-337.626916305156
-346.930715082433
-338.559571780607
-333.729183370881
-346.270080241737
-374.416704835163
-404.869248854729
-424.196296849434
-427.227931983727
-417.096787868045
-399.892595060847
-380.059899626126
-359.518387230038
-339.131780723427
-319.960554621793
-303.31152696027
-290.097178821974
-280.165676390461
-271.961216577001
-262.899738642774
-250.659477823636
-234.706114721139
-216.692468413571
-199.116201449852
-183.353634060768
-168.949094484179
-154.744446518671
-140.450656852218
-126.895302297362
-114.841241908217
-103.944712648462
-93.1298454759548
-81.8628044744817
-70.7560911980736
-60.837962867133
-52.4538227170818
-45.1018851915261
-38.247768037731
-31.9799347987835
-26.6994586565392
-22.3398953804627
-18.1841872287022
-13.5255784284404
-8.33579879206949
-3.13446567064146
1.71369004658514
6.37133754529015
11.1660189963308
16.04716701679
20.5976143501586
24.5637816440543
28.1899705656934
31.9178298008994
35.8419728043659
39.6129263325362
42.8916907958213
45.7690083211163
48.6411937678561
51.741813946124
54.9406944494803
58.0376760878228
61.1280034955966
64.5379956874157
68.3987803463556
72.3960954027628
76.0147681891365
78.9861199401174
81.4184943610709
83.5073898225495
85.2341030694641
86.434582388212
87.1212069860977
87.6168229644377
88.3059830384563
89.2907911396503
90.3511060561123
91.2316896248543
91.8973019356694
92.4695561167343
92.9630381259849
93.1610261722978
92.7653631445879
91.6143432006331
89.714168858299
87.0983281851164
83.7454015204751
79.6828547506472
75.1444819677131
70.5795730669204
66.5042576813267
63.364825477419
61.514835372348
61.21152649421
62.5076713854335
65.1059182350812
68.379741796114
71.6213456087623
74.3065600216256
76.1299036878734
76.8426199459453
76.1799279092893
74.0437503921832
70.7353270958146
66.8876533878339
63.0631215964227
59.4035433964258
55.7103510556486
51.8545910997488
48.0283623685424
44.5413784331335
41.4300186143316
38.3935321918216
35.1774781102704
31.9554149663684
29.2256100969409
27.3087399815408
26.0207724395457
24.8957386963578
23.6771304269281
22.4843193604876
21.4746898464354
20.4491548260582
18.9130386648342
16.5337373946515
13.4473564680278
10.0623036730843
6.62833218556056
3.10315835498747
-0.55638035205165
-4.0903620154634
-7.02280465605697
-9.02864867788414
-10.1275796243492
-10.5054520574109
-10.2477786614716
-9.33963278978762
-7.87909572140208
-6.14634964520129
-4.38823872040626
-2.60577826944369
-0.657655989302468
1.43977728125517
3.42676940483504
5.05538259062752
6.31662231635273
7.26682093402301
7.63603720644984
6.78429645222857
4.20301686755983
0.0452976158158442
-4.95188432427197
-10.0823038555288
-15.0742409670996
-19.7905351944822
-23.6543632908664
-25.6488534148415
-25.0589776857988
-22.1534495601446
-17.9861932755309
-13.5158788903549
-9.05281370637233
-4.61618290099535
-0.636904243332342
1.98437204286883
2.61302950085159
1.51503490420663
-0.417786734026887
-2.54402943836211
-4.91294723778155
-7.80741552535671
-11.060923448393
-14.0600799418823
-16.4105261874949
-18.370052507249
-20.4713358934473
-22.830489733365
-25.0463080634488
-26.8055687856338
-28.3725382132731
-30.2987651537448
-32.7319257326947
-35.2415608624675
-37.3904383732714
-39.2752810069942
-41.2891149629374
-43.4044927734971
-44.9553725925064
-45.2758200529047
-44.4225043705687
-43.0620925002638
-41.6706924269607
-40.089470963805
-38.0150110981503
-35.759607079347
-34.2266367743178
-34.0502720268052
-34.9561472339204
-36.1518357326035
-37.2468992942183
-38.5248867878499
-40.2366118098379
-41.8665396211808
-42.3742263481882
-41.1579861666423
-38.5551147476085
-35.2918025265459
-31.6422805551366
-27.3991133858324
-22.6622997292897
-18.3645877663583
-15.7826994385199
-15.5864063275058
-17.5435493850216
-21.118644382996
-26.0693102389779
-32.2473380417452
-38.9652973551636
-44.9186983227094
-48.9172102491262
-50.5863810043108
-50.2334773899589
-48.1734293920219
-44.476983061692
-39.4307383564972
-33.9295307424564
-29.0606340184908
-25.2732794133018
-22.195111076892
-19.3739606993154
-16.9884510635963
-15.5806836831058
-15.1856885521223
-15.1100630519756
-14.7900617770929
-14.6535886123803
-15.7608037557648
-18.5309257422042
-22.123895042809
-25.3056005838819
-27.7372914668758
-30.03922568301
-32.5373727574106
-34.3479002730416
-34.0854417185607
-31.3943697264198
-27.3780249776836
-23.350899025008
-19.4755772219348
-15.0036615710493
-9.77294898694625
-4.97629630698334
-2.14671407320392
-1.61327540918315
-2.37390138674811
-3.49624566171684
-5.18818961602627
-8.15253221595628
-12.1344141248433
-15.6625467574043
-17.4251752907924
-17.557230235398
-17.2089499112118
-17.007555795793
-16.4512604737698
-14.9904035894706
-13.2572778781386
-12.674156793631
-13.8427402761065
-15.8113852689095
-17.2296385883375
-17.9232709297132
-18.8491836829681
-20.5295587681471
-22.1017801549049
-22.3136766653944
-21.1676671546988
-19.9775428626112
-19.672114702888
-19.5548248353292
-18.2039466134879
-15.3821361205952
-12.4370890282038
-10.6303342802252
-9.59672355201889
-8.00814481001201
-5.57610328536256
-3.66613690838179
-3.57940443653428
-4.7087921246084
-5.07693451854495
-3.6794567603909
-1.61309879453611
-0.488806234834449
-0.217855037871232
0.847886060624042
3.54880128557758
6.50447457376927
7.68601099285114
7.02876599817684
6.61599332890335
8.08132555269112
10.6171883654275
12.2742130435822
12.8340722808337
14.2776756891432
17.9926486365823
22.4036111598241
24.4673375186284
23.3907407478797
21.6386346156457
21.5528688590068
21.8724362746089
19.1680220068628
13.0715887241709
8.72967055812169
12.5548051446639
25.480117759233
41.4861018002359
53.2516874245329
58.3143182665664
58.6144562534654
54.5563135935015
41.514574396362
13.5608948337951
-29.8893232395747
-82.3496068423442
-135.091349826943
-182.506294038634
-222.5769196476
-254.176912202512
-276.123612144657
-287.740928253388
-285.654240902647
-256.338887927298
-174.187514670696
-15.1133106199979
219.982985283303
493.621274781667
748.539265953988
942.737115497503
1071.37134798849
1154.05321323043
1200.5680974232
1191.23559696247
1093.63323214526
899.093018993394
641.09718461695
376.524549513131
149.018422284286
-29.8889095809152
-168.109491535073
-269.077485457864
-325.431680711702
-335.07705735374
-317.119272500734
-305.596768448797
-324.857885360878
-371.332747717725
-419.56782213933
-445.190995876527
-442.252881560664
-421.54426771225
-396.826492330071
-374.826052308637
-356.010888041914
-340.201067500949
-328.654097283702
-321.797116120176
-317.626796027104
-313.40490014473
-307.87344450681
-300.78159574651
-290.917750936492
-276.197714796474
-256.255966337921
-233.993971684675
-213.481436794717
-196.383133089312
-181.214175334395
-166.214882111114
-152.044709394766
-140.84987345279
-133.065888638264
-126.267963215454
-117.680222689153
-107.201183013958
-97.172051303242
-89.3131676949704
-82.7665526440042
-75.5581368502231
-67.3214575574839
-59.6457995622094
-53.6840091411282
-48.2618536756311
-41.0071462514565
-31.0581884122452
-19.9301356520541
-9.57499733741969
-0.230832442843333
9.27483546908238
19.4205274717979
29.0027031329191
36.538288313165
42.1172148431981
47.233728038632
52.8506144793491
58.2433918046704
62.0640019116991
64.1392144302699
65.6585628999638
67.6335721430108
69.7729619351944
71.2474918327668
72.2160554954141
73.9667714131338
77.4079982923032
81.8683108275942
85.7782972609491
88.362192062888
90.2089972862879
92.1296210051703
93.944507710335
94.8369881728506
94.7398011180716
94.8190230485521
96.3197499391376
99.2067959304889
102.300526773754
104.666474682218
106.457588723963
108.238367424892
109.855160998888
110.438580599238
109.508852708205
107.631388580712
105.681776820794
103.670578675984
100.690970336456
96.0699789730472
90.2202778874351
84.1155770530814
78.1586517138647
71.9959778783545
65.5112105505639
59.5840082163446
55.4564083111594
53.3994982880041
52.3722535316295
51.1619211494554
49.6307146245446
48.5826546541799
48.5390447275431
49.0615897778048
49.4627801614652
49.8799939184591
51.2041819101437
53.8560807115799
56.920709114629
58.7326405183798
58.2259174497953
55.5079554825303
51.1985120889725
45.6044320499088
38.8213866691367
31.4687932265488
24.8788853980874
20.3094544862265
18.0636001091742
17.5250375869011
17.9492675783032
18.9821814071223
20.408441448005
21.7418195553825
22.4174201724711
22.3838215598275
22.2175536962289
22.4707636652801
23.0188677961487
23.2266261332691
22.6880308979189
21.5478152871863
20.0098378279853
17.7831900900014
14.3381636316227
9.7315948241631
4.89935519611851
0.912201353903068
-1.97324244550961
-4.31631935601335
-6.55865080622991
-8.33841211944303
-8.89929626129398
-8.02632406461346
-6.2795203034523
-4.23835741274914
-1.77892265517308
1.62463686554859
5.91252272463088
10.0124655537919
12.5467890006052
12.8681383569392
11.2816929388445
8.37979940651749
4.46599515567036
-0.233533384621814
-5.01871197410722
-8.74082945161099
-10.5371704712867
-10.4551026712557
-9.26816117739559
-7.76907463424081
-6.36180370429775
-5.23885636815409
-4.63729012966393
-4.68956875385097
-5.10277638658885
-5.24096651143681
-4.65718754732518
-3.47953322373898
-2.21917711795083
-1.32011991007875
-1.05764224448797
-1.8122108858232
-4.13240260816868
-8.26780420994621
-13.6770824728101
-19.2245615448065
-23.9748961593348
-27.6954059713445
-30.4938362680502
-32.120653454855
-31.9161443052461
-29.5369880428495
-25.52286331495
-20.8989209325851
-16.2455650454484
-11.411808157944
-6.27873016691133
-1.62413689302372
1.06129108222562
0.697039137083695
-2.58733307861697
-7.83096489692472
-14.2106517891036
-21.3617253336645
-28.7527057469322
-35.1039942073677
-38.8160677793201
-39.0811343935156
-36.4533167616212
-32.2700738138869
-27.6366738397898
-23.05819941575
-18.8600456854005
-15.5701102305437
-13.6517690761691
-12.9738313322635
-12.8078828575024
-12.45764232427
-11.8152802416466
-11.2712366879454
-11.234213899221
-11.9075933481533
-13.4612441640448
-16.1267472461708
-19.9079674260432
-24.2691518301731
-28.3299745300918
-31.4625450962304
-33.6140360166014
-35.0005250979061
-35.6377534896923
-35.3713941385663
-34.3428962971805
-33.1613807705247
-32.400315677717
-31.9833080764423
-31.2809689795517
-29.8886427510771
-28.1673115511638
-26.8930074924174
-26.4723234068328
-26.7042604998183
-27.3155493438142
-28.4641447850543
-30.4695499021019
-33.1097409043878
-35.4740771063466
-36.6850930061449
-36.6696205444414
-36.0691405769136
-35.4626515524295
-34.9094143903449
-34.31363905647
-33.9672162636553
-34.3934805308838
-35.613876928528
-36.8326556116158
-37.067888995712
-36.0328054971111
-34.2184019284195
-32.1410653932098
-29.7697420006176
-26.8439605044388
-23.5510954472542
-20.5301069881271
-18.1006783365331
-15.7305424491258
-12.5211911815897
-8.17868820267755
-3.28302593338655
1.43200883457869
5.80599612400948
10.0550508886721
14.0201985996327
17.0119931862047
18.5804064213176
19.207753489521
19.9158776071124
21.1772602621994
22.4755598613216
23.0534587699722
22.8417338580467
22.3435530815857
21.680098693971
20.1804360578109
17.197952393503
13.1413659787265
9.30166398324238
6.5659101694249
4.5877276308782
2.44340580766485
-0.105712929319591
-2.39466176793415
-3.91681212819913
-5.16481831029388
-7.02566674534076
-9.47406525327642
-11.3438239013315
-11.610166034285
-10.6138437036024
-9.67269783809154
-9.59963338930916
-10.0547095768326
-10.5076292850406
-11.3860784759382
-13.7015378768645
-17.5211689953984
-21.3315017366239
-23.2967424821714
-22.9439348779042
-21.1928145432935
-18.7840720317467
-15.256386059096
-9.86245902870807
-3.1649519789278
2.93356759883866
6.91079250062884
8.89995676429965
9.8726479943892
9.88645252749615
7.82814605782302
3.03729357790773
-3.40795133602263
-9.49068840389133
-13.9257401797688
-16.2297763471506
-15.1743101561403
-8.43163101299661
4.94534442406114
21.7712729482797
35.7556095575793
42.2247564235534
41.3978951033064
36.0687053390548
26.3641901490431
8.53576854053724
-19.7958970318697
-54.1242787398471
-85.097137683536
-107.28881001621
-124.874936850706
-146.858670775722
-176.737174889047
-208.719062627374
-234.785860461324
-252.601682616706
-261.847501092093
-251.256723303601
-193.747546761347
-62.2662759419817
143.986267317318
389.235568722282
621.140673785729
805.223805808616
941.18744518363
1045.4853906149
1118.88448205889
1133.51054829123
1053.92918853789
871.948141562033
621.251233333832
358.589779423452
130.217989069296
-46.9511153416114
-178.271082779805
-272.446665856159
-331.490295800851
-355.637093650938
-352.529269130925
-338.261802203323
-329.256778235404
-333.56892635416
-348.906780835592
-366.953164075419
-379.10908494681
-380.384609867021
-371.102325103063
-356.448048635168
-343.366017866497
-335.885012783309
-332.406660142141
-327.720834792143
-318.043212689002
-304.055385773684
-289.065403039894
-274.840446317989
-260.026698491105
-242.632680676761
-223.139260568375
-204.36574826252
-188.483108603749
-175.001217078872
-162.029739707845
-148.89968488426
-136.772481463276
-126.742199750266
-118.167139144721
-109.419618480472
-99.9099131167375
-90.6301859800429
-82.5729854151657
-75.2415127812435
-67.273634036514
-58.3164112975037
-49.6150688885533
-42.506879620269
-36.7844149678915
-31.0394695478895
-24.4812240774404
-17.8309509986095
-12.1857904770846
-7.44486862064801
-2.42639767249061
3.4812839292664
9.34023501173785
13.6824698645314
16.2425011557598
18.2052569218078
20.7157688250514
23.6138147191643
25.973355571573
27.6202235452622
29.5579834198084
32.7338925992673
36.7886563872154
40.4479084161121
43.0601890619984
45.3176907525856
48.2999194534322
52.1508274419648
56.0923167108546
59.6484397466856
63.3688071959732
68.0655843652948
73.5953441351606
78.8329642690075
82.9093496153664
86.1263239558337
89.4005010280488
93.0124297395109
96.3017314154613
98.6482862927859
100.370010658046
102.306875541974
104.633626555888
106.487090067198
106.93551943537
106.064196863411
104.806059864216
103.778259999889
102.643356802581
100.773225103283
98.2676332552324
95.9434981676968
94.3062426922668
92.8749641334915
90.7706734222492
87.8205146367779
84.7624690141741
82.3125645643998
80.3182936970897
78.0674268310415
75.2923044680697
72.5273557137058
70.3711000138164
68.6613311859532
66.6755581330236
64.1105141262165
61.5750624828248
59.9681053320309
59.540764090776
59.7957676203183
60.2456443679234
60.9627545545173
62.2178650450047
63.77431295665
64.8642072667416
64.9327753924311
64.1858304868039
63.2250351046237
62.2577986620542
60.9059127419692
58.8001110520865
56.0783370893578
53.055281777287
49.5054896936823
44.6091959092407
37.7883552470293
29.4605818168821
20.7616495122577
12.5586281709953
4.9683999291403
-2.06393294725568
-7.95627096005628
-11.6015444464287
-12.3745870417763
-10.8263101092169
-8.18992597284104
-5.26761150947904
-2.0081985243066
1.79467686948531
5.63959169127069
8.41083320769641
9.33076714003621
8.61897883478823
7.09974995768999
5.29014762357916
3.07205220677819
0.258483260812429
-2.74163151978906
-5.02464850190987
-5.95666288237683
-5.72711260288903
-5.11434307835148
-4.7813058697438
-4.83309570298622
-4.9512608073183
-4.81053399392987
-4.35603925149983
-3.81073990726249
-3.50806252788914
-3.64127650444164
-4.03228428898824
-4.13677787868173
-3.4354040235215
-1.96339675354807
-0.419610095229388
0.400108088496976
0.357233293692047
0.103781511571315
0.392606568035074
1.28544239886946
2.11913602551855
2.2252436411462
1.53879298142888
0.418903224230264
-0.999116781214751
-3.03674453263678
-5.9723236828674
-9.45441895673299
-12.6083429338626
-14.754809371139
-15.9046784382595
-16.4945646521854
-16.7764174294941
-16.6511956750847
-16.0900380993302
-15.4915495373979
-15.422131750057
-16.0295221485698
-16.8846032119103
-17.4771206247091
-17.7600337176539
-18.0881285442688
-18.6831451236727
-19.3454856092227
-19.7646705147179
-19.9651956160612
-20.2504439353382
-20.7015071353352
-20.9178013262567
-20.3995318533698
-19.1314006129418
-17.6405814793773
-16.4603947812983
-15.6811519221783
-15.1289214473114
-14.86674953656
-15.2815609278364
-16.5866001243806
-18.3959473765028
-20.0065411343726
-21.1372842118778
-22.2535836124603
-24.0738368370905
-26.8455626054435
-30.2388938407219
-33.9006142756196
-37.8716569536079
-42.2751951277186
-46.6728870432891
-49.9868022039945
-51.229736081892
-50.2831144407684
-47.8710762035169
-44.8216245189629
-41.5102853731142
-38.0670368783125
-34.9254666417375
-32.878851378184
-32.4812542414403
-33.5104519180576
-35.1725167344476
-36.8310879779486
-38.4216857872995
-40.1265777897821
-41.791024789271
-42.82689285426
-42.6894370829377
-41.3011456849917
-38.9185565595011
-35.6850970822408
-31.5022548332061
-26.4039662631769
-20.9412638581441
-16.0493422029538
-12.5000093521586
-10.5225217604884
-9.92242653246483
-10.4139433931629
-11.7044077592387
-13.3093585677107
-14.5024449435566
-14.6378636919919
-13.5586964448002
-11.6344604640263
-9.39112705425886
-7.16049039320684
-5.08702489739228
-3.33027008262886
-2.06827649746224
-1.2476716794557
-0.460434620580983
0.76342487516575
2.49294950386075
4.28652280290336
5.57894172579304
6.12434784131537
6.00898617311299
5.30852766696189
3.9117376467085
1.78073374273141
-0.710960273580767
-2.8953454110744
-4.36827342123622
-5.3834465682545
-6.61013897480824
-8.51177231721474
-11.0309233526463
-13.8605136905045
-16.8569913032798
-20.0270501828558
-23.1407308310445
-25.5708078141748
-26.6994582023926
-26.4828128745434
-25.4973728368136
-24.3861752779956
-23.3424611748973
-22.1936203699092
-20.8680833055142
-19.5529703226158
-18.310009397234
-16.7142925881721
-14.1359003660898
-10.4592826309038
-6.37811438377418
-2.82798106780242
-0.170632070823338
1.90673714376824
3.67943820668406
4.80450638618982
4.68679043414645
3.39232458465197
1.91536641132707
1.3090489383494
1.61098352221278
1.86910103896141
1.33620996678318
0.48126617858577
0.598930651673562
2.39459248943294
5.11492607667574
7.18173506537935
7.61182078266512
6.72528586619857
5.56730109927816
4.87834305326598
4.7117787057049
4.82913200176487
5.144787258843
5.66516686727277
6.0356317917798
5.01198303948062
-0.0222018788444771
-13.1874687842062
-39.100517616026
-80.346705775698
-134.771439010141
-195.148723507328
-252.216276840964
-298.390932331695
-327.81452872037
-331.868110005177
-295.352034235209
-200.255130489138
-37.7150246175769
180.54130049509
422.353451554878
649.161897529055
833.638855219986
966.806862166099
1050.03912571369
1081.30686539345
1049.80152714032
944.183460490874
766.418764550221
538.434605744147
296.101751465537
75.8539843155484
-96.7562938978098
-211.689326555224
-273.365433350453
-296.614987127123
-300.558970779537
-301.15313691626
-305.556475305123
-312.310727372014
-317.349316715162
-320.326078619914
-325.184085691335
-334.868549824536
-346.461838220864
-352.571874991539
-347.834627784749
-333.687479498218
-316.522364027942
-301.56952769935
-289.135824334066
-276.58112932833
-262.826697619987
-249.878369273717
-239.989536731391
-232.344915629357
-223.400706417689
-210.461085708116
-194.38972019978
-178.642563268783
-166.039381240763
-156.76620541705
-149.089934181736
-141.168416984358
-131.833594169279
-120.244598323895
-105.779720797964
-88.6928814260684
-70.4926913817494
-53.1172878189293
-37.6284509557406
-23.9567461244818
-11.954880406495
-2.30154185714668
4.03605484859133
7.17035758405785
8.71348314005489
10.5897081403394
13.5722489254124
17.1887063909097
20.8992335912882
24.919891502427
29.6814558151712
34.8051327275649
39.1391417111369
41.9806377896287
43.9844392377812
46.5672110365638
50.4693919710407
55.1594537394396
59.6735039743667
63.7148827378361
67.6460059262626
71.5522334329183
74.7763435245281
76.6430157731415
77.4572682265593
78.4348475201517
80.5570178329663
83.6928066089461
86.9663692320652
89.7818382572536
92.1896066080663
94.2700670587438
95.5498749064114
95.3789119802495
93.8382714770501
91.9545028174291
90.8316304978969
90.6862120849024
90.8875810704686
90.830450459821
90.4760988509327
89.9559314204644
88.9440406880297
86.805429429437
83.4235818806624
79.5998155464969
76.3817253139614
74.044280010159
71.9254435431726
69.2631773862707
65.9529603893965
62.3337522484671
58.4470868891491
53.9214576081169
48.7627730913159
44.0220548415711
41.3162518327842
41.5598064000026
44.2789142775813
48.2158503249701
52.4100190264663
56.4766667233845
59.9463168541261
61.7784587729834
60.9112408354515
57.2973771504764
52.1401165885979
46.9436872738125
42.399264599772
38.281610578545
34.2793677150619
30.6215588102174
27.7767210455761
25.7647235376065
24.0846991471255
22.3880523071898
21.012471939531
20.6597818510984
21.5909572973454
23.2965746350465
24.9662102240712
26.1048048540576
26.582789435709
26.2511095621926
24.8171278430517
22.2247925533491
18.9834826257199
15.8742021971827
13.2742230581226
10.8845649199206
8.16726364459246
4.91808197567057
1.28181121679063
-2.68728561451618
-7.18539546325062
-12.2047350062454
-17.0426426140231
-20.5364444870893
-21.9308659806289
-21.4595484847652
-20.0073692749333
-18.2879948671084
-16.485517513616
-14.6410544811001
-13.098384524325
-12.3032540152241
-12.1781198842546
-11.9372203755828
-10.7129359875594
-8.35920671958302
-5.56366387706699
-3.22041119724692
-1.83549632406303
-1.55066096560571
-2.49981403511105
-4.831168980566
-8.30132731657508
-12.0509748611707
-15.0245675636175
-16.6774489049283
-17.2143118087121
-17.1627586455749
-16.8721599233026
-16.5141168678575
-16.3961727551501
-16.9426243294298
-18.1873383377546
-19.4081766989567
-19.5136340054503
-17.9098022817096
-14.9411848023358
-11.4629383455198
-8.1164014116116
-5.16745055809807
-2.96722316946963
-2.24635009610753
-3.6673977196462
-7.07541291113206
-11.3888168713397
-15.3790211593456
-18.5361044629205
-21.1174242465441
-23.4483473504056
-25.3810000284726
-26.5125961455002
-26.7623136202151
-26.4886168033528
-25.9816512655564
-25.0030327214064
-22.9934017403868
-19.7269640740946
-15.651630309592
-11.5655210646931
-8.06721838442874
-5.3836711440252
-3.60232107181002
-2.83987359615543
-3.09505214107546
-4.07778936273033
-5.38281603416323
-6.87968884623729
-8.83887907697087
-11.6212318405581
-15.3137626737466
-19.7262994793115
-24.6243444263737
-29.7320111372864
-34.413379386207
-37.5346695612962
-37.945795892505
-35.2681762205463
-30.1902964556068
-23.9582991709989
-17.6615253256352
-12.0897049696514
-8.12066169389172
-6.83976621686212
-8.9292541409736
-13.9159738060309
-20.2490178615269
-26.2968921109585
-31.2506963344567
-35.010995342281
-37.3713823900477
-37.6586146863902
-35.3549836190202
-30.8982789886971
-25.5447003983793
-20.3406985749643
-15.427677853149
-10.5548614601065
-6.16899309720302
-3.66938386485496
-4.39417639457751
-8.4633418969533
-14.7983170266542
-22.2059331659501
-30.1430005520116
-38.2659035408547
-45.4955542216544
-50.0181443513752
-50.4924669562479
-47.1728998861994
-41.6545024661543
-35.5299045339866
-29.4619993443029
-23.5459301956031
-18.2018186565682
-14.2698788515823
-12.1379109285226
-11.0796543786615
-9.77865407149518
-7.530133952029
-4.7567671298162
-2.32052375580356
-0.558162379852988
0.815079253728122
2.0038418825371
2.72177148567866
2.67639951439052
2.2679585992885
2.47110004411807
3.92868027337202
6.34619863631514
8.91891497937655
11.2110963791444
13.3685189226163
15.4864543759451
17.1100640574863
17.6520132497678
17.2128013562923
16.638350468369
16.5846219336847
16.6973780205459
15.963089274606
13.8315399742738
10.7168975601725
7.28205657901984
3.50263593309054
-1.1942117124629
-6.85457653001367
-12.437432352495
-16.6449516354191
-19.2272205841361
-21.1535868093063
-23.4116967183279
-25.9114147601837
-27.8158065865046
-28.7705325503301
-29.3529911307239
-30.1277390374601
-30.5914253381669
-29.5042438441384
-26.3017361121851
-21.8098039962018
-17.323480574272
-13.2109052230621
-8.80826218889401
-3.64931054476318
1.70357831310896
6.38634067700201
10.4786221551724
14.9006816815715
19.892424387564
24.0877879800793
25.6298274008175
24.0820549679586
20.6591329261091
16.4429182147907
11.1362638917143
4.4916042123734
-1.12747301424239
-0.868101798190942
8.6415472835309
25.2421135771163
41.9135555445325
52.0885356440299
54.1026517105119
50.0001061572061
40.4448908818318
22.228621041402
-8.10145408008907
-48.438318547319
-90.184964747755
-124.095708358682
-147.297067635196
-164.725220757154
-184.313039882565
-211.009872128109
-243.723155470039
-274.291535412311
-286.382034705022
-256.543522520619
-162.279653035655
3.68259123501845
223.254551587517
458.379153687053
671.040494122636
842.13734994136
972.624226531214
1066.66107643956
1114.32252260731
1092.02537074004
981.107588254996
787.107378522421
542.232632095243
290.043457124966
66.5334675218911
-108.787136334357
-230.723670102485
-303.251445769869
-337.014113776127
-347.462725320919
-349.935557913232
-353.533176232767
-359.562825095356
-366.196031762244
-373.665529848661
-383.612973575827
-393.763826877463
-395.757824946184
-380.965391719502
-349.424736589766
-312.179910396842
-283.531137517202
-270.274607876818
-268.036927087998
-267.168604925122
-261.231284794267
-250.03123680872
-236.346701537762
-221.886442358744
-206.885500305621
-192.041326940431
-178.918630407329
-168.048684130476
-157.730846338352
-145.73785783117
-132.042197154242
-119.027465094539
-108.748643235289
-100.597214262805
-92.2369226436662
-82.5398792192101
-72.8059937135012
-64.8608693014781
-58.6208919981457
-52.2656927538206
-44.6948703893513
-37.0261820325924
-31.2190111693161
-27.6353907673301
-24.6404040763902
-20.6430819537441
-15.8852879362437
-11.7571357955904
-8.6968602081258
-5.49867357591068
-0.895671833603787
4.72608342204698
9.75526079517278
13.3628695775242
16.4878853800793
20.5772509737566
25.7772425964872
30.9130769633476
35.1882832859898
39.2918454697698
44.4372568244455
50.6164011395488
56.3917047605851
60.5340649603432
63.4074413229038
66.3403191228779
69.8341114516946
72.927414435537
74.486837238514
74.6910417143301
74.7712450935473
75.3832594474902
75.7673458330038
74.8025164516049
72.5894248605564
70.5231309171983
69.7783396604465
70.1436498999687
70.6192275464199
70.8801481918007
71.6404848837646
73.4737775544002
75.7074197544239
76.9103867666989
76.4017216506791
74.8792535623976
73.4181443104403
72.1807057058355
70.4851765366551
68.0488732368266
65.6822021882464
64.4646745042104
64.4567136752978
64.6284930982442
64.1122084173108
63.1777027981582
62.7076179870434
62.8912872883223
62.8354528825453
61.5680925842315
59.1152066718733
56.2842645240618
53.5015893349739
50.2666046535819
45.9496074531786
40.9029643043151
36.4595127162802
33.8190698614111
33.1881270602752
34.1133075837933
36.3768945097396
40.1797297562173
45.3940525002114
50.9578808473873
55.3056959801778
57.3801518462881
57.0574461788552
54.6378496902567
50.2485311105774
43.9889389485402
36.5175289011743
29.1187298620735
22.9936228513801
18.596912544745
15.8038798854101
14.5826293204315
15.1882719393911
17.5974388907692
21.008666303758
24.2120069694993
26.4678260347489
27.7997734613878
28.3424858210131
27.6533588831626
24.9867513038876
20.254237317288
14.4166339969959
8.71041738871652
3.60416165658801
-1.23952086853001
-5.99821612507583
-10.0264039243268
-12.4194788274582
-13.1201391782602
-13.1231406438154
-13.4387409223491
-14.0489568631425
-14.112594584312
-13.1086735274512
-11.4569906681225
-9.8786629148471
-8.39895520517598
-6.32979345538929
-3.26502017924377
0.205992930461109
2.99551741558092
4.59891379061788
5.41742017925362
6.0006973204768
6.27367562410139
5.75508570819714
4.39942483959874
2.85297927340113
1.71875816783127
0.785029648546882
-0.738116041658031
-3.24166401285892
-6.24350736085842
-9.00062974190394
-11.3625280370944
-13.7176130808226
-16.1168594925089
-17.7963627021399
-17.8366810298767
-16.1984941529124
-13.8263270537018
-11.6607259242932
-9.77335665670506
-7.65873439940867
-5.21657864737335
-3.08928447863343
-1.90088996564998
-1.41197080855727
-0.736041585239661
0.611703543120541
2.14622707324892
3.0221944669136
3.0154713641501
2.63617439903787
2.30575250954661
1.74947728319935
0.42645573452819
-1.5965233254293
-3.53503839074867
-4.74566161304378
-5.46632027733335
-6.48336043678097
-8.15830216893366
-10.0659214632205
-11.6697994790171
-13.0866011738738
-14.8858369479907
-17.1779180547364
-19.2288404406812
-20.1840745702279
-20.0294251074315
-19.5747954111034
-19.485970829745
-19.6037572316908
-19.3940294168596
-18.8825953913736
-18.7952508699249
-19.6787255370769
-21.1419478096785
-22.236190210087
-22.5290337664522
-22.5206546196927
-22.8853246881032
-23.5203606139855
-23.6134751049984
-22.615694271524
-20.8557111515976
-19.0320061763558
-17.2932218248922
-15.138138238897
-12.2746374364537
-9.31537535302748
-7.3946047837041
-7.17038197372677
-8.42368631116788
-10.6432386599639
-13.7180222695091
-17.8126556097048
-22.6810689939192
-27.4648551048757
-31.362962132682
-34.3518868471113
-37.0206278599803
-39.7318575240165
-42.1950522301021
-43.9581839579185
-45.0652257644725
-45.8963089119005
-46.3498958141112
-45.5160875363992
-42.4454067848306
-37.1835854314601
-30.8060392471
-24.3881903491722
-18.1782229881136
-11.9602820168751
-6.03560099319304
-1.42557191478049
1.08710360950111
1.90218854132463
2.28254892151186
3.08039915594867
4.02337790419274
4.37287269750235
4.04726454776884
3.76561104665926
4.08395524743018
4.64372462235046
4.65223694587808
3.97564313385708
3.39804125977246
3.67390202827379
4.57447393444559
5.14506201491493
4.82593059585539
3.98939150095016
3.24480071394878
2.50304282777134
1.10464469837601
-1.12334270202621
-3.31060917882621
-4.32843333596394
-4.01483682586915
-3.31632739078847
-3.17168694008525
-3.56144771099833
-3.91256184446875
-4.2648236570197
-5.58860245936636
-8.73873874029317
-13.3377870775183
-18.0452825468978
-21.9365470292853
-25.2983616380523
-28.8827702718299
-32.6162810386473
-35.4324925487731
-36.428670352058
-35.8432066911012
-34.6054223036763
-33.0720475967082
-30.6102825632946
-26.5697120445987
-21.3742698166618
-16.3136055617507
-12.292370666431
-9.10234948137455
-6.04228421215799
-2.95467629529177
-0.307206507937469
1.65520757077423
3.37006440273938
5.29464086229318
7.02560849663006
7.49633395361847
6.08472451639322
3.1626198759465
-0.61042969073549
-5.05386348390973
-9.81290044829692
-12.868057147327
-10.5685604860567
-0.276170983571781
16.5931574729573
34.5795282071108
47.7722960082721
53.4616683380921
52.052798085613
43.7010727793676
26.0831051562625
-3.48722429778809
-43.6306736996908
-87.3681422279415
-125.891895561014
-154.38371333895
-174.542370576433
-192.110939359159
-212.401912323424
-237.174120407006
-262.80374237447
-278.089667276341
-263.076702337918
-193.594605803215
-53.4041445129899
152.477680047777
394.675176093678
632.010400629351
831.804705628265
982.052116036229
1085.99381464072
1145.3324959857
1148.53337494576
1075.6043655016
915.46410853139
680.92334600652
408.881644557501
145.787686715428
-71.0157687612682
-224.636449739444
-318.366703122514
-367.236557380244
-388.017084735934
-392.962287327168
-389.140978503474
-381.618654071892
-376.393686451194
-379.486229121242
-392.389775625338
-408.51057432092
-415.663743960146
-404.559040970364
-376.806589416405
-345.019165193954
-324.005813170893
-320.113428944836
-327.533776789993
-334.00933660485
-330.162007215318
-314.498402057388
-291.354316845644
-265.640808807016
-239.799640214842
-214.536532768119
-190.768296058732
-170.020116519791
-153.322950909552
-140.524540222467
-130.920504305363
-124.146945605652
-120.061922287576
-117.902705484034
-116.045479289569
-112.850711567034
-107.605099708464
-100.47373623815
-91.7089277447257
-81.2752532502826
-69.3449123410279
-56.8171301444642
-44.9230024159885
-34.2299009703067
-24.2576646228538
-14.2166999856862
-3.9654441389797
5.97686541668277
15.2705820876287
24.2251032535235
33.1717005486779
41.5228159274692
47.8420473211638
51.0538375444619
51.4681543663571
50.4448347333097
49.1300135797875
47.7669816509483
46.28897616918
45.2622267440349
45.8334895641253
48.6492702743172
53.0739448354231
57.721106279263
61.7278069786972
65.3275184489428
69.1700804701887
73.3381195037654
77.2616161702111
80.5080653157522
83.3328384540472
86.262603012252
89.2738792441412
91.6394493721433
92.6406464865443
92.2595145712983
91.048312893652
89.446193988544
87.4534644536284
85.0036816164072
82.4188857345775
80.2679468404503
78.809760674211
77.7954156855959
76.9251603205147
76.362094168078
76.6079371428266
77.8854684810204
79.8267007872966
81.8569171117199
83.735799460895
85.5156464737782
86.9869026733815
87.4249201766048
86.1093124812231
83.0680868491756
79.1363484861415
75.2243285440458
71.6521524876794
68.2913946882648
65.2045301600441
62.8502871509976
61.5335625788791
60.8245917496992
59.779025855787
57.7964455094572
55.1310578765498
52.4786922313219
50.1886056604348
48.0567048581184
45.8541333489823
43.7959368330391
42.284231332637
41.2684281504771
40.1094252932585
38.1974825504328
35.5928340150879
32.91722533529
30.6695679845858
28.8314848383331
27.1821511804404
25.7792757367939
24.8749637316886
24.3613124197278
23.5531555841736
21.7277257451601
18.8402510749007
15.5549551368985
12.5772758204956
10.1509931013145
8.32652368357612
7.53664420361103
8.55762768644125
11.7379209635101
16.4165416211762
21.3309453756764
25.6119338706083
29.2043796063718
32.2518634942069
34.2928592958235
34.3643878869707
31.948213909364
27.5880218586283
22.3809772622912
16.9539403414271
11.1900316573609
5.0251443208924
-0.730814240406158
-4.65019868083285
-5.794277007133
-4.39660791157971
-1.38592054866584
2.57232972059485
7.32767076807016
12.5983769041399
17.4229773857409
20.566983636284
21.4900376391728
20.7350053802537
19.2994139859913
17.7702383753046
16.1979767937567
14.6678942464624
13.6529338497151
13.6105983906367
14.3608755385962
15.1166228304968
15.2044784524917
14.6230020161654
13.7977887325455
12.9121608159072
11.6830173830945
9.80716284721484
7.41039164971914
4.86721961424098
2.24128311214849
-0.873655401957535
-4.85950162427764
-9.5448691103247
-14.3122885375411
-18.6854634911048
-22.6400788399681
-26.294125137354
-29.4816781207265
-31.8460677035563
-33.333441315129
-34.3661379468867
-35.3711325256253
-36.2232458710965
-36.3363801799398
-35.3248002840244
-33.4145427038551
-31.1100435347843
-28.6056168250406
-25.7688159533277
-22.7384078818565
-20.2972121608941
-19.3968860699381
-20.2981942421443
-22.3421776889033
-24.6313571908337
-26.7908328217392
-28.9220247701962
-30.9343300175938
-32.2483772581375
-32.3496148950594
-31.5018614345478
-30.6485719515762
-30.5337410492336
-31.0775953656241
-31.7340622265536
-32.3196208204216
-33.2319774666979
-34.8088269853785
-36.7221412482541
-38.259659269759
-39.1627097889742
-39.9184317987192
-41.0757103602085
-42.4192064371895
-43.052880529113
-42.3125593763793
-40.3913518707348
-37.9490581232323
-35.2786302702527
-32.1363939039179
-28.4323118259944
-24.820921350056
-22.3394664823109
-21.4667577895123
-21.732754526566
-22.3262126530971
-22.9226763956042
-23.7583851631681
-25.0101019148327
-26.4169341535412
-27.6683636865102
-28.9826066028302
-31.006095913512
-34.0680012742552
-37.7030033947735
-41.0269415164249
-43.453474280751
-44.8458718601766
-45.0269260089582
-43.4837661563448
-39.8373918952592
-34.5344855560045
-28.7834805979393
-23.6584199373911
-19.3868824630423
-15.649107414437
-12.4303785834338
-10.2574689189378
-9.48171851210605
-9.58427150336304
-9.52324382170733
-8.79795131764195
-7.90914428545355
-7.59749878468657
-7.79528492791191
-7.61993133889377
-6.42055955623984
-4.53641183748901
-2.80178277805931
-1.46954206258548
0.0067082831227907
2.02100598185763
3.95556991137048
4.61714329685149
3.51229081118767
1.38506326478996
-0.654110925131064
-2.29158119439966
-4.00055296536717
-5.95460954160587
-7.39833592593133
-7.4161551366836
-6.161364841505
-4.91041447652002
-4.76274846815493
-5.56227716781095
-6.36954236299908
-6.83550168595603
-7.67171996984938
-9.6060993920527
-12.2271706801978
-14.3103418232881
-15.2890836519405
-15.9804832030027
-17.567248043557
-20.0788311148162
-22.2997892791365
-23.2265501810833
-23.2005812303099
-23.2642169940339
-23.6054334979012
-23.1692486046754
-21.0048237678049
-17.6183049558773
-14.5203296731633
-12.4559251045254
-10.5318549981819
-7.35412453199235
-2.74992994979655
2.05801470860724
5.93326662684335
8.96647336528494
11.8227209670937
14.2751648483681
14.9893028449849
12.9451307158792
8.72512591660097
4.15150291292711
1.00857616389144
0.6562456418515
4.69200504116869
14.8356550396089
31.0153488885868
49.5386363328391
64.194224468253
70.1353523138564
66.7505703990508
56.3241408608883
40.0804655625016
16.5162541021407
-15.7204433025866
-53.9295867342806
-91.6895903517459
-123.756430988603
-150.135224704439
-174.693063556669
-200.262994038424
-226.177847774186
-250.072149667976
-268.850254387181
-274.046038690972
-245.859443588128
-156.834511259861
10.6623313290785
245.110532769389
504.158206078577
737.17953042088
915.202078238157
1041.52672432613
1132.89431470885
1189.47993561631
1183.84435680949
1081.27431646296
873.581587428901
595.274052047748
307.447354567349
63.7680168856595
-113.455773001499
-231.65112386773
-308.98362104256
-357.852210178268
-382.579310230405
-386.991638430242
-380.17955434176
-374.223662535514
-377.248342229961
-388.840605863123
-401.333186170089
-405.30194583131
-395.493182230954
-374.111570695754
-349.88260417336
-333.070609696276
-329.058211381414
-334.825925043102
-341.255522419744
-339.676871195248
-327.373910818556
-307.792768161051
-286.192289349828
-265.380575905254
-245.153234427474
-224.700322066371
-204.545776552259
-186.066698810426
-169.883267484151
-155.42296726618
-142.006244925773
-129.778558125897
-119.258261444479
-110.275978937847
-101.857814841586
-93.2356183353465
-84.6244574893126
-76.7556952632919
-69.8365519196205
-63.325683518137
-56.7504973133889
-50.367303485163
-44.7024347026125
-39.568395021061
-33.9173002125326
-26.8326177874878
-18.4673331785487
-9.78313380349978
-1.47238718841227
6.54559593171776
14.4759187292952
21.8182752995098
27.5740040982082
31.3311090391148
33.869862724759
36.4795381305484
39.7726928644443
43.3831153343874
46.7917539293257
50.1294616210835
53.9290952774903
58.2280800600361
62.2799017779552
65.3275945860263
67.4969656605551
69.6901487411538
72.6095568250682
76.1011163351222
79.5451943921895
82.6866806497261
85.8093134787623
89.0946151987387
92.0948200810544
94.0797534866101
94.8511378081385
94.9939102278357
95.2465350212439
95.7728155783588
96.1933233113236
96.2356767455865
96.1121843225989
96.1710962493334
96.3604308833773
96.2710238003871
95.7213327810697
95.1036419012622
95.0088289583344
95.5746417066771
96.3392757720196
96.7144142146072
96.4260891811625
95.4032388453914
93.3987071237197
89.9982337353213
85.1144062872666
79.3422437857808
73.6586154260047
68.7591591877402
64.7750641968977
61.6057215404432
59.3155985163204
58.0183656646356
57.4318242321866
56.8019769961397
55.4493017852684
53.3507605243689
51.0528265777469
49.0059399494844
47.1134470446946
44.9941645146783
42.5457110461447
40.0411355566257
37.6417830294644
35.0062508590392
31.5738266089352
27.2276973988841
22.528796851508
18.2221440230624
14.6005195836464
11.4465862891759
8.52012939278732
5.90184022641527
3.77148606634197
1.9917205210121
0.129294215893198
-2.05399859248306
-4.25553211143436
-5.8817502607841
-6.59165126699284
-6.48324852532844
-5.77020774367413
-4.45992182650173
-2.4915799722675
-0.113739081612792
2.09056177095817
3.66691108632989
4.69323564709121
5.59488679927757
6.57351775650948
7.35083960335683
7.52915058083789
7.08022791627627
6.32394153370192
5.44992825539228
4.26181051194711
2.5458598268866
0.626071356378244
-0.637998498880251
-0.498904162507571
1.09656728568334
3.62493136783441
6.57889519276353
9.76607747925425
12.9974419723006
15.6950620426943
17.0769878491841
16.8140422560868
15.3894158208697
13.6999075932865
12.341520926556
11.3773782030613
10.7505367443118
10.7012486502301
11.599714313252
13.4205590815359
15.5913087909159
17.4825987548464
18.9735531805824
20.402747972628
21.9697818379217
23.327015987977
23.846670299093
23.2043663136674
21.5613471841957
19.184340146675
16.0707948203874
12.1094021066205
7.57099495272331
3.25683073858769
0.0336338932536933
-1.76203253760391
-2.41745600338683
-2.42153290670046
-2.0952318503775
-1.67237427495178
-1.57804063160532
-2.39164043347279
-4.43348020641517
-7.45861675427946
-10.855118768944
-14.1396741805179
-17.204413217946
-20.1152757386394
-22.8216438736017
-25.1854487034506
-27.2470021211779
-29.2932389431625
-31.5556155558603
-33.8863290615248
-35.8398246369441
-37.1012416017332
-37.7752843944153
-38.2269932462004
-38.7151399901545
-39.2748918219461
-39.9314591439452
-40.871089337477
-42.259663469284
-43.8919564857546
-45.1260420665204
-45.248315498896
-43.9148177570567
-41.2474314568009
-37.5885026638626
-33.2802955286567
-28.701149035575
-24.384883268692
-20.9283453705882
-18.6988244693879
-17.6571527019471
-17.5008916733531
-17.9555854506489
-18.895796304739
-20.2357106130994
-21.8274231422402
-23.5461779872245
-25.4290039222806
-27.6172055453461
-30.1104101587946
-32.6257860306641
-34.7684156794392
-36.3473267657438
-37.4921140385579
-38.47239482342
-39.4764486515907
-40.6108684570332
-42.0484571289019
-44.0338364756538
-46.6510169573521
-49.6052824390287
-52.303916960241
-54.182174701105
-54.9468504412067
-54.5474199584679
-53.0363082189796
-50.5726369165623
-47.5475740402451
-44.5649418022845
-42.1625834187424
-40.5251915030324
-39.5132157884791
-38.9723144883453
-38.9398110678472
-39.4983465528865
-40.4980918422396
-41.567899798733
-42.4721362056868
-43.3844704024113
-44.6839647606583
-46.4427777167484
-48.187568385924
-49.2381125716183
-49.2563764566184
-48.382812747921
-46.8208146884778
-44.3846544462496
-40.565274614949
-35.0464285254421
-28.0703034987189
-20.2402940799827
-12.0175188498732
-3.51105615268165
5.21219060834793
13.6931838448873
21.0501534424604
26.4039254093879
29.3181328114175
29.8587860990328
28.3399982197146
25.1182554483366
20.6200016052295
15.4327638032229
10.2216549075511
5.49409545469137
1.44900328727385
-1.9592901559326
-4.86658521836938
-7.43259892265352
-9.84843566012789
-12.2619789897604
-14.5965713214759
-16.4662075697861
-17.3709591368168
-17.0528483645662
-15.6650350427392
-13.5713614653188
-10.9966523979159
-7.91848219887101
-4.30361584233173
-0.367687262870861
3.51422773861477
7.20244434210611
11.0312510802794
15.5190110681946
20.7328942435612
25.926104444509
29.8724913985458
31.6478947310213
31.1378858509705
28.8135446715117
25.09091439292
20.0756881164767
14.1127210141725
8.6100903910847
6.07348645145693
8.86863364952929
17.5150539032078
30.0195381474212
42.984866019127
53.5544642443702
60.3709136919869
62.7377947298191
59.2049551202248
47.6286661878383
27.1856963328595
0.302859930111975
-28.07953591174
-53.9248442023449
-76.9798659878393
-99.8425197586319
-123.883534281538
-146.68319620768
-164.688346428805
-178.748516805084
-195.226743747595
-218.114521055661
-237.179309868202
-224.366076006737
-146.399464028677
12.6752398921174
236.636812334139
483.710633738922
710.767572360003
895.317961510529
1037.1033060471
1139.81562163539
1192.091027697
1167.48210791796
1044.7855774351
830.423804702525
562.345980333999
291.768831091086
58.3406832537008
-122.030123590967
-251.204770118324
-335.515440186005
-379.219575747245
-388.10890834148
-374.936340568305
-357.584511341794
-350.265873924357
-356.248087530957
-369.005547856124
-380.004521180399
-385.345691705643
-385.979210575562
-383.411950102202
-376.706895593772
-363.807158430903
-344.889743450567
-323.560111886827
-304.558106792454
-290.407246186531
-280.104447132283
-270.534283409682
-258.883849696803
-244.147283652817
-227.201613822938
-210.014365719989
-194.59577882628
-182.055827063522
-172.161553657855
-163.738570433834
-155.672446275026
-147.62976731877
-139.835848769082
-132.270390127288
-124.305212238009
-115.251373702768
-105.142460763387
-94.7681683679221
-84.8911804289002
-75.5826591120724
-66.4396488452526
-57.3326553685435
-48.6931126968434
-40.9817757301673
-34.0495495593737
-27.2412712632137
-20.1419755614229
-13.0521001241777
-6.62578635800583
-1.1439989843212
3.69908545140372
8.31465685560952
12.7271806090776
16.6980285963422
20.2473517064099
23.8530754115977
28.0642660170046
33.035185605342
38.5522012189767
44.4462122270987
50.7933979418995
57.6442156623473
64.693429609606
71.3878250675577
77.3591558647113
82.6107580579521
87.2140797450161
90.9478797281221
93.4115567316051
94.5067627262985
94.6527973987815
94.4096812550638
93.9509108488852
93.0451638997237
91.5621505859042
89.8355738386924
88.3917967687936
87.3758690703627
86.4153049770658
85.1179566887145
83.594943959882
82.3659333882496
81.7828654078357
81.6993622487291
81.770267587799
81.9507362562553
82.5313749083332
83.6746134935366
85.0716207422289
86.1736923804495
86.7050622778163
86.8184702331335
86.7427014003781
86.4283657316678
85.6618624038761
84.461622987137
83.1841600540153
82.1617603829772
81.3316160377921
80.3403184578383
78.9856648427645
77.4201887962397
75.8695829396207
74.2719478357685
72.3461393133251
70.0110891825009
67.587794802526
65.48448239649
63.7459842698136
62.037927404419
60.0758437191643
57.934480412602
55.8436570689979
53.7684574793869
51.3647966318987
48.4013085896218
45.1039836732685
41.9579851743835
39.2017245643084
36.6525241911842
34.0722967534923
31.5756462774384
29.5310258340083
28.0810233926509
26.9219610501028
25.6512053240683
24.2402328008124
23.010530351142
22.1288185117473
21.2711754229734
19.9019116200204
17.8277388320656
15.3374978094395
12.777869915531
10.1441735438501
7.23457622769243
4.16516507151073
1.54849562259081
0.0454568491410896
-0.210179842593561
0.347169373720476
1.20703408778516
2.17360299257152
3.21037734436563
4.03026631702271
4.04398668809853
2.79257278634275
0.350086510185236
-2.78543374079936
-6.16042896317964
-9.63674552292639
-13.2229010512375
-16.7970351079224
-20.1284279861699
-23.132811804147
-25.9557720098121
-28.7284231127966
-31.3111399000486
-33.3686344008985
-34.665342578112
-35.1719029120744
-34.8561062893182
-33.5056691870334
-30.9172705450359
-27.2671703008017
-23.1580920022598
-19.1984664992822
-15.5822894883206
-12.182893780954
-9.04021696786714
-6.60323404860699
-5.37842433937521
-5.39528029835702
-6.16214151767508
-7.19123177678057
-8.45803250777405
-10.2355556004127
-12.5244366695921
-14.8052074512355
-16.436682834533
-17.2262641228698
-17.500779019579
-17.6316225142329
-17.6108846644996
-17.1513216469076
-16.1029935296354
-14.6256281869416
-12.9344851938858
-11.0047058451385
-8.64161909593349
-5.82516564998708
-2.90048020951999
-0.422061695773415
1.10542986063068
1.3011141205609
-0.145511792014211
-3.39825513951133
-8.25052061332342
-14.0473100447194
-19.9400576698562
-25.2474976570908
-29.5526528723481
-32.5257945065425
-33.8466185918357
-33.4515511146192
-31.8167159397879
-29.8160926667168
-28.1688566993183
-27.0342444609603
-26.1904622573182
-25.5447339294344
-25.3282854227127
-25.7547086009863
-26.6317467010404
-27.4890117390782
-28.1053067322807
-28.7655204901143
-29.8872188671085
-31.454959032201
-32.960343992694
-33.9209956173474
-34.3365805172178
-34.5482833276478
-34.7465613189991
-34.8026940045849
-34.6306980128524
-34.5503589073711
-35.0997347106477
-36.4715353818413
-38.2653091672254
-39.8692442889314
-41.0012213625176
-41.7696666870594
-42.2680488870873
-42.3183706400558
-41.7358871945461
-40.7389353205253
-39.8897810822316
-39.5585598554702
-39.551986764217
-39.368155666393
-38.7509147297925
-37.855485297425
-36.8750251508818
-35.6948646104632
-34.0776470519216
-32.1245833739833
-30.3330393853601
-29.0765389759674
-28.1200010338797
-26.7962508487668
-24.6572805054728
-21.8224975798884
-18.6538881504381
-15.2650033408221
-11.5616800621669
-7.76033296659719
-4.63070204890039
-3.01031422264735
-3.07544773455716
-4.21111313205117
-5.61746956914449
-6.91522817862586
-8.08086331239484
-8.94118656438184
-9.00572714791908
-7.91510647517566
-5.91909550582152
-3.71934497669285
-1.81840086781352
-0.143245566668504
1.65358120560514
3.66737724232749
5.66182841588556
7.44603837369571
9.09934236779228
10.6949814204304
11.9261050560071
12.2220818762826
11.2846435216979
9.37075523045269
6.9507627439274
4.19537825143325
0.972200962476447
-2.6731660188436
-6.26998366022723
-9.33873568753723
-11.9733410952849
-14.7774621697512
-18.1274562733459
-21.6306674982608
-24.4582996096625
-26.1508435239089
-26.9041797061167
-27.0226703517205
-26.3020785640567
-24.1802655560126
-20.4699006701829
-15.7052113032559
-10.6184813999637
-5.38133505464388
0.448466395220978
7.21585206042241
14.5485103016567
21.4943957253731
27.1275410239299
30.8816696448139
32.4029883668088
31.3770932993587
27.689443906056
21.7177233413926
14.4364638183075
7.41819515915221
2.88954462989733
3.43387368989916
10.722700810431
23.7076813691814
38.0501133364858
48.1290782594713
50.4523457726516
45.3486909058842
35.1988975012675
21.1910138810118
2.37709653698448
-21.8899643127188
-49.3737069754841
-75.9954185726163
-99.8559994215351
-123.425713318572
-150.724783194959
-182.345285703395
-214.110916406953
-240.653214017687
-258.306461136029
-261.758268707132
-237.432403500942
-163.809189288435
-24.2735367687498
175.915084805649
405.188551477911
621.454882121825
796.342150831922
926.204929928834
1019.80940036246
1075.51199163003
1071.75761197817
981.972004458195
800.812045128488
557.31593099248
302.64846973398
83.0572308473597
-79.9739136574198
-189.655659520945
-259.641338250949
-300.841755348668
-318.726440451057
-318.41111540556
-308.935204488853
-301.790039695162
-305.59003846822
-321.739125367416
-344.100741917688
-362.542433731743
-368.368614283794
-358.956547497287
-338.955155732588
-316.963947804196
-299.751283602145
-288.385390972369
-279.291803089986
-268.814382488122
-256.665119290312
-245.157681049715
-235.73433611476
-226.945367806222
-215.965686697916
-201.596136162701
-185.2899144256
-169.360412005988
-154.748496862312
-140.814656472677
-126.898944794776
-113.419731094917
-101.267341919418
-90.5694428637383
-80.5391773615973
-70.5088022769269
-60.7096016282992
-51.8403723429544
-44.1338079081554
-37.1986171043401
-30.7396189266048
-25.0399094391318
-20.4706116806737
-16.6863772533615
-12.6460395357918
-7.5289978093672
-1.44921062753889
4.85410096142534
10.8537334411419
16.5064959176211
21.7307419718936
25.9717270960921
28.5970642605484
29.6889649559773
30.1897605563615
31.1390040445214
32.8807042477958
35.1231875425627
37.6249207784686
40.5330323050826
43.96925431678
47.5321930699707
50.5117892606984
52.633969264917
54.3938294828253
56.5181951409098
59.1930910767644
61.9665183806848
64.3532471071954
66.3034019294755
67.966477013282
69.1810416702475
69.4945310132372
68.7762677502065
67.6354377161771
67.0405943301265
67.5264410310532
68.8782666082551
70.5646621788842
72.2758961587687
73.8983723616741
75.0955580786581
75.2205726165914
73.8213328535463
71.1567967487111
68.0573397686261
65.2512578824631
62.9095430514447
60.8327989316082
58.8891130601603
57.0865939243464
55.2722397731923
53.0154935537184
49.9804826752083
46.3788360654793
42.915293161059
40.2529373872703
38.6147657221729
37.9190036726318
38.1289329281782
39.2615678729762
41.052694263816
42.836808470992
43.9651208660966
44.3405409838008
44.4106211213342
44.5965108505824
44.8388488642803
44.7794571027269
44.2703742378701
43.4989103489302
42.575602242851
41.2038188071926
38.9827991303915
36.0437967997241
33.2026165556748
31.348997248457
30.7277626777918
30.8989392233961
31.3172860314557
31.7360668758939
31.9573658580321
31.3856441618571
29.1488918186436
24.8119774418524
18.8786869954435
12.4534108891356
6.41097309129493
0.971316628029371
-3.97737747273544
-8.3799458039967
-12.0259896288054
-14.9815646479807
-17.7464059730483
-20.8037046460338
-24.0549223031256
-26.8219463496734
-28.4118305952176
-28.5828543832336
-27.4574518375935
-25.1712022752179
-21.8203775777158
-17.747532728714
-13.6500115028973
-10.1982650175972
-7.54139492132128
-5.30012142850319
-3.06739424474819
-0.81051162252362
1.26940947731833
3.13306983833905
4.9511190329782
6.72729120249552
8.06295543193919
8.49282564697953
8.05452521528886
7.38194233757704
7.16406136309993
7.58960690233266
8.38586027979636
9.27737328339833
10.180511898055
10.8891188704655
10.787876176389
9.16668894550389
5.90834802974936
1.744335876116
-2.26839974671771
-5.45631624411331
-7.63208942174995
-8.61788752115206
-7.97718986353885
-5.42764533485408
-1.41835112930804
2.97808618389911
6.88699093351664
10.2550818942309
13.5521283503084
16.9484891253141
19.99686818218
22.1703113276563
23.4980666238322
24.4394648546094
25.172711974216
25.2835157401059
24.33760707102
22.6461387300886
21.2224902373961
20.9148968030096
21.7240519140885
23.0587795225711
24.4861347335955
25.9543080850345
27.2480839782588
27.5287523616189
25.752085334755
21.6019314366086
15.835489519149
9.60404547475463
3.55221887352505
-2.28086824633685
-7.80505600173894
-12.4727333014663
-15.7337144761739
-17.7540855715953
-19.3872162953973
-21.3280440645277
-23.4562043910703
-25.1671514239823
-26.2550478345478
-27.2383824893428
-28.7657498466927
-30.9182600982878
-33.3065564540795
-35.7676916030101
-38.6576619961924
-42.2768485139236
-46.1407307538891
-49.0690067288362
-50.0658781934274
-48.9980558391876
-46.3753745426003
-42.6735802653
-38.1225114994993
-33.1345947832136
-28.6213694418267
-25.5886390712197
-24.3990357853269
-24.5857253025862
-25.4274981080772
-26.5611957231098
-27.951317320214
-29.4587874051579
-30.7685093890385
-31.8444037740682
-33.2240748426395
-35.5779720945054
-38.9468472384232
-42.5919474736661
-45.6703587287861
-47.8905933469741
-49.3367761376257
-49.780512588078
-48.5300882270256
-45.1675879002017
-40.2699084970914
-35.0917348301226
-30.4611344903271
-26.1879459256516
-21.6980035330796
-17.070453935291
-13.1426634099114
-10.554474294796
-8.99024403509647
-7.62919647730495
-6.22702404088897
-5.39141460761963
-5.63780689530025
-6.41951039138528
-6.41804092568835
-4.79849287672278
-1.90972189407908
1.36962779979185
4.70464058213337
8.37437268875033
12.3045912621241
15.4596325771026
16.5605963573851
15.3470331466048
12.824415556172
10.1817308711203
7.72341945308679
5.08000329296122
2.25990918955882
0.0254517631648596
-0.966009279646958
-1.10439079377321
-1.52721184993486
-2.86768068427541
-4.61059593677197
-5.84485104663492
-6.39594585257733
-6.87184411929596
-7.65116944635674
-8.2729396800363
-8.12046357271276
-7.48453948401915
-7.50180887457332
-8.94248102853468
-11.4058633307262
-13.9967277048988
-16.5828305754939
-19.9193303099644
-24.4342540916626
-29.3246360420695
-33.2710245124747
-35.896247286484
-37.9891836328007
-40.0861276849625
-41.2561113122976
-39.8105634547487
-35.1651923463223
-28.4837001937099
-21.2664030906298
-13.7924540246159
-5.57663609154362
2.74791346236579
8.84401215250063
10.5743230239717
8.18987769027933
3.91342856082884
-0.684586330192198
-6.01076998621155
-12.4215265352795
-17.3787918175286
-16.0823552293749
-5.93020065576053
9.98111919547406
24.7417766649915
33.2365871664827
35.2207581987194
32.4744214779949
23.8632257598927
4.85906412053849
-27.3307592393232
-68.9634571476649
-111.204110108643
-146.512248411774
-173.161714040222
-193.932306488568
-212.101849915509
-229.727789708084
-247.723162831955
-262.888792397956
-261.570587800018
-218.231869601993
-107.143909472918
77.478631980699
310.364068162235
546.551022144283
748.214387992736
903.370234139992
1019.40841614783
1099.29743325957
1126.01255576277
1072.14944589081
925.563155505105
705.706536434181
455.435095594536
217.362786061231
16.4401946404267
-139.855014080043
-251.372330082017
-319.437778336451
-349.380150614034
-353.526648749437
-347.36189973542
-341.873023691821
-340.658789614457
-344.16014754894
-354.112322170988
-371.469503883168
-390.562727125408
-398.713092894114
-385.04155338258
-350.846829479752
-310.456560918288
-280.629885009375
-268.300240487127
-267.7232799494
-268.062098920036
-262.620139376431
-251.414932852767
-237.297075896077
-221.89071562837
-205.445723755582
-188.76044710684
-173.427221855477
-160.081679719579
-147.548533483533
-134.429705562944
-121.074904911354
-109.1993877434
-99.5746528758604
-90.852775031968
-81.124217588461
-70.2207818050705
-59.8180893824427
-51.276408431412
-44.0487492855769
-36.6355576737216
-28.6908083591079
-21.4391956265137
-15.8684838112431
-11.116041170013
-5.21186528834713
2.72827466942761
11.615241015116
19.8342809060567
27.0720635299085
34.1921109110649
41.4600217582801
47.5725178631604
50.8515610821269
51.121619858049
49.9032862920474
48.7197816157538
47.673988221889
45.9983180723399
43.6940650533321
42.0398526063301
42.3120224806949
44.4010324724686
47.0948366468813
49.6106868223178
52.3878011806512
56.1895239301846
60.7688698509142
64.8525235344341
67.4324413025825
68.6904452233963
69.4464039557368
69.9739524919354
69.7799786843628
68.5816215069357
67.107910616486
66.6096615095879
67.6745398943027
69.8251932833877
72.3145919631762
74.994137328582
78.1443110215907
81.6286339858049
84.6444549694007
86.4943519112181
87.3741224176687
88.106892720393
89.1355215824254
90.0576182629927
90.2487036755147
89.6664742608867
88.714959360605
87.3619438217263
84.7785407733699
80.1351344102809
73.6451215220552
66.5372740387003
59.9443904637304
54.0521508748615
48.4995392399378
43.4100651740024
39.6420378021333
37.8899124515192
37.7878057173913
38.1996065411895
38.3938447533697
38.7038319677173
39.9395739776897
42.354293243952
45.4224130539358
48.5611564106788
51.7431512197789
55.2005739851769
58.6812503001478
61.2897006305016
62.1336814748709
60.946170501881
57.9542403022014
53.3116736440912
46.9496389549301
39.0299699064602
30.279933857476
21.6223590008782
13.5120989258273
5.85766382120514
-1.34592356753272
-7.53185492509188
-11.9402590205875
-14.4356148420236
-15.6997551306832
-16.49564732991
-16.9025524893956
-16.4896636094848
-15.1933196364168
-13.7347759462279
-12.9841836846555
-13.0336629605841
-13.1426721650317
-12.6375363921957
-11.6647221180141
-10.916430339451
-10.7586695711817
-10.9005429555214
-10.9722050120329
-11.1765761885356
-12.1150378424394
-14.0039532837896
-16.303561407299
-18.232000493316
-19.4929002231715
-20.31883009052
-20.8834077108152
-20.9580902632848
-20.2897140073175
-19.126166199284
-18.0709742066006
-17.3599095080105
-16.4921339630451
-14.7493985998179
-11.9904732994169
-8.73828003004672
-5.50474571040343
-2.30869777344293
0.926381479073967
3.63377748289
4.61893220561106
3.01498054483201
-0.875541179543944
-5.8542985887521
-10.8857185597948
-15.6785854883102
-20.1898607887106
-23.8542832859786
-25.6810683505936
-25.1961544482083
-23.0521545349465
-20.4816529329491
-18.1917711722129
-15.9762715765708
-13.4057398641843
-10.6340744352033
-8.30334157628289
-6.75286489642969
-5.62747810670258
-4.40923752829205
-3.1606671859716
-2.49377067477322
-2.79821783575575
-3.71736238159735
-4.51765837229356
-4.84282559583239
-4.90008654978435
-4.93234919173974
-4.77412454023498
-4.11901921516195
-3.10933927813752
-2.38608427160126
-2.44956101158223
-3.11695822534897
-3.76338564952832
-4.02634309951972
-4.08026098943866
-4.201155330706
-4.30304410468892
-4.13730460120245
-3.8923170730386
-4.31349182857947
-6.04839282988092
-8.95790141049991
-12.2361277370183
-15.1806119016658
-17.6516422276705
-19.7139775812512
-21.0653134568215
-21.1409097681225
-19.846108574092
-17.9482190209567
-16.5089969891476
-15.9490004466485
-15.8357427101793
-15.6010193549603
-15.2449570926239
-15.1552486099175
-15.3610025870316
-15.2927050989776
-14.4452257051389
-13.1182804115333
-12.243429462561
-12.4365280975359
-13.3938333986477
-14.3222139682043
-14.8139116967327
-15.0790456489918
-15.3349011957735
-15.2399044687278
-14.1534730988439
-11.8869584618897
-8.96516134267464
-6.06216643421016
-3.3333607436449
-0.4616954366697
2.70486180961328
5.76242713312399
8.03742890398711
9.07241743324023
8.66045155900275
6.51109713027751
2.19837953423949
-4.36584240427008
-12.4948137039468
-20.9397769363939
-28.5516049728195
-34.6198113586716
-38.601344348375
-39.8407919617966
-37.9184056412588
-33.3221378850862
-27.4954918539642
-21.9418285665058
-17.2540812061276
-13.1244424843393
-9.2322437480672
-5.84265800525846
-3.36920357492849
-1.55547025175216
0.507706432256956
3.37682051660782
6.45832578488945
8.47407516453215
8.72041321944854
7.66150973609408
6.21941931976121
4.72703787017941
2.85707193672535
0.508751694659225
-1.63250039642135
-2.70120521789974
-2.69406443733125
-2.58710496555729
-3.31364724693398
-4.83578359317506
-6.41450308759662
-7.65469477921334
-8.95828774912973
-10.8637177798743
-13.2395044365411
-15.4648339303163
-17.3693710815483
-19.6395100237779
-23.0587838119449
-27.4793869287135
-31.8043935893801
-34.9856272946204
-36.7814976897239
-37.4166636327345
-36.784284010963
-34.4190969467068
-30.3598116331387
-25.7104251784708
-21.9930840431505
-19.9366719070825
-19.1205441883988
-18.8331782242716
-18.9757788329086
-19.8530803592565
-21.2358752521339
-22.1008977991848
-21.5679782591716
-19.9059901041587
-18.2663023791696
-17.3704984867841
-16.7225325695438
-15.2836742277182
-12.7432588526271
-9.85021670185828
-7.54431201153857
-6.12715497602719
-5.50817692058557
-6.02889994976201
-8.60608768978764
-13.896839303298
-21.4672087095882
-29.8022485057726
-36.7940045950438
-39.9566017359373
-36.6174203997127
-25.0225972030571
-6.17270273827403
15.4941243251152
34.0459457635986
45.3126523393758
48.219721532081
42.8393756759197
27.7957064112113
0.846010425883475
-37.2724666970727
-80.2300953616241
-118.80887375002
-147.308208346894
-167.455817888314
-185.826782103072
-207.498137195443
-232.029464686031
-253.991288710975
-264.434037585479
-249.875512959909
-191.679511750703
-72.2041174323597
112.062227729477
340.688371244999
574.869482636909
777.944247437895
934.68438071814
1051.53782401181
1136.84735462032
1179.96292236292
1150.72809503029
1022.22496980973
797.499092898758
516.671591294702
238.088834017715
8.97680971045669
-152.437607815624
-253.873823455329
-313.167482658484
-344.723372381165
-356.444034391175
-354.236693854397
-346.278688332323
-342.340455733785
-349.234909366254
-366.543983866988
-386.139524833859
-396.410582469993
-389.156776404304
-364.977120039704
-333.214285955618
-305.951049113784
-290.236024706211
-284.482077152903
-281.577010952731
-275.438467793387
-265.084924771798
-253.320984751901
-242.530877676617
-232.267165505439
-220.529286416873
-206.463044403747
-191.24788875573
-176.620540024957
-163.204794065424
-150.5368258305
-138.282834911028
-126.831435438505
-116.596131689539
-107.170141580638
-97.5696311603595
-87.2615825624099
-76.6476480698201
-66.4516804172521
-56.8963607179681
-47.7433458308747
-39.0435241322098
-31.4790236816346
-25.7322521177874
-21.623248294892
-18.1037436690528
-14.1578412365756
-9.5784150886215
-4.80124572347777
-0.144867209593995
4.56518186350679
9.62581328780589
14.9584966340337
20.1952409994644
25.2295309985738
30.4852995131482
36.5134849166314
43.3582371835292
50.3858971945698
56.6915704869153
61.5765036841359
64.6629182157077
65.767513223607
64.9134549728062
62.5379047578435
59.5621583287106
57.089458557931
55.9379572189654
56.4047140948986
58.3642110070388
61.4495447878309
65.1052221642972
68.6196051409854
71.3473181868115
73.0517313498256
74.0314174181899
74.8494368888555
75.905599211104
77.250963028788
78.7370746032832
80.2138534394173
81.5148928792852
82.3339196739509
82.293078790035
81.2563126834253
79.5707783279512
77.9238711243377
76.9059690035546
76.6837389134336
77.0404461776057
77.6302310477003
78.1272245955781
78.191928509062
77.4685409563584
75.7758655851809
73.3414947490192
70.7843718597149
68.7853273337035
67.719184737516
67.5495193115057
67.9891307298849
68.6810836612516
69.2395466546859
69.2518579493714
68.4158368430627
66.7726168208729
64.7865901338729
63.1156044827662
62.2226590174198
62.1448889070829
62.5663584734329
63.0440635935933
63.1507223028664
62.4862045343329
60.7058127847154
57.6696253807702
53.6037271392881
49.0671960942429
44.6782071132746
40.7944922903654
37.3941234344374
34.2107894255604
30.9601666043732
27.4726315790692
23.7047036248809
19.7297540582603
15.7689264685073
12.1964185255771
9.42029903921431
7.65689535412133
6.75223540366609
6.19945006912715
5.35299974396916
3.69759011187205
1.02193460696466
-2.54623451501683
-6.59430057762464
-10.5182573564176
-13.6555196897183
-15.4655160160088
-15.7134640233781
-14.5664039005073
-12.5363980027193
-10.2880959364272
-8.39614260740592
-7.15000868843612
-6.47574369919354
-6.00376575383697
-5.2598460085735
-3.8944141405149
-1.83513071625828
0.702461662569135
3.30758935599238
5.47671389105165
6.68923911340282
6.51247004015754
4.77942742752863
1.74934318138013
-1.92745665644497
-5.5005869761234
-8.48028035615411
-10.7800323167527
-12.549324532051
-13.9077679584112
-14.8596842292273
-15.4167061326359
-15.6903081643143
-15.7732530527857
-15.5470294852209
-14.7192841306606
-13.1587760634096
-11.2117858960298
-9.63408200165349
-9.15953445448639
-10.1110010070107
-12.3800764867182
-15.6580734820945
-19.5457318521303
-23.4213290845261
-26.3693274739124
-27.4869323497457
-26.4254733911054
-23.6534029037967
-20.1498987255619
-16.8306918526502
-14.2636692197073
-12.8349309822874
-12.9673888967555
-14.9738568815065
-18.6694921475997
-23.2745265146304
-27.8592822724967
-31.932339072816
-35.556279098535
-38.8896092341857
-41.6977784792258
-43.3828374657052
-43.4561828872148
-41.8845991439014
-38.9512056661508
-34.8882789486513
-29.7875697585019
-23.8977300498527
-17.9021787724055
-12.7723687162518
-9.28120600494149
-7.63078728280007
-7.49193935783763
-8.32265442965315
-9.64640826342924
-11.1577614143365
-12.7481925650755
-14.5292658215255
-16.7931146302275
-19.8578523441351
-23.8883428407776
-28.8149055230493
-34.3241239252139
-39.8094062596801
-44.3234596793895
-46.7551553219444
-46.3129406655705
-43.0042706311637
-37.6585006177551
-31.4372537700322
-25.3074404431437
-19.9530402482274
-16.0231267771743
-14.173622303812
-14.6596313635638
-16.927491471221
-19.8184737050897
-22.3263371476728
-24.1434486260043
-25.4202899912358
-26.0900976412421
-25.6347527455573
-23.5975526836816
-20.1756044887929
-16.1002618288343
-11.9359611694716
-7.72351033477731
-3.4921762948244
-0.0166139835289059
1.23151548699387
-0.925667168746088
-6.46561178292754
-14.3155800251204
-23.2905037555711
-32.6585176049322
-41.7528870668916
-49.3536168151986
-53.9100042178154
-54.5934969200274
-52.0242763848956
-47.7848708534353
-43.2187529061007
-38.7962237577802
-34.5584663769511
-30.8295416402429
-28.1788030962106
-26.7206123161672
-25.7735176814614
-24.4510491002842
-22.5327002281342
-20.5755694778454
-19.1719661094985
-18.2960722249408
-17.4844468951722
-16.4744686084959
-15.3833428537634
-14.2304532086232
-12.5663967040655
-9.84684957550308
-6.1422630789549
-2.23981534640898
1.06576743105513
3.64436164658758
5.86830373952344
7.92325318621039
9.57945663047353
10.7366597677358
11.9284943349662
13.9464672804054
16.9196243420678
20.0082328461213
22.1792471504651
23.1652418968407
23.4598068026021
23.4416972622001
22.8418799081713
21.2763188794509
19.0891965203794
17.2621122919128
16.354236055136
15.7845452164946
14.4321705922591
11.8762465355627
8.76439995662014
5.9121231994185
3.36703057388264
0.673744818289859
-2.07654696008538
-3.94297296987019
-4.15778129631726
-3.24305791735186
-2.7333652244462
-3.73775826794874
-6.06361424669041
-8.90448600141665
-12.0674001536492
-16.0432043499056
-20.8225221689564
-25.1276082531877
-27.2780049737195
-26.7578538635904
-24.5336732318315
-21.7016266553022
-18.184071535343
-13.134374286874
-6.4826439774111
0.433854973921234
5.99701403263335
9.71454841691126
12.0892119528874
13.2236730001027
12.1516893487638
7.91427093154406
1.05410958621398
-6.3309578746983
-11.8619917694699
-13.6910509064659
-10.0911761419317
0.697562545548257
18.9181729654141
41.3191293155297
61.6917962567008
74.4860541317576
78.0620918901765
73.8849307882228
62.6361916694587
42.3125687366659
11.2435355406361
-27.4600695032624
-66.1569446433331
-98.5018148359949
-124.52253065536
-148.827483826448
-174.035663024023
-197.632766836742
-215.907582145619
-228.317835760168
-233.364683212977
-218.065352702406
-155.160863769396
-18.4593980643226
192.710859333462
443.492036027779
681.919945000239
872.256085518095
1012.51966817407
1119.12760931998
1194.3371517119
1210.52994347877
1129.20015518467
937.619677786474
668.166533064822
382.127505800218
133.357305098189
-56.4079749429935
-193.683009910221
-291.943622685549
-356.506545572034
-386.964303915876
-388.400106510287
-375.902737023226
-367.316870824998
-372.415605683507
-388.864900648776
-407.026464224198
-417.716405918723
-416.83360782087
-405.615874952514
-388.581741550009
-370.899393082733
-355.87910941935
-343.614719418923
-331.976342601092
-319.384458964103
-306.661674028292
-295.89724913928
-287.602682994942
-279.579582267387
-268.99304872833
-255.294282954954
-240.586843424494
-227.116381256711
-214.965405155348
-202.57991697678
-189.151527866775
-175.710660983469
-163.651226270317
-152.744237750614
-141.236350333139
-127.849506038295
-113.103515952233
-98.3944338310939
-84.204925081343
-69.8308275030371
-54.8836733879173
-40.4613518851965
-28.3486573931275
-19.209108147704
-12.0262572933037
-5.42037359483004
0.890899355697918
6.26021873865765
10.4742320410575
14.3829952521472
18.9660566185061
24.1383853683888
28.9222255301567
32.7661376047136
36.2779660218243
40.4380413934427
45.358600675182
50.2003047175636
54.2804685556473
57.8487899816055
61.5173446107903
65.1772358831839
67.928740211252
69.1823894971582
69.4978409073789
70.0357301388363
71.294733175132
72.7198945257643
73.6116950956016
74.0816822398755
74.7994994320528
75.9241025957829
76.7096545735432
76.3792126046619
75.1652903847699
74.1623583638461
74.1519296687065
74.8599931666707
75.5122657591672
75.8762888204426
76.415600344527
77.4225063261925
78.3661006333145
78.389342675089
77.3444580832063
76.0229918143295
75.2697280189
75.0948685773387
74.8570879670501
74.1764046858899
73.3306707881457
72.655434384923
71.8407972349835
70.1595230910535
67.3941972684552
64.2575909115654
61.7221182700484
60.0754363773195
58.8573258648546
57.6746635741143
56.7699700606529
56.5999326410369
57.0362171460767
57.3265554977061
56.9533397560525
56.3203034066657
56.3749906720837
57.6098552302039
59.6471268283578
61.8353109832179
64.0056277316569
66.4096395679116
68.9996939785117
71.0916070400678
71.9250065724767
71.4349124817694
70.2594749607898
68.990380275697
67.6153508694849
65.7893472831283
63.4644733307892
60.9887188340018
58.5699848893251
55.896634203767
52.4967968497485
48.4010241945493
44.2314672288793
40.5794342039254
37.4661727462386
34.5598231384701
31.8079666683215
29.5980214318926
28.2115911855508
27.3176584852943
26.2318452637423
24.657100803098
22.9540455710458
21.5706325321577
20.3492938906503
18.6012766499893
15.8590249143159
12.3583453260241
8.67396841067524
5.03652934751332
1.25048387583217
-2.68701803288802
-6.11077349709539
-8.03730687509184
-7.97667658564232
-6.27488069156639
-3.66597336112869
-0.666160232342744
2.48799421608238
5.47366598095585
7.75769044377884
8.95241361826277
9.13775311083842
8.65104916801047
7.61352852365788
5.8770843157396
3.49390622967533
1.00431398861357
-1.01956584648807
-2.71932179443883
-4.9815656929265
-8.52415112080369
-13.0235810939741
-17.3516510344727
-20.7131288822103
-23.3765946826906
-26.1662019841098
-29.3831664763653
-32.4910345410462
-34.8987917516092
-36.7806495876723
-38.8472144133229
-41.3457907246352
-43.5693106118455
-44.5200123746095
-43.9263205428801
-42.3942739914204
-40.5905854615573
-38.547475360493
-35.9375649269985
-32.8575159600093
-30.0082778994599
-27.99253173585
-26.6416583916974
-25.2637481520963
-23.5103480665614
-21.76816374688
-20.622000677087
-20.1475699077694
-19.9778465464662
-20.015770789714
-20.7743888995129
-22.8089385724358
-25.9339283061679
-29.2598246541416
-32.0588104025297
-34.39936156545
-36.7777695385979
-39.2611245612473
-41.2736000756563
-42.3030235131841
-42.5908620159962
-42.8790064040636
-43.5114467438598
-44.036452356491
-43.8221719098354
-42.9036838104599
-41.9942379984611
-41.6735223220766
-41.803027456543
-41.8828487031706
-41.8230630786731
-42.0861455348731
-43.0203600172728
-44.2902702064164
-45.1870351708829
-45.4400939874913
-45.4883778299928
-45.8740946705072
-46.5616204820201
-47.058581162168
-47.1374603752222
-47.1576258330833
-47.5289604078679
-48.0233245064636
-47.879534221113
-46.6255617155016
-44.5904205011664
-42.4539123683595
-40.410097850557
-38.0056715676581
-34.8274091273964
-31.1130123440076
-27.4792080732709
-24.1331716154279
-20.6175476289725
-16.4422915206952
-11.7970972270826
-7.43333426010462
-3.88026153973793
-1.00045477156165
1.59276118454614
3.87404210667473
5.40288604596852
5.95272326260644
5.87141616192208
5.63449727384809
5.16604553768981
3.85798768778417
1.31289271195449
-2.13283584184743
-5.76830920733157
-9.23646012288957
-12.6239331650073
-15.7895242690748
-17.9057957249254
-17.9905143203981
-15.9005226484457
-12.5627897610781
-9.11355846665057
-5.99747338776483
-3.12712550086749
-0.79947667046624
-0.0255935456555334
-1.66564755517457
-5.37362885183952
-9.72864790731569
-13.4907393648194
-16.476149540503
-19.0008697155561
-20.678356582833
-20.2254298245683
-16.6567509173793
-10.4229135561564
-3.03791101817309
4.37622895814203
11.8160727404952
19.5102755224103
26.6313316082953
31.3892363062157
32.5555784804893
30.6111568735068
27.1242190091725
23.1556755767929
18.6660724392443
13.5547189429396
8.82176656727866
6.17369513633884
6.42524651424583
8.6654898252556
11.25034600256
13.4041789989282
15.4891211123103
17.7588388117972
19.3684011385119
19.0285223042986
16.4843822599445
12.8658132210114
9.39689517933903
6.09349719727207
2.10424124065589
-2.79384268922498
-7.54662994278729
-10.9051059676165
-12.8274258236595
-14.3473956321599
-16.0802865520151
-17.3692194956084
-17.2577721056036
-16.0319726130903
-15.2367960180713
-16.0202134463219
-17.8834744755131
-19.45380338271
-20.2683792229404
-21.2000761233565
-22.9265373031577
-24.487965008235
-23.9797179397056
-20.6587991513673
-15.7857726703959
-11.0393191650776
-6.48553995806526
-0.757336077036584
6.71016792787942
14.2789887155149
19.4835081843072
21.5799168496152
22.0770935250356
22.5682572783538
22.6561372438446
20.7098230018671
16.5910073988831
12.9147305163295
13.1684877944057
18.8495616258835
28.7991954456384
40.9482753053983
53.7718189210569
65.697609534431
74.0225548979831
75.8008792455534
70.2463448391444
59.4886540651111
46.1316164437217
30.2369084027299
9.47026790851404
-17.6985845152856
-49.7736209686684
-83.6296458844646
-117.173709549877
-149.340150137545
-177.978595203409
-200.382588376573
-217.78979810814
-237.158548684006
-262.621008202096
-280.543700140712
-254.736189084608
-144.528703455841
63.3741092564428
336.976531475634
615.122064136717
846.841278995871
1019.06682765677
1147.58441885579
1242.1404989153
1282.49655650629
1230.54633370696
1066.32141121447
811.820453724836
520.258162785956
243.377139526831
8.35940794287644
-179.000736455873
-317.218391596187
-401.240217892833
-430.645861307084
-419.642147051056
-393.306416540687
-372.381610182775
-362.919181792777
-360.838092905649
-363.847302622103
-375.790667576824
-399.263097570761
-427.210195190695
-445.244756226795
-443.248086029541
-423.806149146263
-398.790973246524
-378.508495681017
-364.760256527219
-353.133144751035
-339.474494502119
-322.903349545671
-304.012465566288
-282.842730933773
-259.799299212922
-237.338402879985
-218.875114121267
-205.531418619728
-194.879186995897
-183.640935012156
-171.239360196261
-159.907220306051
-151.392014206217
-144.51292374509
-136.564808146647
-126.592956550114
-116.321160065059
-107.708160093778
-100.413779247841
-92.3571162855121
-82.419926706588
-71.6837957777994
-61.7159320553399
-52.3365491783625
-41.8579028290251
-29.4224538577302
-16.3298961813015
-4.66267159718097
4.92420132975144
13.4086088811111
21.5298966678261
28.5018085188342
33.0740381446226
35.4778430745045
37.574587789328
40.9088516723214
45.1452485487467
48.8610594417791
51.5803238275282
54.3614006074905
58.2316339604463
62.6360144228482
66.0314495014508
67.8904276459005
69.483387946741
72.381658124813
76.5837687036206
80.6378951799347
83.5272474606494
85.8351510630353
88.7264486810112
92.176918536638
94.8396392842828
95.7409526389727
95.5741873843136
95.8853987677871
97.1983183752518
98.4846574705928
98.603619419509
97.7849221900043
97.2412741735966
97.4953900224561
97.6773213695987
96.7213170770765
94.859668948674
93.4160201246582
93.1369725866222
93.2118922121689
92.2257909572725
89.7896141680145
86.7732049484539
83.9516882896704
80.9447416841702
76.8756102808647
71.851593562597
67.2591565736254
64.4161740975231
63.2663832260525
62.7286630423666
62.1603236908182
62.0048094524906
62.8544491510689
64.2812604912581
65.0651317679159
64.5565396401228
63.3872494485318
62.5953083583224
62.30717412286
61.6750359672088
60.0991128512376
58.0999182203014
56.7203142079251
56.2990817521012
56.2492715811202
56.0812522380913
56.2288365518399
57.512228132158
59.9138437599171
62.2810606561214
63.3610192875664
62.8421207398735
61.1256786603993
58.2843159751405
53.7379604408905
47.1521881829378
39.3295652308798
31.7809359560881
25.3838216732442
19.7770908426504
14.2231772696715
8.77405070920886
4.20920362369511
0.873588379864032
-1.96297066616
-5.27330355871231
-8.98943386197224
-11.9572103143374
-13.2598719978178
-13.269852387719
-13.1234461922392
-13.3331558833147
-13.3319230799394
-12.4862248284507
-11.1801076862782
-10.4943536256445
-10.8738804155405
-11.5300838576463
-11.3853350181543
-10.3661090146849
-9.40419477654909
-9.18396788924695
-9.27612188364129
-8.74857022648681
-7.39826747221673
-5.96581391368625
-5.07635723985442
-4.34799284327087
-2.88737903318806
-0.560964828765115
1.59615928684787
2.36210766941547
1.45922322610673
-0.530978900281728
-3.20278997609157
-6.84018790414694
-11.7227024268762
-17.215302531201
-21.956014609295
-25.006493484193
-26.5543490937449
-27.3411394597638
-27.6386364400846
-27.1163481590964
-25.6771578098903
-24.0128768817787
-23.0273339385338
-22.8432597804725
-22.7239061775133
-22.0558016425227
-21.1299633118867
-20.7145288486398
-21.0038221537704
-21.3408904609058
-21.0619576508909
-20.3053959372604
-19.6826952793902
-19.2572234448919
-18.2433516995118
-15.9083701299115
-12.5490544125564
-9.27099673088363
-6.83792295801876
-5.05564687234761
-3.42419151513521
-2.10035518658398
-1.81335206645202
-2.80950957288811
-4.26092668892425
-5.02324402533027
-4.86057532768939
-4.60230917779069
-5.0471982082231
-6.03243745377054
-6.83638341726831
-7.3084348270886
-8.15900609544933
-9.97079517284423
-12.2260738718395
-13.6855200363271
-13.7210010956231
-12.9560989246729
-12.4423402172001
-12.461300629581
-12.4718478188736
-12.1813537708077
-12.2465895880147
-13.6278174619689
-16.421734421785
-19.7025352171069
-22.5898694387413
-25.1746750806974
-28.1474952264943
-31.6782633686456
-35.0360160156684
-37.4058471837164
-38.7687067537147
-39.6736425097548
-40.2610563577304
-39.9137316577401
-38.0543649255589
-35.0392102510642
-31.9362156143263
-29.4471522160188
-27.3643551075272
-25.2228705973526
-23.1974937868805
-21.9755054971119
-21.7541846647995
-21.7609846793652
-21.0594061144246
-19.6859971491257
-18.6531725762379
-18.7774203855131
-19.8077744141729
-20.9305783719155
-21.9184305554503
-23.3538201194026
-25.6088405065462
-27.9580655311722
-29.087924891887
-28.4599780046996
-26.8455296172434
-25.3797912243186
-24.3508197753543
-23.2159596418932
-21.6920659830059
-20.3764690858816
-20.0358673458065
-20.516898483687
-20.7656839071282
-19.995933503008
-18.5431055285898
-17.3635246846408
-16.8973304545113
-16.7743751271862
-16.6346530758272
-16.8232528947379
-17.937639168083
-19.8251283585744
-21.4280874853133
-21.7546198774422
-20.731515039022
-18.8528689986645
-16.177102790985
-12.1160007354875
-6.36026310910986
0.327630322999322
6.61979099583399
11.8447022542006
16.3016705209206
20.2059695057611
22.6866231870559
22.3083598010829
18.6174030765528
12.7793571678385
6.45428362123575
0.32010994091053
-5.86921703543237
-11.8288057403233
-15.9453758484025
-16.4283101102082
-13.1532206916142
-7.91228551096861
-2.69079742260273
1.96254118601168
6.5701000718806
11.048382686503
14.0673069619611
14.3780027218119
12.3974998123951
9.92685462393208
8.25155941703202
6.94519796112919
4.77971889878052
1.45539792866925
-2.09028395693485
-5.06154972806277
-7.89565802490094
-11.5441342700717
-15.915723125901
-19.621354029895
-21.4324675089136
-21.5632124459376
-21.1168848142301
-20.4999764223949
-18.9816167461639
-15.9835419008316
-12.2654066919567
-9.24137761096478
-7.21532748110028
-4.92230283060839
-1.14218165702241
3.63946867842983
7.74410822023488
10.390859659842
12.602986092612
15.6245123752882
18.8492945842641
20.0682551561401
17.9270607801288
13.5511227764858
9.2266850415656
5.76103586346683
1.89575666730082
-3.41935980524925
-8.74546431980514
-10.8000098111856
-7.36350434299058
0.902080782815867
11.53388351188
22.4767526512284
32.678783180819
40.945788662478
45.3266377085603
44.2416067317447
37.7637213608446
27.0702676563264
12.7350599149108
-5.65495275935923
-27.965526203844
-52.5120230865221
-77.5782774000054
-103.609401162558
-132.485266213321
-163.970122541148
-194.10659103374
-218.755721160412
-238.070171028141
-253.989705665141
-260.026928149286
-234.270929942206
-147.821678424171
13.5314661362272
232.959832707014
469.034216445784
681.577130822267
853.579100319885
988.922027024283
1090.16316379303
1141.09481287423
1113.26042543788
990.10411666641
784.458977519032
533.153060969702
276.265220176403
41.6261828191983
-154.848337899484
-301.414123709659
-389.422806759129
-420.778927358739
-412.529096732233
-389.440451320206
-369.829279465434
-358.37826726774
-351.943305579638
-349.904714475447
-356.600778026076
-373.944940470607
-394.40583778126
-404.029815812875
-393.37385426558
-365.200922804405
-331.455744033611
-303.299003645479
-284.018179119809
-269.981039741629
-256.213898097959
-240.243391050239
-221.984005258677
-202.192531151277
-182.034832593052
-163.292092280551
-147.587918068686
-134.958440195352
-123.715762354504
-112.202682827187
-100.511294342797
-90.1080542675116
-81.8814050193742
-75.0482246700179
-68.1520333216766
-60.7139642397999
-53.4315739318196
-46.8706563878173
-40.5387882316849
-33.566187372221
-25.9912558545633
-18.8713038638075
-13.0563301638881
-8.22835287135426
-3.3972480245622
1.89454328636777
7.25386094612755
12.3077519396754
17.4543721585901
23.4102592748582
30.1576247831105
36.7362013368506
42.2095818706148
46.5882098018291
50.5673872524438
54.4965931821912
57.9506823726246
60.4027046360406
62.0189787656193
63.4781376361722
65.0624124858588
66.2517983982855
66.3806259425222
65.5197875886919
64.4758248081853
63.9622078078262
64.0249928420496
64.3743869750125
65.0357707305143
66.3634641613092
68.402587440353
70.5171121021569
71.864281476174
72.1665433509067
71.8390943403577
71.3805306666081
70.8651375661199
70.1556133142449
69.4272092653044
69.1733093873196
69.6085126220535
70.2650603338336
70.3821142257746
69.6635669899475
68.4933883352647
67.3938069499713
66.4634489234404
65.4913794118082
64.4984539657911
63.8900461078999
63.9606526474347
64.4031010558861
64.512248312295
63.8870167116363
62.801565452846
61.85465220187
61.4072600701453
61.4958029761153
62.1838967096909
63.7141862415494
66.1527546610463
68.9929817430633
71.3142045684941
72.3840538041759
72.0150157144964
70.3253926846992
67.3447902896458
63.0596055839421
57.8045708084339
52.3386913380212
47.3215354705074
42.7547489123282
38.1064440280808
33.0172353132144
27.7388453490905
22.7848611063779
18.286541774984
13.9263819224849
9.55066260377787
5.63341301519452
2.90801501023732
1.54759906194387
0.895336938666588
0.100694721717367
-1.0932475652492
-2.33988001319924
-3.40867962289573
-4.69987197065131
-6.92228998842668
-10.3708953461866
-14.7093486483178
-19.477422825134
-24.6197641198541
-30.3393879579637
-36.4591366237265
-42.0875094008951
-45.9987282142961
-47.3016711328734
-45.731988218931
-41.4578569145838
-34.8484691703235
-26.5347461296622
-17.5655708313994
-9.28206387435186
-2.89639154904956
0.873317553396125
1.869529171928
0.385181691132134
-2.91001058460844
-7.03990606255775
-10.9602858153828
-13.9132805452453
-15.5958250145949
-15.9896777320485
-15.1031337632788
-12.9704993045619
-9.87263289040838
-6.39343406398831
-3.12526980566219
-0.344881921105253
1.91272946474205
3.4580961873475
3.77098143092233
2.35410297325551
-0.753465754328669
-4.91357007559561
-9.33907520349188
-13.4847013839703
-16.9342822156411
-19.0722757636037
-19.1701205507701
-16.9671842056808
-13.0881225058617
-8.7276333530018
-4.89759488304986
-2.06107281938278
-0.456251625661246
-0.505668965096677
-2.62033689793487
-6.58452017886064
-11.3805907961451
-15.8362289416776
-19.4166588922197
-22.2392763927958
-24.3409516476891
-25.1817252067092
-24.0666621179209
-20.9642710702909
-16.6525269839973
-11.974148965605
-7.14925275356888
-2.04106669597728
2.97550924261108
6.73069417906269
8.06089865121177
6.8199446587549
3.92380569344724
0.424985396222635
-3.22622032124151
-6.90073051485405
-10.0279109055534
-11.5232467296307
-10.6572262019712
-7.83989007790784
-4.32394142971175
-1.13403661093786
1.55630877850069
3.99934129829469
6.11670762946312
7.44946033674741
7.81999650714135
7.73060177091204
7.87887662624799
8.35973610331618
8.55972783401084
7.866960630456
6.29565382673294
4.29333849609949
2.09642694700705
-0.450408718499032
-3.40013789455745
-6.29513422018407
-8.51150576697059
-9.98314316808325
-11.357461914538
-13.3258670934624
-15.9332242420721
-18.6929810540883
-21.2796967678828
-23.835264438139
-26.4862001086897
-28.7759379287048
-29.8783487707611
-29.4339595599992
-27.9846971382785
-26.4389501544389
-25.2074409918465
-24.0445195072157
-22.7007569895676
-21.4602148932698
-20.8415324966872
-20.8904500809195
-21.0519616447044
-20.8427712357961
-20.4697615616322
-20.5822285363798
-21.4528395285216
-22.6048858434115
-23.3103728227775
-23.2748881817892
-22.6529592845543
-21.4877670219671
-19.4460657537718
-16.2899139788362
-12.4863706594432
-9.11054339983423
-7.07938534637359
-6.59251808448026
-7.35341649774684
-9.13098685870932
-11.8564829473802
-15.1885235592025
-18.2790434604577
-20.2280146712165
-20.7564315501317
-20.2721507599507
-19.2582784726713
-17.7750550803201
-15.6728874816663
-13.1291710450289
-10.6871029067802
-8.68989272540293
-6.89121095916543
-4.8414797237813
-2.60135932567945
-0.83338262122778
-0.094277570448134
-0.205215525791241
-0.498107189160901
-0.592321347027818
-0.660407873768797
-0.844730256106303
-0.670629910125044
0.638176603183062
3.23540971137652
6.29792990964849
8.77105433148327
10.3519478530867
11.5315936554499
12.7188648040959
13.6400394892356
13.8048141177708
13.3746239284352
13.1870133153307
13.7802767628195
14.6143864376458
14.5070615596127
12.7926524246453
9.81765237497552
6.26679102355511
2.30718140761202
-2.30732263900584
-7.38562434354692
-11.9580246008473
-15.0312859806499
-16.5427784130591
-17.3045215429804
-18.0174154611914
-18.6153139734713
-18.7024639387383
-18.3585069333998
-18.1210265671107
-18.1459639452035
-17.7589272054417
-16.1477084546434
-13.3821581998662
-10.4145589201246
-8.01791023289663
-6.06059733007957
-4.10469778675877
-2.50558963001087
-2.40308102480883
-4.4079106525374
-7.62836733364457
-10.4369141698392
-12.1722897798299
-13.6169809490621
-15.5010987407289
-16.8481131122984
-15.415509529331
-10.0318288501097
-2.20426981498623
4.96568037849499
9.42715917752058
11.425180836954
12.0525847147971
10.9953897598047
6.26747516324577
-3.66032627965537
-17.7618133449618
-32.8434027585265
-46.2159576368912
-58.1354946790676
-71.8403795172557
-91.2865901547389
-118.487842624189
-152.345221762885
-189.486714530704
-226.060422747285
-258.501476764139
-281.800766242117
-286.14386104069
-255.623924420727
-172.886639721392
-29.1149682191981
167.3657145355
391.861103162725
614.576910210483
813.692362591154
978.903877821756
1102.88731869853
1170.61251136113
1159.65437780908
1054.16147146174
860.889833951064
612.268600562256
352.667754147406
118.731316889919
-71.5125960975867
-215.666034761801
-317.219784616222
-379.197263828495
-404.523636035303
-399.052356709998
-372.581071779288
-337.463165810301
-306.787085273849
-292.291101166297
-300.534840365022
-328.23318963844
-361.377261286086
-381.789393334615
-378.172827318404
-353.173415837809
-320.310006223657
-293.411755626389
-277.660475929319
-268.998698152985
-260.411242043819
-248.097540874472
-232.622932433274
-216.161160929027
-200.030097962282
-184.614778330288
-170.291125806751
-157.420788399446
-145.626760632518
-133.877298178426
-121.67554317158
-109.882048387513
-99.988113037283
-92.6268784676775
-87.082714640106
-82.2652534232686
-77.8052293923084
-73.9410755785604
-70.5511937385703
-66.7596057643695
-61.669754677927
-55.2421895344885
-48.1794225820318
-41.0214042709981
-33.6419773821535
-25.7126428342213
-17.3991279499024
-9.33130453645908
-1.94840699893186
4.83954412931594
11.2309793969394
16.9940619197453
21.611155606788
24.9479779860364
27.5508463987732
30.1670816545027
33.1164253771523
36.3030560757998
39.7486116473313
43.8113355196079
48.7187522072023
54.0401293821066
58.8771530788819
62.6243814076524
65.3884181519516
67.5919665373578
69.346655668139
70.4391367615651
70.8959763998807
71.2725632209056
72.1723954097128
73.5700818172653
74.8376620107044
75.488813538361
75.7170424767709
76.0659413660269
76.7012857972686
77.2629150642745
77.4826297538669
77.7109245714103
78.5925398639369
80.2569750406337
82.0639304208569
83.2622786908719
83.7557870111126
84.0311808196204
84.3731268445441
84.3843337735248
83.4076213818865
81.2805398830283
78.4539968017814
75.3611059797139
71.8950203930892
67.6938444210523
62.8784996132225
58.3148946195618
55.0775108958122
53.7535456594005
54.327506725824
56.5832075783629
60.3525180789855
65.2755627607525
70.4810063301925
74.7302517300726
76.9622467801836
76.6809204823917
73.8806812544754
68.7968180526074
61.8759265825447
53.9015750629626
45.8988676093375
38.742770494019
32.8612541393134
28.3519517366401
25.288296929986
23.7454667480522
23.503809914208
23.9020642280636
24.1614364585278
23.8472195343366
22.8881948412755
21.1395182404879
18.1247903759855
13.4077255553101
7.19716073980067
0.398938555244163
-6.02342464667274
-11.6309239243315
-16.3456863260781
-19.8366060993106
-21.3780938587246
-20.5060834827572
-17.6975941190556
-14.1516819399908
-10.8159511432411
-7.75488913743949
-4.55461781729496
-1.18155966759431
1.81970935293197
4.01094216151387
5.68268464980189
7.5386662099457
9.78040859411472
11.7221505990898
12.4187887575544
11.5443151471456
9.50455360634449
6.78414370119981
3.460177632846
-0.52015193928234
-4.78779930738681
-8.57836351054565
-11.3696056133834
-13.3028050514845
-14.8343496067694
-16.0914750454866
-16.7816410885261
-16.7150936865
-16.1327222303595
-15.3001755264889
-13.897548671725
-11.1285340062061
-6.57935960411344
-0.816404913152871
5.05385122672827
10.3502398605908
15.1109877108544
19.3770835751564
22.4566377968947
23.2302056108485
21.2265431655348
17.162127586105
12.2516004371337
7.10694664455834
1.53322156174491
-4.62160371868669
-10.7218167302045
-15.6807536525424
-18.9474346013162
-20.9010740066053
-22.2039745933533
-22.9838114422294
-22.8600419854096
-21.675510928147
-19.8978351730777
-18.161398460797
-16.5921590623567
-14.8179255353744
-12.6126499299834
-10.2803224121666
-8.28378254239775
-6.68554150962742
-5.21848091960474
-3.89909293428397
-3.29066970916681
-3.95690011488972
-5.76167023064004
-7.94259594093605
-9.89450886408044
-11.6488143327335
-13.4277370977706
-14.9080086097675
-15.2684206285004
-14.0791334747761
-11.9248039177862
-9.90699042188072
-8.57632401186391
-7.58932356598564
-6.47113047596478
-5.45246107841372
-5.27155159183904
-6.20167553864157
-7.60167626663865
-8.63102242635775
-9.26421799189657
-10.3365793214229
-12.5763152642005
-15.8412523074906
-19.4628582505427
-23.1513843524701
-27.2328522021572
-31.9287942672928
-36.6767579399725
-40.4287322053221
-42.5704668862289
-43.3082630404052
-43.1033880217725
-41.9856273004787
-39.6764424657251
-36.3035000068704
-32.6673894526521
-29.6345023509246
-27.4300887454816
-25.7518540248648
-24.5116606152173
-24.1543620334295
-25.0799912604922
-26.9410990983455
-28.8034809988523
-30.0209504387605
-30.7040669745864
-31.191248947168
-31.2785417124201
-30.312479803664
-28.0891400958328
-25.3660401041857
-23.2371549499722
-22.1071609597726
-21.5573724705704
-21.2391502937808
-21.5635575060909
-23.2135883000294
-26.0917278594488
-29.1346867696388
-31.3433679897856
-32.7703729933251
-34.2071313213441
-35.9726816335043
-37.3766617021299
-37.5556098762055
-36.5784742326805
-35.345896878563
-34.378468540611
-33.0591436859676
-30.3296664994616
-25.9631622956018
-20.7957272653857
-15.6636540913967
-10.4664136938787
-4.56619992005126
2.06017179696498
8.49495729784683
13.8378922401843
18.1795795610955
22.2945686543148
26.4722701222955
30.0584789701059
32.3164263145533
33.4193736847572
34.1874204602797
34.8842368301641
34.7167534125263
32.8009170132398
29.3854906263137
25.7054470803113
22.6038435386798
19.7152354003861
16.3083382922773
12.6854341159221
10.2301936301986
9.91953473880936
11.1606948923791
12.4699605959758
13.1551426367075
13.8544197312876
15.2667454751374
16.781563707718
16.8675640286849
14.7798691592996
11.3918336061431
8.06872496742003
5.04235925229285
1.38347943841956
-3.44714336314107
-8.57446335294082
-12.6121354994374
-15.318237540225
-17.801468351381
-20.9834304483207
-24.3499181584569
-26.6587839276104
-27.6618886642235
-28.5124043809923
-30.2576486134062
-32.401111725699
-33.4882594959612
-32.9934859388056
-31.9977203267944
-31.6943522264418
-31.6690030975318
-30.2866067391703
-26.7676732970797
-22.2346724283695
-18.2797069387165
-14.8825888733521
-10.4693667662371
-4.1557649070791
2.71297333729849
7.82599292523821
10.4661853444709
12.1085527811007
14.2833082534963
16.4921552593918
16.9519011678858
15.2892965517897
13.7329370029948
15.2046700735993
20.5990591584813
28.420979562653
36.7865379094897
44.868230422223
52.0305640486585
56.3932420422533
55.4329458855089
48.2109854116106
36.1740596962793
21.1803237531628
3.33291648637805
-18.2675405967269
-42.8360811068978
-67.4613779760192
-90.3538265957785
-113.6063498669
-140.796794592128
-171.4190820754
-199.659137474992
-220.686285962348
-236.9091628442
-253.409071852598
-263.292879774929
-238.830508707103
-143.691630024124
38.6252620588905
285.168522138696
543.844169020182
767.138971295551
938.751993556929
1068.70931177517
1164.1105097552
1207.24745853419
1164.52170900087
1017.29477839411
783.694334928122
510.800982380638
246.719969938245
19.3905347950967
-162.565695621037
-296.277247705411
-377.699245731499
-407.845768694413
-400.779339799653
-380.129908217748
-365.490691430114
-362.397930114653
-365.419738789447
-369.184988360497
-374.559201600083
-384.532127821595
-396.844315038726
-403.313113836073
-396.970137158526
-378.834262909345
-356.964568114318
-339.304082377509
-327.975722529756
-319.882399345813
-311.244234133945
-300.610110382523
-288.238007754807
-274.271606134708
-258.491605915563
-241.34196007865
-224.10807124852
-207.674834603531
-191.56934376151
-174.725618976958
-157.08112549161
-139.970589469386
-124.824573701047
-111.809351696393
-100.010995456757
-88.7494033179891
-78.2846961678524
-69.1418518596322
-61.1093936908596
-53.2764741390693
-45.0085710332894
-36.5485133202376
-28.5013455971879
-20.9474702439438
-13.3534797991115
-5.34474062183259
2.70771282746365
10.0293152174533
16.2275520457014
21.5180024236008
26.1886014715552
30.0945239330734
32.873059620796
34.5749757115748
35.8633858894707
37.5088273339563
39.8030502280387
42.566438161293
45.6296535269071
49.1014697705524
53.0954664144226
57.3406762668661
61.2445758534044
64.3643493454946
66.7121475321704
68.5517360901622
69.9951161058769
70.9204138877545
71.2683612168057
71.2795521676901
71.3475929614456
71.6934218011837
72.293017730141
73.132139940107
74.4173402855457
76.4330206741666
79.2059957028594
82.3936815578107
85.5252282462049
88.2858100699575
90.5146945582532
91.9946335999058
92.3955502134809
91.5236523066302
89.5984213911525
87.1969344954196
84.8838656866441
82.9126252231165
81.2831063650555
80.0085196355401
79.2191879273163
78.9796446394207
79.0868237520115
79.155622616556
78.9406897120612
78.5395434741024
78.2475365118703
78.2338587453199
78.3977228862657
78.5298895865747
78.5461636210332
78.5082930764035
78.443022246503
78.229405742508
77.726608255105
76.9910242206885
76.2945005219352
75.8828797078102
75.7297566238481
75.554327267572
75.0631925266692
74.1216657688867
72.6736122954387
70.5672413473074
67.5775618511749
63.6615246179365
59.1470450457993
54.5753473792921
50.3019655364232
46.2637721647812
42.156591312782
37.8101523242087
33.3349292334421
28.9096657369564
24.5272586280872
20.0686011455612
15.6537735983508
11.8372121995217
9.34926606408344
8.59789201989917
9.4250189401156
11.3266803573324
13.8378770338573
16.6535533476482
19.433757679523
21.6393483708993
22.6811152555761
22.2480163668164
20.4462852238829
17.6100344201362
14.0256462253805
9.86916794143615
5.35106794459924
0.813096571151778
-3.36685679397108
-6.9237975705517
-9.71386258246209
-11.6142857739739
-12.5165629264422
-12.4733941234693
-11.8060591584229
-10.9842279292192
-10.373367550202
-10.1242391190255
-10.29333398905
-10.9709940155616
-12.1888643896483
-13.7092700200257
-15.020148805373
-15.6405406072019
-15.4408844883153
-14.6323378518504
-13.4736367958874
-12.0804751239319
-10.5534039050284
-9.18477880930022
-8.38118731382667
-8.33319737522012
-8.85420552230344
-9.64010052922331
-10.6559371638371
-12.1585193900575
-14.3184259618715
-16.9427163598337
-19.6909798033331
-22.5196132096933
-25.7394233502552
-29.5392937735454
-33.5531387576906
-37.0680122514307
-39.6892628646893
-41.6601161028271
-43.4074872220108
-44.8416991391529
-45.2798664514764
-44.1203453642307
-41.4670017846863
-37.9572964745248
-34.0408825825105
-29.6469918915049
-24.6879609308724
-19.7743959810624
-16.2073215988692
-15.160215746805
-16.9208897372776
-20.9589852632867
-26.5859918193959
-33.3411125723511
-40.7153456632748
-47.7431242054008
-53.1616974031766
-56.0855902124844
-56.4699094512122
-54.8922215015158
-51.9927994057255
-48.2255337522404
-44.0464496087518
-40.0658506458515
-36.8124702043796
-34.3812721752878
-32.465907069582
-30.7849031335
-29.3765798303881
-28.4061552200447
-27.7829976848762
-27.1366470833789
-26.1982080315512
-25.059375677341
-23.930258442474
-22.7097867286542
-20.9823677835201
-18.5251752748615
-15.7265073791262
-13.3851479158243
-12.1134457070651
-12.0309281245407
-13.0170371853555
-15.0598451568305
-18.1628152940035
-21.9331695011251
-25.4651264564338
-27.780520283215
-28.3683349046539
-27.2434012319141
-24.5786937929927
-20.4887774739718
-15.249193111039
-9.5518984293305
-4.29335562188164
-0.0409991952050781
3.17083883984723
5.446493760237
6.56667523008072
6.11141488615056
4.04353347869854
0.967754017183484
-2.33784106101927
-5.55416906638565
-8.79529588109157
-11.9569952213326
-14.3430616105929
-15.169268116697
-14.3989882758417
-12.8675838963593
-11.5052192021097
-10.5999699613482
-9.97088124218608
-9.71291089967387
-10.4151079172189
-12.4679581060597
-15.3439708766107
-17.8597570566729
-19.1900768687028
-19.4116859808218
-18.944864811851
-17.6958224605349
-15.0900031627718
-10.9783947462196
-6.17770970072991
-1.82711647875169
1.68933751112201
4.86317932034922
8.03385931094846
10.5466607905171
11.2529875107841
9.7874542091996
7.00819972020602
4.02413308478995
1.05527084082382
-2.40008979241645
-6.32937477501002
-9.58249028207774
-10.8015143754546
-9.82798871583714
-7.83410799674039
-6.0016436038448
-4.39329409722973
-2.36944097971988
0.122221694928321
2.17356175731207
2.99805854329014
3.03620768778077
3.56730520432063
5.24430515221493
7.3869661397917
8.89715532284529
9.5663838253985
10.0832293625828
10.8193271623308
11.1167019395371
10.1160086933591
8.05414276001193
6.25213032463975
5.70243945180729
6.03467101115999
6.18072304681607
5.83646229668912
5.77078291461453
6.58686620946361
7.6485821259393
7.70802676434985
6.4852952994168
5.09609507469931
4.67422086293024
4.93650671702076
4.58042295966956
3.01676189422511
1.15112281105326
0.163276936746385
-0.0809306594653094
-0.800691760591448
-2.48042768630791
-3.89936254470038
-3.44419465457607
-1.11869764457664
1.37752660278708
2.68636969057204
3.32782283114348
4.70925273490974
6.91678722206864
8.30721218863658
7.61494905832149
5.87571085608064
5.49101820383046
7.38520755507363
9.7959868316084
10.3031637277784
8.58987851652726
6.45794542011568
5.14821827092866
3.54259907661157
-0.26727786018858
-5.93397466977995
-10.2285859730895
-9.74974364823652
-3.76513558213522
5.9622966102972
17.5083414139724
29.8767297792237
41.6585819452054
49.8266670956515
51.1556138951818
44.8552382956747
32.8198575260681
16.8712533078179
-3.33408562154205
-28.6751917054939
-57.423646007416
-85.5231003677159
-110.869354653319
-135.967559918773
-164.303918109167
-194.105117319159
-218.163117240333
-231.695764576846
-238.424789421468
-243.943646701886
-239.942507329104
-197.586797198447
-83.5613088570602
111.134053182153
356.969961584779
602.942111074717
810.712995393195
973.055177418398
1099.33469699744
1185.49468853194
1202.6730468485
1118.55286588742
930.161509307609
674.352000051753
405.54390387496
163.339520889462
-39.9941829387643
-206.113565499648
-332.059677297998
-408.333759468557
-432.60747890328
-419.698449952378
-394.449024938621
-375.021859573016
-364.511393018331
-357.884107856225
-353.713638865955
-356.653763999327
-369.490527446768
-386.218621795966
-395.37602145287
-390.028885127054
-373.29459962247
-354.106881304475
-338.850153203534
-327.640911787374
-317.267476402756
-305.51542113425
-292.00928242683
-276.465070799261
-258.187733895215
-237.710305688854
-217.687728619935
-200.98006049752
-187.903389584909
-176.106175255598
-163.325899152257
-149.657731938337
-136.691089312833
-124.914298153056
-112.858108958302
-98.9975106681222
-83.8192968806427
-69.3684203147605
-56.9415001684015
-45.9179807754181
-35.089132919784
-24.5696883089866
-15.753104726047
-9.4594168180446
-4.78486640989026
-0.158396909005618
4.80795561023086
9.06553608781649
11.7226139039885
13.3671743114927
15.4543253298593
18.6468179919002
22.2703423028449
25.4769636617955
28.4735674940792
32.1878704418042
36.8766665536936
41.5627344481467
45.0567139353559
47.248819275608
49.0605500588832
51.2269975739878
53.5414703513613
55.4711903271872
57.1980813020926
59.6206009378367
63.2870834060167
67.6631584615644
71.6916833180305
74.9245871457616
77.8128411852465
80.8859685973889
83.9734970620804
86.4720867920033
88.2215023773682
89.7630273262694
91.6197933601917
93.5564343658107
94.7968456773655
94.9165231679201
94.2702274633879
93.4633875349689
92.6222199153057
91.416779816843
89.7341065846843
88.0292509782878
86.8415969365719
86.1036811900495
85.1627451697464
83.5102417361465
81.308875825887
79.0978296901943
77.1255111198307
75.1910777133247
73.141805789596
71.2865480372098
70.1199047518034
69.6975935752399
69.4880209568046
68.9156376018186
67.927137255818
66.9084545393034
66.132808961819
65.4921230271876
64.8287097178187
64.3551028057508
64.5333576848592
65.5172383155495
66.8602087570998
67.8742971563908
68.2158927086656
68.0203140731231
67.50392242675
66.6014749931477
65.0894657776471
62.9706036696249
60.5636965385493
58.156377773207
55.6544706601029
52.6536542307404
48.8211152221938
44.1295336660555
38.7412591947938
32.7979234398634
26.4205573729566
19.8634214015461
13.5347132250942
7.80642956800232
2.85394848153583
-1.27229046855417
-4.47328298451222
-6.5980534031144
-7.62602176423716
-7.76637029356408
-7.31210213628065
-6.44537833504849
-5.28444344745788
-4.12638434510945
-3.52428466686703
-4.00401425235147
-5.69095207671192
-8.26203377307951
-11.2437928192393
-14.2501162819899
-16.8719313306823
-18.4532318755195
-18.2076048359002
-15.7120047119383
-11.2781398384387
-5.76797045506657
-0.0524104540280819
5.27916750125541
9.70348107236285
12.4647948659834
12.7432528582214
10.2278964030972
5.45080752817552
-0.549286289480576
-6.89045453172983
-13.113944485774
-18.8288873531033
-23.2822046963025
-25.4918056535013
-24.8795392010531
-21.7100097308741
-16.850689366168
-11.1515357183107
-5.14473060199049
0.679226984836587
5.48749714167707
8.20787332907954
8.11450832098793
5.30432267467472
0.580383584433974
-5.1003665566694
-11.0439593856061
-16.7788047323345
-21.7939028967326
-25.4995980411723
-27.521702812569
-28.0043801837714
-27.561536999989
-26.8860233197654
-26.3664654603901
-26.0212600967376
-25.7246850897744
-25.4421017673391
-25.2492809924323
-25.1787272631676
-25.1180970674383
-24.9083084810774
-24.5518786749767
-24.3005922145979
-24.4986820657813
-25.309296892428
-26.5848142750467
-28.0034561049626
-29.3207638690679
-30.4707699512511
-31.4307170323627
-32.0379855231607
-32.0016693300834
-31.1171808953365
-29.4451845199006
-27.2525657819342
-24.791304399531
-22.176123257462
-19.4926624948079
-16.9866467675057
-15.0911559595817
-14.2426201037793
-14.6680682198924
-16.3272219481221
-19.0001243783131
-22.383446416054
-26.1258108305455
-29.8533086557811
-33.2329784847297
-36.031774057258
-38.1185076512599
-39.4473752478431
-40.0897729024574
-40.2660435776815
-40.241417663083
-40.0825095586789
-39.5058156410613
-38.0488240539253
-35.4634435841622
-31.9380791368753
-27.9092583161662
-23.7044286470106
-19.4765316392295
-15.5224523749085
-12.540274172065
-11.3748380870161
-12.4059166337114
-15.2276150329487
-18.9975475065275
-23.0746245779205
-27.237443447546
-31.3072643535491
-34.746580529652
-36.8290534901624
-37.2356414728511
-36.3566123425907
-34.9080527200402
-33.3020045222486
-31.4967267177553
-29.4383650700856
-27.4723223799849
-26.1754053840689
-25.8222438382381
-26.1618291646084
-26.7646551558795
-27.4733458233102
-28.3966280918203
-29.5181576043106
-30.4917935854099
-30.9133085730225
-30.7018954397916
-30.0849817101408
-29.2274175240439
-28.0172491620618
-26.2725155155776
-24.0261646791214
-21.439906280153
-18.4535521441736
-14.7110146053853
-9.96858472381212
-4.50550548701374
1.01972428009302
6.12032977959097
10.7302218503807
14.8225504639258
17.9410909491919
19.3732952866162
18.8696897239131
17.0263495604848
14.7809571968973
12.5737992175809
10.1776667319339
7.3682277083276
4.52809555464524
2.36454504527786
1.09270003813998
0.170728340118377
-1.01883548520196
-2.38888427451311
-3.27104103032302
-3.27855978172759
-2.7755265469953
-2.33920487496174
-1.94477122567887
-0.981887147585123
0.903838858307456
3.2915457643529
5.54379531426643
7.74343149401577
10.7266298906959
15.0656857243172
20.2640818405226
25.2205702485163
29.3920620390911
33.1479806777884
36.8428596525836
39.8411976826898
40.8599864907526
39.3097119044056
35.9740932692072
32.1494081502218
28.3015139679502
23.8921680473278
18.4985451999506
12.689838349529
7.49679881361114
3.20551817756422
-0.88993017325344
-5.42168458918891
-9.96046144523931
-13.3735852456419
-14.9849963102159
-14.9569884458763
-13.4618537484033
-9.95882139945983
-3.78727227619229
4.59525169682872
13.4640112567993
21.1508549399134
27.1917419059632
31.7753389770685
34.2779000692071
33.0871093886319
27.3281102473698
18.4141505491845
9.21007871998151
1.51420656661312
-5.13146764156679
-11.7925322376294
-17.7744462514592
-20.7273329485015
-19.3066818610285
-15.0349082328466
-10.7934048562622
-7.61164041138854
-3.7178094913027
2.93746246301482
11.8733085776457
20.5208609779699
27.2021073310124
32.6188682374707
37.8733239901577
41.7998805923763
41.448675487225
35.3219512728838
25.0541698507251
13.1268674394584
-0.374971401025011
-17.4370999306501
-38.5544495071362
-61.0889850743597
-82.4153775670324
-103.753826867768
-128.65340320943
-157.103609044682
-183.483303965306
-202.903941920596
-218.342443117034
-236.052679050048
-249.033480719666
-226.270466185751
-126.166367239555
70.4614421188331
336.923564580216
612.581699804334
843.296842402784
1013.72993115528
1141.05310621724
1238.10664455622
1285.27740449561
1241.02336744031
1080.6349924197
824.186350860486
527.071606676882
244.871850738788
7.04465081390099
-180.700398272753
-317.661797868419
-398.804582922499
-423.629708726594
-407.9305486338
-380.242604329566
-364.242535941225
-365.349633082805
-374.654200828106
-383.661795869542
-392.824900212111
-406.381091903584
-422.571714133745
-432.282379839449
-427.584623851419
-409.751603061161
-387.769848765375
-369.817144682955
-357.297771905213
-346.520164872472
-334.054757835561
-319.225187385515
-302.523480961027
-283.890228951831
-263.55591571828
-243.507313938279
-226.538005736102
-213.506680979645
-202.364750823114
-190.468441899572
-177.407036548107
-164.868771628831
-153.900926999806
-143.225871708249
-130.762799596186
-116.277962805371
-101.705107726839
-88.8181633493837
-77.3559597266241
-65.9565396850931
-54.4893625431049
-44.5982863556965
-37.7280007627895
-33.2492168690132
-29.1317690906294
-24.2572659577023
-19.3756820968792
-15.5676375385812
-12.3447495331815
-7.91755294835796
-1.26012390424301
6.73083082519846
14.4409701596936
21.4721389739661
28.794710428194
37.0149924443378
45.117426779871
51.3638082514257
55.1881135736927
57.6666800023102
60.0479560884581
62.3247449815129
63.6714294486633
64.0507770138364
64.7705571804318
67.1946123413058
71.2499377421676
75.6235287710445
79.3392823527526
82.6667463119383
86.271285020844
89.8418590966861
92.071660985311
92.0449075748132
90.2389814856475
87.8764887255322
85.5070717095563
82.6437520113867
78.8456818157637
74.7586905811459
71.7341477669697
70.5268025901617
70.7314067280954
71.5943544446623
73.044845840291
75.5781299567032
79.1988254822228
82.8788034039387
85.2936627927871
85.9381467374624
85.2708356077459
83.8324854179465
81.5749866456213
78.2613653642713
74.3181344463739
70.9130476988195
69.0574038671033
68.805294692693
69.4878376712875
70.6037196487254
72.2176110789036
74.435136847962
76.721679672532
77.9692179914686
77.2152646098642
74.1521061025004
68.9681128431649
61.9670625203932
53.5667030135065
44.5663126383186
36.0828709164523
29.0080733626534
23.5846051527272
19.6472876499832
17.2311355656132
16.7426688828615
18.4358956187789
21.8374005962195
25.8414610567136
29.3554476182908
31.735182957607
32.6288065746799
31.6814970040653
28.6869859061817
24.0411904015703
18.8018220534806
14.0940529903581
10.4682218968808
7.9235997949096
