Value(μV)
-5.24536848068237
-2.47962880134583
4.86388731002808
17.5481433868408
28.9925842285156
29.0879535675049
16.2129573822021
3.71944332122803
1.71666610240936
1.81203651428223
-4.29166507720947
3.147221326828
20.1231422424316
22.9842510223389
23.9379558563232
17.357400894165
0.9537034034729
-0.0953703373670578
-2.8611102104187
-13.6379585266113
-9.25092315673828
1.14444410800934
10.3953666687012
18.1203651428223
20.1231422424316
21.9351787567139
20.8861045837402
15.8314762115479
13.5425882339478
12.2074031829834
7.43888664245605
7.0574049949646
7.34351634979248
-2.00277709960938
-2.28888821601868
7.0574049949646
10.9675893783569
11.1583299636841
5.91296100616455
-5.91296100616455
-12.7796258926392
-13.5425882339478
-14.3055505752563
-8.20184898376465
-4.57777643203735
-12.9703664779663
-18.2157344818115
-15.35462474823
-13.9240694046021
-18.3111057281494
-22.3166599273682
-29.0879535675049
-38.6249885559082
-35.5731353759766
-28.5157318115234
-31.8536930084229
-32.2351760864258
-26.5129547119141
-20.0277709960938
-11.9212923049927
-10.1092557907104
-15.7361059188843
-21.839807510376
-31.1861019134521
-40.7231369018555
-47.3990592956543
-50.4509086608887
-46.0638732910156
-41.4860992431641
-41.0092468261719
-42.0583190917969
-43.1073951721191
-46.0638732910156
-51.6907234191895
-51.2138710021973
-46.2546157836914
-36.9083213806152
-27.657398223877
-28.3249912261963
-20.3138828277588
-4.86388731002808
-10.204626083374
-24.2240657806396
-29.278694152832
-36.0499877929688
-46.9222068786621
-50.2601699829102
-41.4860992431641
-35.6685066223145
-32.2351760864258
-24.5101776123047
-24.4148063659668
-30.5185089111328
-31.6629524230957
-28.4203605651855
-21.9351787567139
-15.1638841629028
-17.738883972168
-23.1749935150146
-23.3657341003418
-19.1694374084473
-13.256477355957
-18.787956237793
-30.70924949646
-35.1916542053223
-36.2407302856445
-40.4370231628418
-44.8240585327148
-41.6768379211426
-33.761100769043
-23.3657341003418
-14.9731435775757
-9.44166374206543
-2.38425850868225
-0.572222054004669
-9.15555286407471
-21.6490669250488
-18.6925868988037
-11.5398111343384
-13.8286991119385
-9.34629344940186
-5.34073925018311
-8.48795986175537
-13.4472179412842
-13.5425882339478
-6.00833129882813
-5.91296100616455
-11.4444408416748
-12.8749961853027
-9.15555286407471
2.5749990940094
3.8148136138916
-3.147221326828
-0.190740674734116
-4.57777643203735
-14.4009208679199
-10.4907369613647
-6.1037015914917
-12.3981437683105
-16.6898097991943
-16.30832862854
-26.3222141265869
-35.0962867736816
-21.839807510376
-16.30832862854
-25.7499923706055
-29.4694347381592
-32.4259147644043
-22.6981410980225
-6.58055353164673
-1.71666610240936
0
-2.8611102104187
-9.06018257141113
-14.1148099899292
-20.0277709960938
-23.2703628540039
-21.9351787567139
-26.1314735412598
-24.3194370269775
-16.8805503845215
-13.9240694046021
-12.2074031829834
-14.9731435775757
-25.9407329559326
-27.3712882995605
-20.8861045837402
-12.0166625976563
-3.24259161949158
-9.537034034729
-14.7824029922485
-2.95648050308228
5.34073925018311
8.58333015441895
19.360179901123
25.8453617095947
20.409252166748
24.2240657806396
38.5296173095703
36.3360977172852
16.5944385528564
1.9074068069458
-12.0166625976563
-49.1157264709473
-101.283302307129
-140.766616821289
-164.51383972168
-187.87956237793
-218.684188842773
-258.167510986328
-306.424896240234
-336.466552734375
-310.144348144531
-186.353637695313
30.2323970794678
271.614715576172
554.673889160156
858.714538574219
1026.08947753906
1079.40148925781
1193.46447753906
1295.70141601563
1231.80334472656
1074.63293457031
842.692321777344
543.706298828125
283.440643310547
35.8592491149902
-168.137908935547
-258.262878417969
-314.340637207031
-357.734130859375
-366.889709472656
-362.979522705078
-347.529510498047
-331.793426513672
-324.545257568359
-337.8017578125
-385.296173095703
-427.163757324219
-438.608184814453
-439.847991943359
-421.441528320313
-378.23876953125
-333.605438232422
-302.419342041016
-283.249908447266
-271.614715576172
-277.336944580078
-289.067504882813
-284.871215820313
-271.996215820313
-252.445281982422
-217.635116577148
-178.628646850586
-154.023101806641
-143.723098754883
-137.142547607422
-133.899963378906
-139.908294677734
-142.483291625977
-126.556442260742
-107.482376098633
-88.6944122314453
-66.854606628418
-53.7888717651367
-39.5786895751953
-26.6083240509033
-31.0907306671143
-36.2407302856445
-25.2731399536133
-16.1175880432129
-26.6083240509033
-28.4203605651855
-9.537034034729
-0.47685170173645
0.572222054004669
7.72499752044678
19.2648086547852
29.4694347381592
31.9490642547607
26.226842880249
24.891658782959
34.2379531860352
34.9055442810059
26.6083240509033
31.0907306671143
46.0638732910156
54.2657241821289
56.0777587890625
64.1842422485352
73.7212753295898
71.6231231689453
63.8027572631836
63.8981285095215
62.7536849975586
61.99072265625
79.1573791503906
96.0379333496094
95.2749710083008
95.3703384399414
92.7953414916992
81.0647888183594
84.8796005249023
93.7490463256836
89.5527496337891
83.925895690918
83.0675659179688
94.3212661743164
108.436073303223
103.095336914063
94.1305236816406
97.182373046875
100.138854980469
99.3758926391602
92.7953414916992
77.6314544677734
63.8981285095215
60.1786842346191
71.0509033203125
82.5907135009766
81.5416412353516
77.4407196044922
71.7184982299805
70.0971984863281
70.3833084106445
57.0314636230469
51.1185035705566
61.323127746582
70.3833084106445
79.5388641357422
90.220344543457
97.9453353881836
93.5583038330078
80.111083984375
72.0046081542969
56.0777587890625
36.0499877929688
34.1425819396973
44.5379486083984
55.6962776184082
55.887020111084
50.0694274902344
48.4481315612793
40.3416519165039
31.0907306671143
22.6027698516846
10.6814785003662
16.2129573822021
28.8018417358398
34.4286918640137
40.0555419921875
33.0935096740723
22.4120292663574
19.6462898254395
13.0657367706299
9.9185152053833
5.43610954284668
-3.147221326828
-2.47962880134583
2.38425850868225
5.24536848068237
1.9074068069458
-4.00555419921875
2.5749990940094
2.8611102104187
-17.2620315551758
-28.1342506408691
-17.357400894165
2.76573991775513
13.4472179412842
3.05185079574585
-3.43333220481873
8.86944198608398
22.125919342041
26.1314735412598
16.6898097991943
3.71944332122803
5.91296100616455
9.82314491271973
2.1935179233551
-3.8148136138916
-7.15277528762817
-22.4120292663574
-37.8620262145996
-30.70924949646
-12.7796258926392
-9.06018257141113
-12.302773475647
-6.6759238243103
-4.29166507720947
-7.6296272277832
-3.24259161949158
5.43610954284668
16.022216796875
14.3055505752563
0.47685170173645
-1.23981440067291
-5.34073925018311
-23.6518440246582
-30.3277683258057
-14.5916624069214
4.48240613937378
7.15277528762817
-1.71666610240936
-8.77407169342041
-16.7851791381836
-23.7472152709961
-25.5592517852783
-33.761100769043
-43.2981338500977
-37.3851737976074
-27.4666576385498
-30.8046188354492
-35.382396697998
-28.0388793945313
-26.3222141265869
-39.5786895751953
-44.251838684082
-42.4398002624512
-47.4944305419922
-45.0148010253906
-41.4860992431641
-44.8240585327148
-41.0092468261719
-26.0361022949219
-20.2185115814209
-32.3305435180664
-39.2925796508789
-35.4777679443359
-30.6138782501221
-27.657398223877
-31.7583236694336
-35.1916542053223
-37.099063873291
-43.9657249450684
-41.1046180725098
-32.9027671813965
-38.8157272338867
-33.4749908447266
-6.1037015914917
5.05462789535522
2.1935179233551
-5.62685012817383
-21.3629570007324
-32.2351760864258
-55.1240577697754
-63.3259048461914
-30.8046188354492
-21.9351787567139
-41.5814666748047
-49.8786888122559
-51.0231323242188
-47.6851692199707
-40.8185043334961
-29.8509159088135
-22.9842510223389
-21.1722145080566
-10.7768487930298
-4.57777643203735
-14.4009208679199
-25.5592517852783
-30.3277683258057
-26.9898052215576
-12.7796258926392
-11.7305517196655
-18.6925868988037
-9.44166374206543
-2.09814739227295
-3.33796191215515
-17.9296245574951
-42.4398002624512
-50.7370223999023
-50.0694274902344
-46.3499870300293
-34.1425819396973
-23.6518440246582
-12.1120328903198
3.91018390655518
8.0111083984375
-0.286111027002335
-3.147221326828
-5.24536848068237
-14.4962921142578
-22.6981410980225
-17.6435127258301
-7.24814605712891
-6.6759238243103
-0.762962698936462
2.1935179233551
-10.0138854980469
-13.0657367706299
-17.357400894165
-26.3222141265869
-14.2101802825928
-9.44166374206543
-27.657398223877
-30.70924949646
-18.3111057281494
-6.96203470230103
-1.71666610240936
-6.29444265365601
-11.4444408416748
-15.7361059188843
-24.6055469512939
-30.8999900817871
-25.3685111999512
-21.1722145080566
-28.8018417358398
-29.4694347381592
-17.4527721405029
-9.44166374206543
-2.5749990940094
7.6296272277832
-0.47685170173645
-15.1638841629028
-11.5398111343384
-15.0685138702393
-20.3138828277588
-10.1092557907104
-4.1962947845459
-1.04907369613647
8.3925895690918
15.6407356262207
11.4444408416748
1.43055510520935
-4.95925760269165
-7.91573810577393
-7.82036781311035
-1.52592539787292
9.34629344940186
15.0685138702393
14.7824029922485
19.6462898254395
23.8425846099854
18.8833274841309
10.3953666687012
10.1092557907104
16.7851791381836
17.5481433868408
16.1175880432129
18.9786968231201
23.2703628540039
24.6055469512939
23.8425846099854
31.2814712524414
32.8073959350586
24.891658782959
26.7036952972412
34.2379531860352
42.0583190917969
47.017578125
36.6222114562988
17.4527721405029
0.9537034034729
-29.4694347381592
-88.4083023071289
-138.286987304688
-150.971252441406
-163.369384765625
-199.514755249023
-241.668441772461
-281.342498779297
-313.577667236328
-314.14990234375
-226.4091796875
-34.0472106933594
189.596237182617
448.431335449219
759.434020996094
981.170043945313
1048.59692382813
1120.98303222656
1240.95886230469
1245.44128417969
1137.86352539063
950.270080566406
649.185913085938
374.04248046875
144.009216308594
-89.8388595581055
-232.703628540039
-296.983245849609
-338.183227539063
-341.616546630859
-327.787872314453
-324.735992431641
-327.883239746094
-329.599884033203
-351.439697265625
-404.751708984375
-440.897094726563
-439.943389892578
-425.25634765625
-405.705413818359
-381.576721191406
-347.338775634766
-318.632293701172
-306.901763916016
-305.661926269531
-315.294342041016
-322.256378173828
-317.201751708984
-302.037872314453
-277.718414306641
-253.017517089844
-234.515670776367
-209.910110473633
-181.203643798828
-167.565689086914
-164.704574584961
-162.034210205078
-151.63883972168
-148.777725219727
-150.208282470703
-125.125885009766
-97.7546005249023
-89.7434921264648
-80.9694213867188
-73.2444229125977
-70.7647933959961
-70.0971984863281
-70.5740509033203
-68.9527587890625
-61.6092376708984
-48.1620216369629
-37.0036926269531
-25.8453617095947
-9.82314491271973
8.67870044708252
23.0796222686768
29.278694152832
34.5240631103516
38.9110984802246
38.4342460632324
37.099063873291
41.1999855041504
42.630542755127
42.3444290161133
56.1731300354004
72.1953506469727
81.16015625
79.6342315673828
69.3342361450195
68.3805313110352
68.9527587890625
72.4814605712891
84.3073806762695
84.3073806762695
76.3916397094727
74.8657150268555
85.9286727905273
100.901817321777
104.812004089355
103.953666687012
95.6564483642578
88.3129348754883
97.0870056152344
106.528671264648
105.956443786621
99.5666351318359
93.7490463256836
99.3758926391602
108.149963378906
109.771263122559
106.051818847656
96.9916381835938
92.8907089233398
100.711082458496
101.187927246094
88.4083023071289
90.6971969604492
97.6592254638672
85.3564529418945
75.3425674438477
66.6638641357422
41.4860992431641
20.5046234130859
26.9898052215576
39.4833221435547
34.4286918640137
39.2925796508789
56.1731300354004
61.1323890686035
60.274055480957
59.6064605712891
64.1842422485352
70.9555358886719
60.8462753295898
41.1046180725098
34.7148017883301
41.1046180725098
52.9305381774902
53.2166481018066
37.4805450439453
29.278694152832
22.5074005126953
14.7824029922485
13.4472179412842
6.86666440963745
8.77407169342041
21.9351787567139
28.8972129821777
31.4722118377686
34.9055442810059
33.761100769043
24.891658782959
14.7824029922485
11.1583299636841
12.3981437683105
12.0166625976563
8.48795986175537
7.82036781311035
14.5916624069214
20.2185115814209
19.4555492401123
17.1666603088379
10.3953666687012
3.05185079574585
-1.81203651428223
-15.5453653335571
-27.4666576385498
-21.0768451690674
-7.82036781311035
4.29166507720947
8.86944198608398
-1.23981440067291
-5.24536848068237
-1.9074068069458
2.67036962509155
12.9703664779663
10.1092557907104
5.81759071350098
11.2537002563477
7.6296272277832
2.28888821601868
3.05185079574585
-3.05185079574585
-12.4935140609741
-15.0685138702393
-14.1148099899292
-12.302773475647
-12.0166625976563
-11.9212923049927
-11.2537002563477
-1.9074068069458
11.8259220123291
5.62685012817383
-6.29444265365601
-8.29721927642822
-9.9185152053833
-7.15277528762817
-2.5749990940094
-3.71944332122803
-8.48795986175537
-9.82314491271973
-6.38981294631958
-8.67870044708252
-24.1286964416504
-32.9027671813965
-24.4148063659668
-26.226842880249
-39.2925796508789
-38.2435073852539
-30.995361328125
-28.2296199798584
-16.30832862854
-0.667592406272888
5.62685012817383
6.48518323898315
1.33518481254578
-11.3490705490112
-14.0194396972656
-6.6759238243103
-12.7796258926392
-26.0361022949219
-28.8972129821777
-25.177770614624
-26.1314735412598
-33.761100769043
-38.6249885559082
-37.0036926269531
-35.7638778686523
-33.6657295227051
-22.4120292663574
-13.3518476486206
-9.44166374206543
-5.53147983551025
-7.0574049949646
-8.67870044708252
-8.10647869110107
-12.3981437683105
-16.6898097991943
-17.4527721405029
-16.2129573822021
-15.0685138702393
-19.5509204864502
-20.6953639984131
-20.9814739227295
-25.3685111999512
-32.04443359375
-43.0120239257813
-40.7231369018555
-27.657398223877
-25.8453617095947
-32.7120246887207
-38.2435073852539
-37.2898025512695
-29.7555465698242
-30.5185089111328
-36.431468963623
-28.5157318115234
-20.6953639984131
-20.9814739227295
-16.5944385528564
-16.8805503845215
-25.8453617095947
-34.810173034668
-43.7749862670898
-43.4888763427734
-35.0962867736816
-36.431468963623
-36.431468963623
-30.1370277404785
-32.4259147644043
-33.4749908447266
-31.9490642547607
-36.5268402099609
-41.4860992431641
-44.9194297790527
-38.8157272338867
-23.4611034393311
-12.588885307312
-12.588885307312
-17.1666603088379
-22.6981410980225
-34.3333206176758
-41.962947845459
-35.4777679443359
-16.4990692138672
9.72777462005615
17.738883972168
8.86944198608398
11.8259220123291
16.4990692138672
15.35462474823
7.72499752044678
2.5749990940094
14.687032699585
24.5101776123047
25.9407329559326
23.9379558563232
25.0823993682861
34.9055442810059
31.1861019134521
18.5972156524658
18.2157344818115
23.4611034393311
23.7472152709961
13.0657367706299
4.29166507720947
2.09814739227295
-9.537034034729
-14.4009208679199
-2.28888821601868
6.19907188415527
2.1935179233551
-6.77129411697388
-3.71944332122803
-0.190740674734116
-13.7333288192749
-16.4036979675293
-1.62129580974579
-0.381481349468231
-9.9185152053833
-11.1583299636841
-9.25092315673828
-13.256477355957
-21.839807510376
-26.6083240509033
-25.4638805389404
-22.4120292663574
-16.4036979675293
-10.0138854980469
-2.8611102104187
2.28888821601868
-2.28888821601868
-5.7222204208374
-9.06018257141113
-9.06018257141113
8.86944198608398
20.5046234130859
10.4907369613647
5.7222204208374
13.1611070632935
7.6296272277832
-5.43610954284668
-7.82036781311035
-2.28888821601868
5.24536848068237
4.1962947845459
10.3953666687012
24.3194370269775
15.35462474823
3.8148136138916
6.96203470230103
6.86666440963745
9.15555286407471
10.9675893783569
-4.38703584671021
-31.7583236694336
-73.2444229125977
-119.403663635254
-144.962921142578
-168.328643798828
-206.381408691406
-238.616592407227
-269.421203613281
-302.705444335938
-307.760101318359
-242.240661621094
-77.9175643920898
142.960144042969
391.018402099609
679.513671875
896.004333496094
955.03857421875
1025.421875
1167.14221191406
1173.15051269531
1040.49035644531
864.818237304688
599.593322753906
325.594329833984
104.335151672363
-93.2721939086914
-219.637893676758
-278.099914550781
-319.776763916016
-341.998046875
-328.646179199219
-306.329528808594
-296.411010742188
-292.691558837891
-324.259155273438
-336.561920166016
-385.963775634766
-411.332275390625
-413.525787353516
-408.566528320313
-377.094329833984
-342.474884033203
-317.964721679688
-288.495269775391
-273.712860107422
-273.140655517578
-280.961029052734
-296.792510986328
-291.356384277344
-262.363800048828
-234.706405639648
-207.43049621582
-175.386047363281
-151.161987304688
-140.289764404297
-138.477737426758
-135.998107910156
-130.27587890625
-130.561996459961
-127.319404602051
-114.825889587402
-100.424964904785
-77.7268295288086
-58.9388694763184
-52.5490570068359
-41.3907279968262
-35.382396697998
-39.5786895751953
-38.5296173095703
-34.5240631103516
-31.3768424987793
-31.1861019134521
-28.3249912261963
-12.3981437683105
0.858333051204681
0.47685170173645
6.00833129882813
19.074068069458
22.6981410980225
24.6055469512939
32.04443359375
34.2379531860352
31.8536930084229
37.7666549682617
36.8129501342773
17.9296245574951
16.30832862854
35.0962867736816
39.9601707458496
41.6768379211426
55.1240577697754
55.7916488647461
48.6388740539551
59.701831817627
71.9092330932617
72.0999755859375
78.2036819458008
84.2120132446289
83.4490509033203
85.1657104492188
88.6944122314453
91.6508941650391
84.4027481079102
80.0157165527344
99.948112487793
119.975891113281
119.785148620605
114.444404602051
114.158294677734
108.340705871582
101.569412231445
99.0897827148438
87.2638626098633
82.876823425293
91.1740417480469
89.7434921264648
95.1795959472656
104.049041748047
102.61848449707
106.624038696289
96.4194107055664
74.1027526855469
74.8657150268555
80.5879364013672
67.3314590454102
53.8842430114746
51.5953521728516
62.6583137512207
83.0675659179688
88.0268249511719
79.8249740600586
68.0944213867188
51.4999847412109
47.6851692199707
47.2083168029785
41.6768379211426
53.4073905944824
70.1925735473633
73.8166427612305
76.296272277832
73.5305328369141
65.3286819458008
62.9444236755371
61.7999801635742
57.0314636230469
43.8703575134277
35.6685066223145
38.5296173095703
35.6685066223145
37.7666549682617
46.4453544616699
41.6768379211426
21.2675857543945
3.147221326828
-1.71666610240936
-5.62685012817383
-13.3518476486206
-26.6083240509033
-35.0009155273438
-15.9268465042114
2.76573991775513
2.95648050308228
9.34629344940186
15.9268465042114
16.1175880432129
12.1120328903198
-2.28888821601868
-10.9675893783569
-3.147221326828
1.71666610240936
-2.76573991775513
-1.81203651428223
5.24536848068237
6.77129411697388
1.04907369613647
-7.82036781311035
-10.8722190856934
-9.9185152053833
-21.7444381713867
-26.7036952972412
-6.29444265365601
16.7851791381836
23.8425846099854
6.6759238243103
-13.1611070632935
-16.6898097991943
-18.1203651428223
-17.9296245574951
-8.77407169342041
0.47685170173645
5.81759071350098
10.3953666687012
15.8314762115479
11.3490705490112
0
-6.00833129882813
-11.3490705490112
-8.67870044708252
4.57777643203735
1.04907369613647
-14.7824029922485
-17.9296245574951
-10.8722190856934
-9.72777462005615
-19.5509204864502
-27.4666576385498
-22.125919342041
-7.53425693511963
-5.34073925018311
-17.357400894165
-15.7361059188843
-8.67870044708252
-16.9759197235107
-27.2759170532227
-29.4694347381592
-28.7064723968506
-19.1694374084473
-7.91573810577393
-12.8749961853027
-22.0305480957031
-25.4638805389404
-31.5675830841064
-34.9055442810059
-21.5536975860596
-1.62129580974579
0.9537034034729
-14.1148099899292
-28.8972129821777
-32.6166572570801
-29.5648059844971
-26.0361022949219
-15.6407356262207
-1.9074068069458
-2.38425850868225
-13.1611070632935
-20.3138828277588
-26.1314735412598
-32.1398048400879
-37.1944313049316
-43.1073951721191
-48.6388740539551
-53.5981292724609
-51.4999847412109
-47.9712791442871
-52.1675758361816
-55.219425201416
-54.4564628601074
-45.4916534423828
-27.7527694702148
-13.3518476486206
-18.9786968231201
-35.2870254516602
-36.6222114562988
-39.2925796508789
-49.2110939025879
-49.6879463195801
-47.6851692199707
-52.5490570068359
-54.3610954284668
-41.4860992431641
-30.8046188354492
-37.5759124755859
-39.9601707458496
-29.6601753234863
-25.5592517852783
-24.9870281219482
-20.3138828277588
-11.635181427002
-8.77407169342041
-15.7361059188843
-14.4009208679199
-10.9675893783569
-21.839807510376
-31.2814712524414
-24.4148063659668
-16.8805503845215
-14.1148099899292
-2.8611102104187
3.43333220481873
-0.572222054004669
-2.28888821601868
-2.00277709960938
-3.71944332122803
-10.4907369613647
-16.4036979675293
-4.86388731002808
11.8259220123291
15.35462474823
11.635181427002
1.14444410800934
-3.24259161949158
-2.47962880134583
-9.63240432739258
-6.38981294631958
9.06018257141113
16.4990692138672
8.10647869110107
-7.0574049949646
-15.9268465042114
-23.5564746856689
-24.7962875366211
-17.357400894165
-17.738883972168
-18.2157344818115
-14.687032699585
-19.7416610717773
-22.8888816833496
-11.635181427002
-9.63240432739258
-25.0823993682861
-29.4694347381592
-33.3796195983887
-48.5435028076172
-43.4888763427734
-23.5564746856689
-14.8777732849121
-9.82314491271973
-4.00555419921875
0
5.43610954284668
11.1583299636841
17.4527721405029
13.6379585266113
-3.05185079574585
-13.3518476486206
-10.7768487930298
-6.1037015914917
-6.77129411697388
-5.7222204208374
5.05462789535522
17.738883972168
23.2703628540039
16.30832862854
-0.858333051204681
-3.43333220481873
3.71944332122803
-4.00555419921875
-7.6296272277832
-7.0574049949646
-16.022216796875
-5.24536848068237
17.5481433868408
23.9379558563232
28.4203605651855
32.8073959350586
18.8833274841309
-3.8148136138916
-26.3222141265869
-73.6259002685547
-138.000885009766
-169.759201049805
-184.255493164063
-217.348999023438
-246.436950683594
-267.13232421875
-290.879547119141
-290.116577148438
-224.883255004883
-70.5740509033203
138.286987304688
370.704498291016
637.932189941406
849.845092773438
930.242309570313
999.385803222656
1110.58764648438
1111.9228515625
984.317260742188
807.596008300781
556.772033691406
287.636932373047
71.2416458129883
-108.054595947266
-230.891586303711
-289.925842285156
-317.773986816406
-329.123046875
-316.152679443359
-294.503601074219
-286.397125244141
-277.050842285156
-283.726776123047
-315.389709472656
-340.090637207031
-370.990631103516
-400.078582763672
-392.162841796875
-360.023040771484
-312.719329833984
-263.698974609375
-244.720291137695
-240.714736938477
-234.229553222656
-244.243438720703
-260.647125244141
-267.609161376953
-264.652679443359
-234.134185791016
-193.411056518555
-159.936065673828
-130.46662902832
-127.796257019043
-138.000885009766
-135.616622924805
-140.385147094727
-146.488845825195
-131.801803588867
-102.904594421387
-73.8166427612305
-46.8268356323242
-22.125919342041
2.28888821601868
16.7851791381836
8.96481227874756
-6.96203470230103
-15.1638841629028
-10.8722190856934
1.52592539787292
4.10092449188232
2.76573991775513
22.2212886810303
47.6851692199707
58.4620170593262
56.2685012817383
41.8675804138184
30.0416564941406
29.1833248138428
37.3851737976074
55.0286865234375
65.137939453125
57.4129447937012
58.2712783813477
68.3805313110352
68.0944213867188
73.8166427612305
81.827751159668
83.2583084106445
91.7462692260742
92.7953414916992
78.394416809082
67.3314590454102
71.8138656616211
92.6999740600586
105.002746582031
102.61848449707
111.011077880859
120.929588317871
106.528671264648
75.0564575195313
61.1323890686035
71.8138656616211
79.4434967041016
80.778678894043
87.3592300415039
96.4194107055664
104.812004089355
110.915702819824
112.918479919434
100.901817321777
71.1462707519531
47.8759117126465
45.9685020446777
48.4481315612793
48.1620216369629
55.1240577697754
60.4647941589355
60.7509078979492
62.6583137512207
56.8407211303711
48.066650390625
46.2546157836914
39.4833221435547
32.9981384277344
43.2981338500977
61.5138702392578
70.3833084106445
70.0971984863281
65.3286819458008
57.9851684570313
53.5981292724609
50.1647987365723
42.8212814331055
27.2759170532227
8.0111083984375
7.24814605712891
22.2212886810303
34.0472106933594
38.3388748168945
36.7175827026367
36.431468963623
35.0962867736816
29.5648059844971
17.8342533111572
7.34351634979248
11.8259220123291
16.6898097991943
17.2620315551758
24.7009181976318
36.1453590393066
36.431468963623
22.9842510223389
15.0685138702393
8.29721927642822
-7.43888664245605
-15.1638841629028
-15.7361059188843
-9.72777462005615
6.86666440963745
5.53147983551025
-9.63240432739258
-13.0657367706299
-23.6518440246582
-35.4777679443359
-29.6601753234863
-27.4666576385498
-23.4611034393311
-13.1611070632935
-8.96481227874756
-0.286111027002335
5.7222204208374
0
-4.7685170173645
-4.95925760269165
0.381481349468231
4.29166507720947
-4.00555419921875
-14.4009208679199
-18.787956237793
-14.7824029922485
-6.48518323898315
-6.96203470230103
-17.1666603088379
-23.2703628540039
-20.0277709960938
-17.1666603088379
-16.4036979675293
-12.2074031829834
-3.24259161949158
4.10092449188232
-3.71944332122803
-13.5425882339478
-15.5453653335571
-22.7935104370117
-30.8046188354492
-27.943510055542
-15.8314762115479
-10.3953666687012
-11.1583299636841
-2.47962880134583
-0.0953703373670578
-2.1935179233551
4.67314672470093
-0.572222054004669
-11.4444408416748
-12.7796258926392
-22.5074005126953
-32.9027671813965
-33.0935096740723
-33.9518394470215
-32.04443359375
-27.2759170532227
-34.0472106933594
-39.1018409729004
-23.7472152709961
-0.381481349468231
15.2592544555664
15.2592544555664
2.1935179233551
-4.48240613937378
-4.67314672470093
-8.58333015441895
-13.0657367706299
-21.1722145080566
-22.5074005126953
-7.0574049949646
4.29166507720947
-5.1499981880188
-21.5536975860596
-26.0361022949219
-30.8999900817871
-42.3444290161133
-43.2027626037598
-40.2462844848633
-34.810173034668
-23.5564746856689
-16.1175880432129
-11.2537002563477
-16.1175880432129
-11.9212923049927
-7.43888664245605
0.286111027002335
-2.5749990940094
-23.6518440246582
-44.6333198547363
-43.2981338500977
-33.6657295227051
-35.2870254516602
-36.3360977172852
-31.3768424987793
-30.995361328125
-29.8509159088135
-12.302773475647
7.43888664245605
7.0574049949646
-0.572222054004669
-8.29721927642822
-16.8805503845215
-17.1666603088379
-27.657398223877
-47.5897979736328
-45.0148010253906
-35.2870254516602
-37.2898025512695
-39.4833221435547
-40.8185043334961
-40.913875579834
-36.431468963623
-34.810173034668
-37.8620262145996
-33.4749908447266
-14.5916624069214
3.24259161949158
0.0953703373670578
-4.95925760269165
2.38425850868225
-5.05462789535522
-18.1203651428223
-12.1120328903198
-3.71944332122803
3.05185079574585
6.86666440963745
0.858333051204681
3.05185079574585
15.7361059188843
16.1175880432129
4.38703584671021
0.47685170173645
4.67314672470093
6.19907188415527
10.204626083374
15.7361059188843
16.7851791381836
22.4120292663574
32.1398048400879
26.0361022949219
13.5425882339478
17.5481433868408
21.3629570007324
7.82036781311035
-10.1092557907104
-19.9324016571045
-22.3166599273682
-13.5425882339478
0.286111027002335
-1.9074068069458
-5.91296100616455
0.286111027002335
-6.6759238243103
-25.177770614624
-39.864803314209
-47.7805404663086
-44.6333198547363
-38.2435073852539
-30.3277683258057
-24.3194370269775
-28.2296199798584
-20.7907333374023
-2.09814739227295
5.24536848068237
4.1962947845459
-2.5749990940094
-11.5398111343384
-15.8314762115479
-13.1611070632935
-1.62129580974579
10.5861072540283
18.9786968231201
26.9898052215576
33.2842483520508
36.8129501342773
38.4342460632324
35.0009155273438
17.1666603088379
-0.572222054004669
11.0629596710205
27.943510055542
18.5972156524658
10.7768487930298
17.2620315551758
19.6462898254395
16.7851791381836
10.9675893783569
5.34073925018311
-0.667592406272888
-13.7333288192749
-38.8157272338867
-82.1138610839844
-125.316627502441
-144.772171020508
-167.374938964844
-218.779556274414
-263.794372558594
-280.198059082031
-298.413787841797
-298.604522705078
-215.155487060547
-38.148136138916
190.073089599609
444.521148681641
715.945129394531
906.685791015625
973.540405273438
1063.95153808594
1171.91076660156
1139.38940429688
1006.25244140625
802.446044921875
506.41650390625
238.235107421875
31.6629524230957
-150.589767456055
-262.459167480469
-309.381378173828
-343.619323730469
-356.68505859375
-339.423034667969
-326.261932373047
-329.886016845703
-335.41748046875
-342.093414306641
-356.398956298828
-386.822113037109
-416.386901855469
-416.673004150391
-389.206359863281
-346.289703369141
-300.988800048828
-269.611938476563
-247.676773071289
-229.842514038086
-229.842514038086
-244.243438720703
-258.45361328125
-257.595275878906
-228.125854492188
-190.16845703125
-168.424026489258
-155.644393920898
-141.148101806641
-126.556442260742
-123.218475341797
-129.799026489258
-127.605514526367
-122.646255493164
-113.490707397461
-92.1277465820313
-70.8601608276367
-55.219425201416
-47.6851692199707
-42.7259140014648
-31.7583236694336
-26.6083240509033
-25.0823993682861
-30.8046188354492
-43.2981338500977
-36.8129501342773
-19.1694374084473
-12.2074031829834
-8.77407169342041
-5.62685012817383
-4.67314672470093
2.28888821601868
16.5944385528564
19.7416610717773
13.6379585266113
19.5509204864502
27.2759170532227
24.4148063659668
24.9870281219482
38.8157272338867
53.6935005187988
59.1296119689941
63.2305335998535
64.6610870361328
59.8925743103027
55.1240577697754
48.9249839782715
51.9768333435059
69.8110885620117
81.7323837280273
83.6397857666016
84.9749755859375
86.9777526855469
84.9749755859375
80.778678894043
76.8684921264648
67.3314590454102
57.5083160400391
58.2712783813477
63.9934997558594
63.8027572631836
68.7620162963867
64.6610870361328
70.5740509033203
77.345344543457
90.0296020507813
86.0240478515625
82.1138610839844
71.4323883056641
57.2222023010254
61.7046089172363
66.3777542114258
62.4675712585449
64.756462097168
69.5249786376953
69.0481262207031
62.8490524291992
57.4129447937012
51.7860946655273
39.3879508972168
36.431468963623
51.7860946655273
68.1897964477539
73.3397903442383
64.8518295288086
53.121280670166
45.7777633666992
35.5731353759766
21.6490669250488
14.8777732849121
17.738883972168
28.4203605651855
46.1592445373535
56.3638725280762
59.6064605712891
66.6638641357422
66.2823867797852
64.756462097168
58.652759552002
37.4805450439453
21.4583263397217
12.3981437683105
5.05462789535522
11.0629596710205
22.6981410980225
25.8453617095947
27.943510055542
30.6138782501221
25.5592517852783
22.5074005126953
22.9842510223389
18.4064750671387
23.2703628540039
39.3879508972168
36.6222114562988
17.9296245574951
9.25092315673828
-2.09814739227295
-18.5018463134766
-15.4499950408936
-11.635181427002
-11.7305517196655
7.91573810577393
14.4009208679199
-3.71944332122803
-12.7796258926392
-17.1666603088379
-14.2101802825928
-7.72499752044678
-14.0194396972656
-22.6981410980225
-22.3166599273682
-8.3925895690918
-1.9074068069458
-4.86388731002808
1.14444410800934
4.10092449188232
4.10092449188232
15.1638841629028
21.0768451690674
8.48795986175537
2.67036962509155
4.00555419921875
-4.10092449188232
-4.29166507720947
2.38425850868225
0
-2.00277709960938
-6.19907188415527
-22.5074005126953
-26.5129547119141
-18.3111057281494
-19.2648086547852
-15.1638841629028
-8.0111083984375
-7.82036781311035
-6.00833129882813
-5.81759071350098
-6.77129411697388
-4.1962947845459
-8.29721927642822
-9.537034034729
2.47962880134583
5.24536848068237
-2.5749990940094
-4.86388731002808
-1.62129580974579
2.09814739227295
3.147221326828
3.91018390655518
-2.76573991775513
-3.147221326828
12.1120328903198
11.0629596710205
-3.62407302856445
-6.48518323898315
-1.04907369613647
-4.10092449188232
-12.2074031829834
-16.4990692138672
-24.9870281219482
-30.5185089111328
-26.0361022949219
-15.6407356262207
-7.91573810577393
-14.0194396972656
-20.409252166748
-18.2157344818115
-18.0249938964844
-14.7824029922485
-5.53147983551025
-8.10647869110107
-21.2675857543945
-25.6546211242676
-30.3277683258057
-38.9110984802246
-31.7583236694336
-21.9351787567139
-17.9296245574951
-11.1583299636841
-10.8722190856934
-17.5481433868408
-21.5536975860596
-18.5972156524658
-14.7824029922485
-16.8805503845215
-17.4527721405029
-13.8286991119385
-9.06018257141113
-7.0574049949646
-9.25092315673828
-6.86666440963745
-4.95925760269165
-14.4009208679199
-24.0333251953125
-25.8453617095947
-30.6138782501221
-47.017578125
-62.1814613342285
-54.2657241821289
-35.5731353759766
-36.431468963623
-41.1046180725098
-34.6194343566895
-39.4833221435547
-47.2083168029785
-44.1564674377441
-35.2870254516602
-24.1286964416504
-18.5972156524658
-8.77407169342041
-0.0953703373670578
-1.81203651428223
2.00277709960938
7.53425693511963
4.7685170173645
1.14444410800934
0.9537034034729
0
-2.76573991775513
7.6296272277832
17.6435127258301
8.0111083984375
0.762962698936462
6.29444265365601
4.67314672470093
-1.71666610240936
1.71666610240936
6.1037015914917
5.34073925018311
5.81759071350098
5.7222204208374
2.47962880134583
2.1935179233551
3.24259161949158
2.28888821601868
2.76573991775513
-3.8148136138916
-12.0166625976563
-12.2074031829834
-8.20184898376465
2.38425850868225
2.00277709960938
-6.77129411697388
-0.858333051204681
-6.19907188415527
-23.0796222686768
-27.0851764678955
-23.5564746856689
-22.0305480957031
-35.0009155273438
-45.8731346130371
-40.8185043334961
-38.0527648925781
-35.2870254516602
-26.1314735412598
-15.6407356262207
-20.0277709960938
-15.9268465042114
-13.256477355957
-2.76573991775513
-11.2537002563477
-13.6379585266113
-3.62407302856445
-10.0138854980469
-14.3055505752563
-5.81759071350098
2.1935179233551
9.25092315673828
5.81759071350098
1.71666610240936
10.1092557907104
13.4472179412842
13.3518476486206
18.2157344818115
10.2999963760376
-0.667592406272888
7.6296272277832
16.6898097991943
13.1611070632935
10.3953666687012
13.5425882339478
17.5481433868408
13.256477355957
8.48795986175537
7.72499752044678
-2.28888821601868
-26.8944358825684
-77.0592346191406
-133.327728271484
-165.944396972656
-191.408279418945
-212.103637695313
-232.036041259766
-268.372131347656
-298.509155273438
-306.901763916016
-252.731399536133
-84.4981231689453
132.946258544922
365.840637207031
664.731262207031
918.034912109375
1002.15155029297
1060.32739257813
1190.41259765625
1223.69677734375
1102.671875
914.410827636719
645.847961425781
362.598022460938
128.082366943359
-105.76570892334
-272.854553222656
-334.749877929688
-369.655426025391
-390.827667236328
-379.860076904297
-363.456359863281
-354.205444335938
-342.951751708984
-340.281372070313
-358.687835693359
-397.217468261719
-433.076721191406
-433.076721191406
-409.710968017578
-389.492462158203
-358.878601074219
-324.354522705078
-311.288787841797
-296.220275878906
-284.394348144531
-301.27490234375
-306.234161376953
-285.348052978516
-263.126770019531
-230.223999023438
-185.87678527832
-153.641616821289
-135.807357788086
-121.597183227539
-120.071258544922
-129.226806640625
-133.423110961914
-138.477737426758
-138.85920715332
-119.880516052246
-96.6101531982422
-85.6425628662109
-77.5360870361328
-68.5712738037109
-64.5657196044922
-62.5629425048828
-57.6036834716797
-42.8212814331055
-26.8944358825684
-19.1694374084473
-8.10647869110107
8.0111083984375
17.1666603088379
30.2323970794678
48.6388740539551
53.7888717651367
56.3638725280762
61.7999801635742
52.3583183288574
27.657398223877
16.022216796875
30.3277683258057
45.5870208740234
47.1129493713379
49.783317565918
57.8897972106934
67.1407165527344
77.1546020507813
69.7157211303711
57.9851684570313
70.7647933959961
72.9583129882813
59.7972030639648
67.1407165527344
82.3046035766602
89.2666397094727
92.6999740600586
95.751823425293
102.713859558105
101.474044799805
87.8360824584961
82.0184936523438
84.4981231689453
80.2064590454102
71.5277557373047
71.0509033203125
79.729606628418
94.9888610839844
96.3240432739258
77.0592346191406
69.0481262207031
68.1897964477539
67.7129440307617
82.6860809326172
89.2666397094727
82.9721984863281
87.6453399658203
95.3703384399414
89.1712646484375
82.7814559936523
83.4490509033203
71.6231231689453
61.2277565002441
63.9934997558594
59.6064605712891
54.3610954284668
56.4592399597168
62.9444236755371
72.7675704956055
74.4842376708984
65.0425720214844
60.274055480957
55.6009063720703
37.1944313049316
25.6546211242676
30.1370277404785
33.1888771057129
36.9083213806152
41.6768379211426
43.9657249450684
50.1647987365723
42.5351715087891
26.8944358825684
29.1833248138428
29.1833248138428
19.4555492401123
14.9731435775757
15.6407356262207
18.5972156524658
24.891658782959
31.2814712524414
26.4175834655762
18.5018463134766
9.34629344940186
-5.91296100616455
-6.1037015914917
6.48518323898315
11.9212923049927
15.0685138702393
24.3194370269775
33.761100769043
38.4342460632324
35.5731353759766
24.9870281219482
23.2703628540039
32.8073959350586
32.2351760864258
21.0768451690674
10.3953666687012
2.76573991775513
6.77129411697388
10.3953666687012
1.71666610240936
-5.7222204208374
-9.25092315673828
-8.3925895690918
-0.9537034034729
3.62407302856445
8.10647869110107
21.5536975860596
32.3305435180664
25.5592517852783
14.4009208679199
14.9731435775757
14.9731435775757
13.4472179412842
14.3055505752563
9.9185152053833
11.5398111343384
17.8342533111572
11.0629596710205
9.63240432739258
23.8425846099854
27.3712882995605
10.204626083374
2.8611102104187
11.0629596710205
7.34351634979248
0
1.62129580974579
3.8148136138916
-1.23981440067291
-17.8342533111572
-29.9462871551514
-33.3796195983887
-31.4722118377686
-18.787956237793
-13.0657367706299
-17.357400894165
-20.5999927520752
-26.5129547119141
-39.0064697265625
-50.832389831543
-45.0148010253906
-33.0935096740723
-34.4286918640137
-37.4805450439453
-39.4833221435547
-37.1944313049316
-26.0361022949219
-11.8259220123291
-3.24259161949158
-16.7851791381836
-34.9055442810059
-29.9462871551514
-19.074068069458
-19.7416610717773
-26.7036952972412
-33.5703582763672
-32.9981384277344
-34.2379531860352
-39.6740608215332
-38.3388748168945
-37.6712837219238
-38.4342460632324
-34.0472106933594
-23.1749935150146
-18.1203651428223
-27.3712882995605
-42.5351715087891
-55.0286865234375
-50.5462799072266
-39.4833221435547
-41.1999855041504
-42.7259140014648
-36.431468963623
-34.3333206176758
-41.1046180725098
-39.7694320678711
-30.2323970794678
-29.8509159088135
-30.995361328125
-27.2759170532227
-28.2296199798584
-28.6111011505127
-23.9379558563232
-17.2620315551758
-6.48518323898315
-3.91018390655518
-22.9842510223389
-37.099063873291
-34.0472106933594
-37.2898025512695
-44.6333198547363
-46.0638732910156
-47.4944305419922
-46.3499870300293
-43.9657249450684
-42.3444290161133
-40.0555419921875
-41.8675804138184
-40.1509132385254
-23.8425846099854
-9.9185152053833
-7.43888664245605
-8.86944198608398
-14.8777732849121
-16.9759197235107
-18.5018463134766
-21.6490669250488
-16.2129573822021
-15.7361059188843
-15.1638841629028
-0.572222054004669
10.0138854980469
10.3953666687012
-0.286111027002335
-10.4907369613647
-11.4444408416748
-16.1175880432129
-11.8259220123291
-0.667592406272888
-5.81759071350098
-7.43888664245605
8.29721927642822
20.409252166748
22.125919342041
12.6842555999756
-1.33518481254578
-9.34629344940186
-12.3981437683105
-10.1092557907104
-14.3055505752563
-21.7444381713867
-16.5944385528564
-11.8259220123291
-3.24259161949158
0
5.53147983551025
-0.762962698936462
-5.34073925018311
-10.9675893783569
-15.2592544555664
-26.5129547119141
-35.1916542053223
-34.5240631103516
-31.7583236694336
-23.5564746856689
-16.4036979675293
-11.7305517196655
-5.1499981880188
-5.53147983551025
-12.9703664779663
-16.022216796875
-16.30832862854
-19.360179901123
-17.6435127258301
-14.7824029922485
-18.8833274841309
-15.7361059188843
0
10.0138854980469
11.2537002563477
15.0685138702393
16.9759197235107
18.5018463134766
24.0333251953125
18.5018463134766
12.3981437683105
21.7444381713867
26.0361022949219
27.2759170532227
32.4259147644043
25.4638805389404
17.6435127258301
26.0361022949219
37.0036926269531
37.8620262145996
30.8999900817871
16.8805503845215
7.72499752044678
2.09814739227295
-31.6629524230957
-95.084228515625
-147.251800537109
-173.764755249023
-198.561050415039
-228.69807434082
-253.398986816406
-283.536010742188
-317.869354248047
-308.141571044922
-198.465682983398
0.667592406272888
230.223999023438
505.844268798828
807.882141113281
986.224670410156
1035.72192382813
1133.95336914063
1252.689453125
1219.50048828125
1070.81811523438
849.654357910156
559.823913574219
293.263793945313
43.5842437744141
-172.143463134766
-276.764739990234
-319.967498779297
-353.347106933594
-361.930450439453
-350.390625
-341.425811767578
-344.573028564453
-352.107299804688
-360.023040771484
-387.203582763672
-413.716522216797
-413.430419921875
-410.092468261719
-396.645233154297
-365.745239257813
-346.003601074219
-331.698028564453
-308.332305908203
-291.737884521484
-295.552673339844
-307.5693359375
-306.234161376953
-284.680450439453
-258.072143554688
-235.946228027344
-208.384185791016
-175.1953125
-150.112915039063
-141.243469238281
-137.810134887695
-126.556442260742
-123.218475341797
-128.177734375
-115.874961853027
-89.2666397094727
-75.5333099365234
-72.9583129882813
-65.5194244384766
-56.936092376709
-54.4564628601074
-52.9305381774902
-52.7397994995117
-48.066650390625
-33.5703582763672
-29.278694152832
-23.9379558563232
-2.5749990940094
15.8314762115479
22.125919342041
18.1203651428223
16.9759197235107
26.6083240509033
32.6166572570801
27.1805477142334
27.8481388092041
37.6712837219238
35.1916542053223
32.6166572570801
46.8268356323242
61.99072265625
72.8629379272461
81.6370086669922
81.3508987426758
74.6749725341797
61.1323890686035
52.9305381774902
69.0481262207031
78.4897918701172
76.5823822021484
93.0814514160156
103.286079406738
95.6564483642578
91.7462692260742
91.8416366577148
93.7490463256836
93.5583038330078
92.7953414916992
93.2721939086914
93.0814514160156
100.806449890137
106.719413757324
103.667556762695
106.814781188965
108.149963378906
99.4712677001953
88.3129348754883
76.296272277832
74.6749725341797
84.5934906005859
90.220344543457
95.4657135009766
106.528671264648
108.436073303223
97.4684906005859
92.0323791503906
85.9286727905273
67.903678894043
51.7860946655273
51.4999847412109
61.6092376708984
61.0370178222656
56.2685012817383
62.8490524291992
58.3666496276855
38.3388748168945
30.0416564941406
37.5759124755859
50.9277610778809
57.7944259643555
50.2601699829102
52.0722045898438
65.137939453125
51.9768333435059
24.9870281219482
13.9240694046021
12.3981437683105
11.2537002563477
10.9675893783569
11.0629596710205
4.38703584671021
0.9537034034729
4.67314672470093
2.95648050308228
1.14444410800934
4.48240613937378
10.0138854980469
7.43888664245605
-3.147221326828
-14.4962921142578
-22.9842510223389
-12.1120328903198
2.09814739227295
-4.10092449188232
-5.43610954284668
12.588885307312
22.6027698516846
19.4555492401123
16.4036979675293
6.38981294631958
-6.6759238243103
-10.9675893783569
-5.91296100616455
5.91296100616455
12.3981437683105
11.7305517196655
8.86944198608398
0.858333051204681
0
5.34073925018311
6.1037015914917
3.62407302856445
2.38425850868225
2.5749990940094
5.34073925018311
18.8833274841309
32.9981384277344
30.0416564941406
19.7416610717773
10.4907369613647
0.572222054004669
2.00277709960938
11.4444408416748
17.1666603088379
19.9324016571045
18.5972156524658
18.0249938964844
15.2592544555664
9.72777462005615
20.409252166748
29.5648059844971
25.8453617095947
26.226842880249
18.5972156524658
11.5398111343384
21.7444381713867
23.3657341003418
10.7768487930298
0.286111027002335
-5.1499981880188
-3.33796191215515
3.05185079574585
0.381481349468231
-6.1037015914917
-7.24814605712891
-7.6296272277832
-1.23981440067291
5.43610954284668
-5.34073925018311
-14.5916624069214
-13.3518476486206
-15.9268465042114
-16.9759197235107
-20.2185115814209
-27.7527694702148
-31.9490642547607
-35.4777679443359
-33.9518394470215
-26.0361022949219
-25.2731399536133
-36.0499877929688
-40.8185043334961
-40.6277656555176
-46.7314682006836
-43.8703575134277
-38.8157272338867
-42.9166526794434
-37.8620262145996
-34.5240631103516
-40.8185043334961
-40.6277656555176
-43.679615020752
-51.404613494873
-43.7749862670898
-29.3740653991699
-25.2731399536133
-26.8944358825684
-26.9898052215576
-22.125919342041
-15.4499950408936
-16.022216796875
-14.9731435775757
-7.72499752044678
-13.256477355957
-25.177770614624
-27.2759170532227
-36.3360977172852
-50.2601699829102
-46.5407257080078
-28.3249912261963
-17.2620315551758
-22.0305480957031
-25.6546211242676
-23.2703628540039
-27.657398223877
-34.4286918640137
-44.5379486083984
-59.8925743103027
-65.6147918701172
-64.4703521728516
-68.7620162963867
-65.0425720214844
-53.8842430114746
-54.4564628601074
-49.6879463195801
-33.2842483520508
-30.8999900817871
-34.1425819396973
-35.0962867736816
-38.8157272338867
-39.6740608215332
-45.1101722717285
-48.2573928833008
-42.9166526794434
-47.1129493713379
-52.0722045898438
-48.2573928833008
-43.7749862670898
-40.8185043334961
-40.2462844848633
-39.9601707458496
-39.3879508972168
-44.8240585327148
-52.5490570068359
-62.0860900878906
-60.3694267272949
-40.2462844848633
-28.7064723968506
-24.3194370269775
-20.409252166748
-19.7416610717773
-2.38425850868225
19.6462898254395
22.3166599273682
23.0796222686768
29.8509159088135
28.8972129821777
20.0277709960938
11.8259220123291
12.9703664779663
17.6435127258301
19.1694374084473
18.8833274841309
9.25092315673828
2.8611102104187
7.15277528762817
-3.71944332122803
-23.1749935150146
-20.3138828277588
-5.7222204208374
-2.76573991775513
-10.5861072540283
-18.8833274841309
-20.2185115814209
-20.0277709960938
-16.4036979675293
-8.77407169342041
-12.2074031829834
-17.9296245574951
-10.7768487930298
4.95925760269165
19.8370304107666
23.0796222686768
19.5509204864502
20.5999927520752
26.3222141265869
24.891658782959
18.1203651428223
22.125919342041
27.7527694702148
25.8453617095947
17.738883972168
12.4935140609741
22.2212886810303
28.5157318115234
26.226842880249
30.1370277404785
31.0907306671143
26.3222141265869
29.0879535675049
34.0472106933594
30.8046188354492
28.2296199798584
30.0416564941406
29.278694152832
23.7472152709961
6.00833129882813
-9.82314491271973
-30.8046188354492
-83.8305282592773
-132.087921142578
-150.208282470703
-163.750869750977
-183.77864074707
-209.147155761719
-251.110107421875
-298.223052978516
-289.735107421875
-169.282348632813
31.4722118377686
243.67121887207
499.8359375
793.671997070313
969.916381835938
1023.89599609375
1122.03210449219
1223.029296875
1177.53759765625
1035.24499511719
818.945129394531
528.828552246094
265.987884521484
19.1694374084473
-193.601791381836
-283.154541015625
-315.866577148438
-346.861938476563
-349.246185302734
-344.286926269531
-337.515625
-323.210083007813
-326.929534912109
-345.812866210938
-378.620239257813
-415.528564453125
-427.068389892578
-428.594299316406
-416.673004150391
-379.287841796875
-339.327667236328
-302.705444335938
-274.475830078125
-265.701751708984
-271.042510986328
-272.473052978516
-266.560089111328
-256.260101318359
-232.98974609375
-213.62956237793
-199.514755249023
-173.574020385742
-154.309204101563
-151.257354736328
-155.453659057617
-164.895324707031
-166.421249389648
-154.595321655273
-131.324951171875
-103.76293182373
-92.986083984375
-88.0268249511719
-75.1518249511719
-66.9499816894531
-59.2249794006348
-50.7370223999023
-43.9657249450684
-34.810173034668
-45.5870208740234
-62.1814613342285
-38.9110984802246
-11.635181427002
-8.3925895690918
-0.762962698936462
13.1611070632935
22.4120292663574
19.7416610717773
14.4009208679199
19.2648086547852
24.5101776123047
29.0879535675049
35.382396697998
36.3360977172852
36.2407302856445
41.962947845459
53.2166481018066
70.3833084106445
82.5907135009766
80.2064590454102
79.8249740600586
82.3046035766602
80.0157165527344
82.4953460693359
87.1684875488281
96.4194107055664
111.583297729492
113.967559814453
108.436073303223
101.760154724121
82.3999710083008
68.3805313110352
71.7184982299805
73.7212753295898
78.012939453125
86.5962677001953
84.1166381835938
77.6314544677734
78.8712692260742
86.8823776245117
93.1768188476563
94.03515625
93.7490463256836
92.6999740600586
90.6971969604492
78.2990493774414
64.9472045898438
72.4814605712891
88.5036773681641
93.8444137573242
89.0758972167969
86.0240478515625
81.0647888183594
68.6666412353516
70.4786834716797
82.0184936523438
82.1138610839844
80.4925689697266
85.4518280029297
85.0703430175781
74.4842376708984
60.274055480957
53.3120193481445
58.3666496276855
57.8897972106934
55.219425201416
56.8407211303711
55.9823913574219
60.7509078979492
60.9416465759277
53.121280670166
47.1129493713379
37.7666549682617
34.7148017883301
32.9981384277344
23.4611034393311
24.3194370269775
35.0962867736816
40.3416519165039
35.5731353759766
30.6138782501221
28.4203605651855
17.2620315551758
8.58333015441895
13.7333288192749
13.7333288192749
9.82314491271973
19.8370304107666
31.7583236694336
24.891658782959
8.3925895690918
-2.76573991775513
-4.10092449188232
3.43333220481873
5.81759071350098
1.23981440067291
-6.96203470230103
-17.357400894165
-8.20184898376465
14.8777732849121
20.9814739227295
15.2592544555664
7.34351634979248
-7.82036781311035
-17.5481433868408
-16.30832862854
-16.5944385528564
-17.357400894165
-16.1175880432129
-23.7472152709961
-31.7583236694336
-26.9898052215576
-21.1722145080566
-20.7907333374023
-28.8972129821777
-42.2490615844727
-42.8212814331055
-35.6685066223145
-33.5703582763672
-29.3740653991699
-19.1694374084473
-10.1092557907104
-11.0629596710205
-18.3111057281494
-20.5046234130859
-14.7824029922485
-3.5287024974823
0.47685170173645
-6.58055353164673
-1.71666610240936
3.5287024974823
-7.24814605712891
-12.6842555999756
-9.34629344940186
-9.25092315673828
-16.022216796875
-22.8888816833496
-26.4175834655762
-36.5268402099609
-37.2898025512695
-15.1638841629028
-0.667592406272888
-3.43333220481873
-6.29444265365601
-6.38981294631958
-0.381481349468231
5.7222204208374
9.72777462005615
6.77129411697388
-7.91573810577393
-7.82036781311035
0.286111027002335
-12.4935140609741
-26.9898052215576
-27.2759170532227
-26.226842880249
-22.125919342041
-20.409252166748
-32.5212860107422
-38.8157272338867
-30.8046188354492
-25.4638805389404
-23.8425846099854
-24.7962875366211
-27.3712882995605
-25.9407329559326
-23.4611034393311
-25.177770614624
-31.0907306671143
-31.8536930084229
-28.3249912261963
-26.7036952972412
-22.4120292663574
-22.5074005126953
-37.5759124755859
-44.3472061157227
-30.6138782501221
-26.7990646362305
-36.0499877929688
-36.2407302856445
-30.0416564941406
-37.2898025512695
-55.887020111084
-47.9712791442871
-23.2703628540039
-20.409252166748
-29.7555465698242
-36.3360977172852
-39.7694320678711
-40.5323944091797
-46.3499870300293
-52.8351669311523
-50.2601699829102
-45.0148010253906
-40.2462844848633
-33.8564720153809
-31.2814712524414
-30.995361328125
-32.4259147644043
-30.8046188354492
-28.8972129821777
-35.7638778686523
-39.3879508972168
-37.099063873291
-34.9055442810059
-29.0879535675049
-21.5536975860596
-16.9759197235107
-13.3518476486206
-9.44166374206543
-0.667592406272888
6.29444265365601
2.1935179233551
-9.63240432739258
-17.9296245574951
-10.1092557907104
0.572222054004669
-0.9537034034729
-10.3953666687012
-22.6027698516846
-21.5536975860596
-17.5481433868408
-23.7472152709961
-9.9185152053833
16.6898097991943
33.1888771057129
37.6712837219238
21.1722145080566
9.15555286407471
12.2074031829834
5.7222204208374
-2.00277709960938
-12.588885307312
-22.4120292663574
-10.4907369613647
8.29721927642822
13.7333288192749
9.06018257141113
9.25092315673828
13.1611070632935
10.1092557907104
7.34351634979248
0.858333051204681
-13.5425882339478
-24.4148063659668
-31.4722118377686
-36.1453590393066
-36.2407302856445
-35.6685066223145
-29.4694347381592
-16.30832862854
-8.20184898376465
-10.1092557907104
-12.3981437683105
-8.67870044708252
-5.43610954284668
-6.6759238243103
-5.53147983551025
5.05462789535522
20.5046234130859
28.8018417358398
26.7990646362305
20.8861045837402
22.3166599273682
28.5157318115234
34.1425819396973
44.9194297790527
45.1101722717285
27.2759170532227
16.022216796875
14.687032699585
9.537034034729
9.82314491271973
15.6407356262207
11.0629596710205
9.25092315673828
18.0249938964844
13.5425882339478
0.667592406272888
8.3925895690918
10.3953666687012
-22.5074005126953
-71.9092330932617
-117.49626159668
-148.968475341797
-181.299011230469
-219.161041259766
-244.624923706055
-272.568420410156
-300.035095214844
-292.119354248047
-216.776779174805
-48.8296127319336
177.007354736328
416.386901855469
672.360900878906
868.919189453125
942.926574707031
1023.13299560547
1143.58569335938
1033.05151367188
1013.40521240234
816.083984375
522.534118652344
245.197143554688
45.5870208740234
-116.637924194336
-213.72492980957
-262.173065185547
-299.558227539063
-312.910095214844
-292.500823974609
-272.377685546875
-273.903625488281
-276.097137451172
-286.873992919922
-317.392486572266
-360.595245361328
-401.032287597656
-414.384124755859
-394.833221435547
-347.911010742188
-301.084167480469
-267.418426513672
-243.766586303711
-235.278625488281
-230.510116577148
-239.379547119141
-253.875839233398
-252.1591796875
-237.376770019531
-210.577713012695
-187.402725219727
-168.614761352539
-141.624954223633
-117.210144042969
-107.005523681641
-104.049041748047
-106.242561340332
-112.060150146484
-104.525894165039
-83.6397857666016
-60.0833129882813
-33.9518394470215
-21.0768451690674
-30.2323970794678
-37.7666549682617
-32.4259147644043
-26.5129547119141
-24.5101776123047
-16.9759197235107
-7.15277528762817
-0.572222054004669
11.4444408416748
20.7907333374023
21.2675857543945
20.5046234130859
24.0333251953125
30.5185089111328
26.7036952972412
21.839807510376
28.6111011505127
36.7175827026367
38.3388748168945
32.6166572570801
28.2296199798584
33.9518394470215
48.4481315612793
63.2305335998535
68.0944213867188
67.0453491210938
62.3722038269043
53.9796104431152
51.9768333435059
57.5083160400391
57.5083160400391
53.3120193481445
61.7046089172363
78.7759017944336
87.6453399658203
86.1194152832031
76.7731246948242
66.2823867797852
58.7481307983398
53.5027618408203
56.0777587890625
69.6203460693359
81.7323837280273
77.8221969604492
68.3805313110352
69.8110885620117
72.8629379272461
70.0971984863281
72.4814605712891
73.6259002685547
64.6610870361328
51.7860946655273
40.2462844848633
41.1999855041504
47.5897979736328
44.5379486083984
43.679615020752
48.3527641296387
45.3962821960449
38.5296173095703
40.7231369018555
43.4888763427734
34.2379531860352
31.7583236694336
42.630542755127
46.8268356323242
42.9166526794434
40.4370231628418
40.4370231628418
37.4805450439453
43.3935050964355
54.0749816894531
50.1647987365723
48.1620216369629
45.2055397033691
34.2379531860352
33.9518394470215
34.9055442810059
31.9490642547607
30.1370277404785
18.787956237793
8.58333015441895
17.6435127258301
29.7555465698242
32.2351760864258
33.8564720153809
37.099063873291
33.0935096740723
15.4499950408936
-4.7685170173645
-17.9296245574951
-28.8972129821777
-30.4231376647949
-15.8314762115479
-7.72499752044678
-9.44166374206543
-7.72499752044678
-18.5972156524658
-35.9546165466309
-36.2407302856445
-30.2323970794678
-28.7064723968506
-27.2759170532227
-24.9870281219482
-15.6407356262207
-6.96203470230103
-5.34073925018311
2.95648050308228
6.19907188415527
-3.05185079574585
-10.4907369613647
-11.0629596710205
-1.81203651428223
12.3981437683105
20.6953639984131
20.8861045837402
15.1638841629028
6.96203470230103
2.38425850868225
7.6296272277832
7.15277528762817
-9.34629344940186
-11.9212923049927
4.86388731002808
12.3981437683105
13.6379585266113
18.2157344818115
13.7333288192749
5.43610954284668
-0.47685170173645
-2.8611102104187
-4.1962947845459
-14.4009208679199
-20.7907333374023
-14.9731435775757
-3.43333220481873
6.77129411697388
13.5425882339478
22.3166599273682
21.3629570007324
14.5916624069214
20.1231422424316
26.8944358825684
25.4638805389404
21.6490669250488
21.9351787567139
22.3166599273682
21.4583263397217
30.8046188354492
36.2407302856445
23.7472152709961
9.537034034729
9.63240432739258
23.6518440246582
26.8944358825684
22.6981410980225
24.2240657806396
17.6435127258301
9.72777462005615
9.537034034729
11.5398111343384
16.1175880432129
9.82314491271973
-7.34351634979248
-15.8314762115479
-19.074068069458
-26.8944358825684
-38.7203598022461
-46.7314682006836
-39.3879508972168
-25.8453617095947
-20.0277709960938
-18.4064750671387
-19.074068069458
-23.3657341003418
-27.1805477142334
-34.5240631103516
-52.2629470825195
-61.323127746582
-57.9851684570313
-60.4647941589355
-54.4564628601074
-37.1944313049316
-29.6601753234863
-28.1342506408691
-25.5592517852783
-27.1805477142334
-29.8509159088135
-33.4749908447266
-40.2462844848633
-33.4749908447266
-17.357400894165
-20.1231422424316
-30.4231376647949
-31.0907306671143
-34.6194343566895
-36.0499877929688
-26.6083240509033
-23.6518440246582
-34.9055442810059
-55.4101676940918
-71.5277557373047
-67.9990539550781
-57.2222023010254
-48.1620216369629
-34.4286918640137
-25.6546211242676
-27.7527694702148
-29.0879535675049
-26.9898052215576
-19.6462898254395
-5.91296100616455
-5.34073925018311
-18.1203651428223
-21.5536975860596
-16.30832862854
-9.82314491271973
-7.43888664245605
-13.9240694046021
-14.3055505752563
-2.1935179233551
8.58333015441895
3.62407302856445
0.190740674734116
16.7851791381836
20.3138828277588
9.34629344940186
0.762962698936462
-7.53425693511963
-0.762962698936462
13.7333288192749
17.6435127258301
22.4120292663574
28.0388793945313
23.8425846099854
8.29721927642822
-17.8342533111572
-29.4694347381592
-18.8833274841309
-9.537034034729
1.62129580974579
5.43610954284668
-2.38425850868225
-0.381481349468231
-1.14444410800934
-12.3981437683105
-16.4036979675293
-18.3111057281494
-10.1092557907104
2.5749990940094
-6.29444265365601
-11.1583299636841
-8.86944198608398
-21.9351787567139
-29.4694347381592
-33.2842483520508
-43.4888763427734
-39.5786895751953
-29.278694152832
-32.3305435180664
-40.6277656555176
-41.962947845459
-36.0499877929688
-27.943510055542
-20.0277709960938
-16.6898097991943
-9.25092315673828
2.76573991775513
0.381481349468231
-1.62129580974579
4.95925760269165
6.1037015914917
5.53147983551025
2.47962880134583
5.7222204208374
11.2537002563477
5.81759071350098
8.10647869110107
12.7796258926392
4.57777643203735
-0.858333051204681
-10.6814785003662
-18.9786968231201
-9.72777462005615
-4.29166507720947
-7.82036781311035
-19.6462898254395
-56.5546112060547
-110.724967956543
-152.687911987305
-181.108276367188
-211.149932861328
-232.608261108398
-241.859176635742
-263.985107421875
-287.923065185547
-263.985107421875
-154.499954223633
40.7231369018555
272.473052978516
534.359985351563
806.642333984375
955.420043945313
1003.77282714844
1116.30981445313
1197.37463378906
1111.73205566406
953.417297363281
719.092346191406
415.528564453125
172.811050415039
-23.9379558563232
-188.0703125
-272.854553222656
-317.964721679688
-355.254516601563
-358.401733398438
-334.177673339844
-323.496185302734
-318.441558837891
-308.236938476563
-314.531372070313
-341.807312011719
-385.677642822266
-421.822998046875
-417.245239257813
-383.198028564453
-343.237854003906
-301.751770019531
-266.464721679688
-244.434173583984
-232.036041259766
-232.89436340332
-246.055480957031
-256.736968994141
-253.398986816406
-227.172149658203
-187.688827514648
-158.219390869141
-140.480514526367
-129.036071777344
-116.542556762695
-107.673110961914
-118.44995880127
-128.082366943359
-117.210144042969
-101.187927246094
-80.5879364013672
-54.4564628601074
-31.2814712524414
-9.9185152053833
-7.24814605712891
-30.995361328125
-37.7666549682617
-22.125919342041
-27.7527694702148
-28.1342506408691
-1.62129580974579
15.35462474823
23.4611034393311
40.4370231628418
56.7453536987305
61.6092376708984
53.2166481018066
40.2462844848633
46.0638732910156
50.9277610778809
38.2435073852539
36.431468963623
32.8073959350586
24.7009181976318
34.810173034668
53.121280670166
66.5684967041016
64.2796096801758
57.6036834716797
57.2222023010254
55.3147964477539
58.1759071350098
57.8897972106934
57.0314636230469
63.8981285095215
66.7592391967773
72.4814605712891
76.6777496337891
76.2009048461914
72.0046081542969
71.1462707519531
63.8027572631836
58.3666496276855
65.9962768554688
76.1055297851563
76.0101623535156
84.0212707519531
96.4194107055664
92.6045989990234
85.6425628662109
91.8416366577148
94.2258987426758
85.0703430175781
83.4490509033203
84.2120132446289
79.6342315673828
80.4925689697266
92.5092315673828
97.9453353881836
83.6397857666016
70.9555358886719
58.4620170593262
44.6333198547363
43.5842437744141
39.864803314209
30.6138782501221
27.3712882995605
30.5185089111328
42.1536903381348
63.1351661682129
69.9064559936523
51.3092422485352
33.9518394470215
30.4231376647949
33.1888771057129
40.3416519165039
49.0203552246094
57.7944259643555
68.0944213867188
76.0101623535156
75.6286773681641
60.3694267272949
46.6360969543457
44.0610961914063
34.1425819396973
23.6518440246582
19.9324016571045
14.3055505752563
8.48795986175537
0
-12.1120328903198
-15.2592544555664
-8.67870044708252
-6.19907188415527
-7.53425693511963
-12.6842555999756
-18.6925868988037
-19.4555492401123
-18.3111057281494
-12.8749961853027
-6.86666440963745
-11.9212923049927
-21.7444381713867
-20.5046234130859
-15.2592544555664
-19.6462898254395
-19.5509204864502
-6.29444265365601
3.8148136138916
3.33796191215515
-4.1962947845459
-16.9759197235107
-13.6379585266113
2.00277709960938
-11.2537002563477
-37.9573936462402
-44.251838684082
-43.0120239257813
-35.6685066223145
-21.1722145080566
-12.302773475647
-3.147221326828
3.8148136138916
0.190740674734116
-6.1037015914917
-4.00555419921875
-2.76573991775513
-9.34629344940186
-5.05462789535522
2.00277709960938
0.0953703373670578
0.0953703373670578
-0.9537034034729
-5.05462789535522
-15.35462474823
-24.891658782959
-14.3055505752563
-5.81759071350098
-21.4583263397217
-35.382396697998
-33.761100769043
-29.278694152832
-24.7009181976318
-15.8314762115479
-7.53425693511963
-8.0111083984375
-8.67870044708252
1.14444410800934
5.91296100616455
-1.33518481254578
0.858333051204681
5.62685012817383
-0.47685170173645
4.00555419921875
6.19907188415527
-14.8777732849121
-28.5157318115234
-22.9842510223389
-10.204626083374
1.52592539787292
1.23981440067291
-4.48240613937378
-2.38425850868225
4.57777643203735
6.6759238243103
1.43055510520935
-1.43055510520935
-0.572222054004669
-8.86944198608398
-9.82314491271973
-2.95648050308228
-11.3490705490112
-13.1611070632935
-12.9703664779663
-20.1231422424316
-16.30832862854
-15.8314762115479
-17.357400894165
-14.4962921142578
-18.3111057281494
-19.7416610717773
-21.2675857543945
-22.6981410980225
-17.1666603088379
-17.9296245574951
-17.9296245574951
-7.43888664245605
-5.05462789535522
-12.4935140609741
-17.4527721405029
-17.738883972168
-15.35462474823
-15.6407356262207
-14.3055505752563
-17.2620315551758
-15.7361059188843
-4.95925760269165
-6.86666440963745
-15.35462474823
-17.6435127258301
-15.8314762115479
-19.5509204864502
-23.6518440246582
-4.7685170173645
18.787956237793
22.125919342041
12.4935140609741
1.14444410800934
-2.1935179233551
-0.762962698936462
4.38703584671021
6.48518323898315
-8.48795986175537
-19.360179901123
-15.8314762115479
-16.6898097991943
-23.9379558563232
-34.2379531860352
-41.2953567504883
-39.0064697265625
-34.9055442810059
-36.9083213806152
-36.8129501342773
-26.226842880249
-18.8833274841309
-15.8314762115479
-5.1499981880188
3.24259161949158
12.2074031829834
22.3166599273682
13.0657367706299
4.38703584671021
11.1583299636841
5.91296100616455
-1.9074068069458
0.286111027002335
-7.15277528762817
-7.82036781311035
6.29444265365601
3.5287024974823
-13.8286991119385
-16.5944385528564
0
12.9703664779663
6.48518323898315
-4.10092449188232
-5.62685012817383
-7.43888664245605
-10.204626083374
-11.9212923049927
-16.4036979675293
-16.30832862854
-19.360179901123
-36.6222114562988
-45.7777633666992
-39.2925796508789
-29.0879535675049
-24.891658782959
-31.7583236694336
-39.4833221435547
-41.8675804138184
-28.6111011505127
-6.58055353164673
-7.91573810577393
-29.1833248138428
-39.0064697265625
-30.0416564941406
-19.2648086547852
-12.2074031829834
-14.9731435775757
-21.6490669250488
-17.738883972168
-16.4036979675293
-22.125919342041
-22.6981410980225
-21.3629570007324
-18.5972156524658
-8.86944198608398
-3.62407302856445
-11.9212923049927
-18.787956237793
-11.4444408416748
-3.62407302856445
-8.3925895690918
-14.5916624069214
-24.5101776123047
-30.3277683258057
-18.2157344818115
-12.3981437683105
-15.5453653335571
-10.0138854980469
-2.38425850868225
1.23981440067291
-3.05185079574585
-2.47962880134583
10.3953666687012
13.0657367706299
12.302773475647
13.6379585266113
-3.5287024974823
-31.3768424987793
-66.7592391967773
-117.210144042969
-162.3203125
-189.977722167969
-209.719375610352
-229.365661621094
-256.927703857422
-284.298980712891
-289.639709472656
-253.208251953125
-118.354591369629
106.242561340332
327.978607177734
580.042419433594
848.12841796875
977.927490234375
1034.6728515625
1166.95153808594
1251.44958496094
1178.77734375
1026.37561035156
777.363647460938
458.254486083984
196.176788330078
-20.409252166748
-188.165679931641
-270.756408691406
-318.918426513672
-345.526733398438
-340.472106933594
-334.940643310547
-329.790649414063
-311.479522705078
-307.473968505859
-327.787872314453
-363.074890136719
-403.416534423828
-426.019317626953
-420.106353759766
-380.718383789063
-332.937866210938
-299.939727783203
-266.941589355469
-240.142517089844
-233.466598510742
-241.57307434082
-252.063812255859
-259.407318115234
-258.835113525391
-247.009185791016
-227.362884521484
-199.037902832031
-165.086059570313
-138.573104858398
-122.550888061523
-115.49348449707
-119.403663635254
-129.799026489258
-137.619400024414
-126.747184753418
-99.6620025634766
-77.1546020507813
-57.6990547180176
-39.3879508972168
-30.2323970794678
-24.2240657806396
-23.2703628540039
-29.3740653991699
-26.4175834655762
-26.6083240509033
-28.0388793945313
-14.687032699585
-10.9675893783569
-12.8749961853027
0.381481349468231
28.5157318115234
27.3712882995605
22.4120292663574
15.35462474823
24.7962875366211
41.0092468261719
50.9277610778809
55.0286865234375
54.2657241821289
57.5083160400391
72.2907180786133
74.1027526855469
61.7046089172363
54.8379440307617
50.6416511535645
50.4509086608887
47.017578125
41.3907279968262
58.3666496276855
76.7731246948242
75.4379425048828
75.247200012207
78.9666442871094
81.3508987426758
82.876823425293
79.1573791503906
74.5796051025391
66.0916442871094
56.1731300354004
63.5166473388672
76.1055297851563
81.4462738037109
92.6045989990234
98.4221878051758
89.6481170654297
84.2120132446289
83.2583084106445
76.3916397094727
67.1407165527344
63.5166473388672
61.4184989929199
61.5138702392578
70.6694183349609
81.2555313110352
93.1768188476563
101.760154724121
91.1740417480469
72.2907180786133
61.7999801635742
55.6009063720703
48.9249839782715
51.5953521728516
69.5249786376953
80.4925689697266
71.6231231689453
56.6499824523926
53.6935005187988
61.5138702392578
63.9934997558594
65.7101669311523
68.6666412353516
66.1870193481445
69.7157211303711
72.0046081542969
59.5110931396484
47.9712791442871
47.1129493713379
46.6360969543457
38.0527648925781
29.3740653991699
26.0361022949219
21.2675857543945
23.1749935150146
32.2351760864258
30.5185089111328
24.4148063659668
26.226842880249
18.5018463134766
0.762962698936462
-9.15555286407471
-13.256477355957
-8.58333015441895
-1.52592539787292
4.29166507720947
11.1583299636841
11.9212923049927
11.635181427002
1.23981440067291
-19.4555492401123
-28.1342506408691
-27.7527694702148
-28.1342506408691
-21.6490669250488
-8.86944198608398
-0.47685170173645
-1.81203651428223
-1.52592539787292
6.48518323898315
8.77407169342041
4.7685170173645
-1.33518481254578
-10.3953666687012
-14.687032699585
-5.43610954284668
7.0574049949646
7.82036781311035
6.00833129882813
6.00833129882813
5.53147983551025
7.6296272277832
-4.67314672470093
-27.0851764678955
-22.125919342041
-6.29444265365601
-10.8722190856934
-20.0277709960938
-25.7499923706055
-23.7472152709961
-14.687032699585
-12.2074031829834
-4.7685170173645
-2.28888821601868
-13.256477355957
-13.1611070632935
-8.86944198608398
-12.6842555999756
-18.0249938964844
-24.5101776123047
-27.5620288848877
-25.177770614624
-22.7935104370117
-24.4148063659668
-26.6083240509033
-27.3712882995605
-17.5481433868408
-0.762962698936462
3.147221326828
-3.8148136138916
-20.5046234130859
-39.1018409729004
-37.8620262145996
-30.8046188354492
-38.8157272338867
-42.0583190917969
-34.1425819396973
-37.8620262145996
-40.5323944091797
-32.9027671813965
-32.8073959350586
-37.2898025512695
-42.5351715087891
-38.8157272338867
-18.5972156524658
-5.7222204208374
-6.6759238243103
-4.95925760269165
-2.28888821601868
-7.91573810577393
-12.4935140609741
-8.0111083984375
-4.7685170173645
-4.7685170173645
-13.0657367706299
-30.70924949646
-36.431468963623
-35.6685066223145
-40.2462844848633
-38.3388748168945
-34.4286918640137
-41.2953567504883
-47.017578125
-37.6712837219238
-30.5185089111328
-32.5212860107422
-29.7555465698242
-25.4638805389404
-19.6462898254395
-15.7361059188843
-16.7851791381836
-12.8749961853027
-10.4907369613647
-17.1666603088379
-23.2703628540039
-24.9870281219482
-32.2351760864258
-34.1425819396973
-20.3138828277588
-15.9268465042114
-16.5944385528564
-7.15277528762817
-6.00833129882813
-9.537034034729
-5.34073925018311
-2.47962880134583
3.147221326828
6.29444265365601
-12.588885307312
-34.9055442810059
-39.6740608215332
-37.8620262145996
-37.4805450439453
-38.5296173095703
-48.2573928833008
-60.3694267272949
-55.887020111084
-47.4944305419922
-47.6851692199707
-41.6768379211426
-34.4286918640137
-30.0416564941406
-24.0333251953125
-17.1666603088379
-11.2537002563477
-12.6842555999756
-13.256477355957
-17.2620315551758
-27.657398223877
-28.3249912261963
-26.4175834655762
-27.2759170532227
-21.2675857543945
-3.91018390655518
12.2074031829834
8.0111083984375
2.00277709960938
8.86944198608398
3.91018390655518
-11.7305517196655
-11.2537002563477
-1.43055510520935
6.6759238243103
18.6925868988037
24.891658782959
26.8944358825684
31.0907306671143
29.1833248138428
22.3166599273682
17.1666603088379
12.0166625976563
7.15277528762817
17.738883972168
27.7527694702148
18.1203651428223
16.8805503845215
24.7009181976318
19.6462898254395
16.4990692138672
17.2620315551758
7.53425693511963
-2.38425850868225
-5.53147983551025
-8.48795986175537
-12.9703664779663
-11.5398111343384
0.9537034034729
11.8259220123291
4.95925760269165
-7.15277528762817
-10.7768487930298
-16.30832862854
-25.4638805389404
-24.1286964416504
-16.6898097991943
-18.2157344818115
-24.6055469512939
-26.7990646362305
-25.6546211242676
-19.1694374084473
-10.204626083374
-5.81759071350098
-3.62407302856445
-0.47685170173645
7.0574049949646
17.9296245574951
17.8342533111572
1.33518481254578
-10.7768487930298
-0.47685170173645
14.4009208679199
15.8314762115479
6.96203470230103
0.762962698936462
5.62685012817383
14.7824029922485
26.6083240509033
40.4370231628418
47.3990592956543
48.1620216369629
47.017578125
44.7286911010742
37.9573936462402
28.2296199798584
19.7416610717773
-3.62407302856445
-62.7536849975586
-123.9814453125
-148.014770507813
-168.614761352539
-200.563827514648
-220.686965942383
-244.911026000977
-274.094360351563
-273.4267578125
-206.572158813477
-36.8129501342773
193.029571533203
440.515594482422
735.305297851563
964.670959472656
1030.09509277344
1100.95520019531
1232.08947753906
1240.48205566406
1122.50891113281
934.820068359375
642.700744628906
350.676727294922
113.776817321777
-110.152740478516
-248.439727783203
-302.419342041016
-346.766540527344
-366.031372070313
-354.873046875
-343.523956298828
-339.89990234375
-344.573028564453
-357.352661132813
-384.056365966797
-424.302642822266
-447.096160888672
-446.619293212891
-439.657257080078
-409.901733398438
-361.358215332031
-324.449890136719
-303.277679443359
-287.923065185547
-273.331390380859
-279.148986816406
-307.950836181641
-315.771209716797
-290.498046875
-260.074920654297
-238.425842285156
-223.834182739258
-206.095306396484
-181.966613769531
-168.519393920898
-174.050872802734
-173.955505371094
-162.892547607422
-155.644393920898
-144.962921142578
-123.599960327148
-96.3240432739258
-72.9583129882813
-55.5055389404297
-41.3907279968262
-28.4203605651855
-19.8370304107666
-19.6462898254395
-20.6953639984131
-22.125919342041
-17.6435127258301
-5.34073925018311
4.1962947845459
22.6027698516846
41.1999855041504
33.6657295227051
23.8425846099854
32.9981384277344
36.1453590393066
35.9546165466309
47.9712791442871
49.9740562438965
45.0148010253906
50.6416511535645
55.4101676940918
66.0916442871094
79.2527542114258
79.2527542114258
78.6805267333984
76.0101623535156
65.4240493774414
58.4620170593262
65.137939453125
75.7240524291992
74.8657150268555
74.8657150268555
80.2064590454102
76.0101623535156
73.2444229125977
77.7268295288086
78.2036819458008
80.111083984375
75.247200012207
60.9416465759277
64.2796096801758
83.2583084106445
88.5036773681641
83.3536758422852
85.1657104492188
81.3508987426758
69.1434936523438
67.1407165527344
68.6666412353516
67.2360916137695
69.3342361450195
68.1897964477539
65.6147918701172
72.2907180786133
79.8249740600586
77.8221969604492
71.5277557373047
68.4759063720703
60.274055480957
46.0638732910156
40.3416519165039
46.5407257080078
55.7916488647461
57.6990547180176
57.5083160400391
63.2305335998535
65.2333145141602
58.7481307983398
50.6416511535645
51.6907234191895
59.701831817627
64.4703521728516
75.7240524291992
81.827751159668
84.2120132446289
83.5444183349609
82.3046035766602
73.0536804199219
56.2685012817383
39.2925796508789
38.148136138916
46.2546157836914
48.066650390625
53.0259094238281
62.2768325805664
63.5166473388672
63.5166473388672
63.8981285095215
50.832389831543
32.1398048400879
26.7036952972412
31.0907306671143
24.5101776123047
9.06018257141113
5.53147983551025
15.1638841629028
24.0333251953125
26.0361022949219
24.4148063659668
27.3712882995605
28.3249912261963
11.1583299636841
-3.5287024974823
-2.1935179233551
0.858333051204681
3.8148136138916
3.24259161949158
1.14444410800934
-5.05462789535522
-14.2101802825928
-11.9212923049927
-10.2999963760376
-11.7305517196655
2.47962880134583
21.4583263397217
26.226842880249
25.9407329559326
24.891658782959
9.72777462005615
-10.0138854980469
-27.2759170532227
-34.7148017883301
-19.9324016571045
3.8148136138916
23.6518440246582
16.7851791381836
-17.357400894165
-19.5509204864502
2.09814739227295
-7.6296272277832
-30.995361328125
-39.9601707458496
-37.8620262145996
-39.0064697265625
-55.219425201416
-53.6935005187988
-47.7805404663086
-42.3444290161133
-32.04443359375
-23.8425846099854
-24.7962875366211
-37.3851737976074
-55.1240577697754
-58.1759071350098
-42.630542755127
-25.4638805389404
-16.4036979675293
-14.8777732849121
-23.7472152709961
-31.7583236694336
-25.177770614624
-14.2101802825928
-16.8805503845215
-28.0388793945313
-27.3712882995605
-15.0685138702393
-16.4990692138672
-31.9490642547607
-38.7203598022461
-39.197208404541
-32.3305435180664
-20.3138828277588
-20.8861045837402
-30.2323970794678
-43.7749862670898
-57.6036834716797
-57.7944259643555
-52.1675758361816
-50.1647987365723
-48.066650390625
-44.9194297790527
-35.9546165466309
-32.3305435180664
-37.2898025512695
-30.2323970794678
-28.6111011505127
-44.9194297790527
-56.0777587890625
-59.9879455566406
-54.7425765991211
-43.679615020752
-37.6712837219238
-30.6138782501221
-35.0962867736816
-48.8296127319336
-54.170352935791
-61.4184989929199
-61.7999801635742
-47.5897979736328
-42.630542755127
-39.5786895751953
-34.9055442810059
-37.4805450439453
-38.4342460632324
-41.1046180725098
-35.8592491149902
-27.657398223877
-34.810173034668
-37.1944313049316
-26.1314735412598
-12.4935140609741
-0.286111027002335
-0.762962698936462
-6.48518323898315
-0.572222054004669
0.0953703373670578
-0.858333051204681
9.44166374206543
7.53425693511963
-1.81203651428223
2.76573991775513
6.1037015914917
5.91296100616455
6.58055353164673
-0.286111027002335
-6.29444265365601
-8.58333015441895
-14.687032699585
-15.35462474823
-10.1092557907104
-16.022216796875
-26.9898052215576
-20.3138828277588
-6.77129411697388
0.9537034034729
3.91018390655518
-5.81759071350098
-12.588885307312
-5.34073925018311
-4.1962947845459
-10.204626083374
-12.1120328903198
-12.8749961853027
-5.53147983551025
0.47685170173645
-9.82314491271973
-21.7444381713867
-22.6981410980225
-17.6435127258301
-9.15555286407471
3.147221326828
15.35462474823
25.9407329559326
31.4722118377686
35.7638778686523
48.1620216369629
48.9249839782715
28.8018417358398
10.4907369613647
3.71944332122803
4.95925760269165
2.1935179233551
-3.8148136138916
2.1935179233551
10.9675893783569
19.6462898254395
29.0879535675049
29.4694347381592
26.1314735412598
23.7472152709961
21.1722145080566
15.6407356262207
3.24259161949158
-13.1611070632935
-20.5999927520752
-15.8314762115479
-16.1175880432129
-11.4444408416748
0
-1.62129580974579
-0.858333051204681
3.147221326828
-7.72499752044678
-18.0249938964844
-18.4064750671387
-24.7962875366211
-30.1370277404785
-26.7036952972412
-27.0851764678955
-25.3685111999512
-16.022216796875
-16.5944385528564
-24.7962875366211
-14.7824029922485
-2.00277709960938
-5.34073925018311
-10.6814785003662
-10.7768487930298
-5.43610954284668
0.47685170173645
8.10647869110107
21.9351787567139
31.4722118377686
24.7962875366211
17.738883972168
27.0851764678955
36.1453590393066
34.0472106933594
34.0472106933594
39.5786895751953
37.6712837219238
30.8046188354492
30.5185089111328
34.0472106933594
37.099063873291
42.3444290161133
46.6360969543457
47.2083168029785
53.9796104431152
60.8462753295898
48.4481315612793
22.6027698516846
-5.1499981880188
-56.5546112060547
-122.169403076172
-159.936065673828
-177.961059570313
-202.471237182617
-238.330474853516
-279.435089111328
-314.531372070313
-331.984161376953
-289.639709472656
-127.414772033691
104.812004089355
342.856384277344
647.659973144531
939.111755371094
1054.7958984375
1109.34777832031
1247.15795898438
1314.77551269531
1219.78662109375
1056.89416503906
788.712707519531
471.606323242188
215.250854492188
-42.8212814331055
-233.848068237305
-305.47119140625
-360.690612792969
-390.827667236328
-373.75634765625
-363.647094726563
-360.595245361328
-342.665618896484
-331.22119140625
-355.159149169922
-404.274871826172
-443.472076416016
-464.930419921875
-472.083190917969
-460.161895751953
-438.989685058594
-397.789672851563
-349.341552734375
-332.937866210938
-331.030456542969
-326.071197509766
-319.681365966797
-305.948059082031
-295.934173583984
-279.816589355469
-245.864730834961
-216.967529296875
-197.511978149414
-182.729568481445
-173.192535400391
-170.712905883789
-172.524948120117
-164.323089599609
-154.404586791992
-143.913848876953
-129.322174072266
-119.499038696289
-98.899040222168
-73.0536804199219
-69.0481262207031
-73.5305328369141
-68.5712738037109
-68.7620162963867
-69.9064559936523
-49.9740562438965
-32.9981384277344
-35.4777679443359
-28.0388793945313
-2.38425850868225
20.7907333374023
37.9573936462402
47.4944305419922
45.4916534423828
43.0120239257813
43.5842437744141
43.3935050964355
36.6222114562988
37.5759124755859
52.5490570068359
49.6879463195801
41.6768379211426
57.2222023010254
74.6749725341797
80.2064590454102
76.0101623535156
72.3860855102539
79.1573791503906
85.4518280029297
83.8305282592773
77.345344543457
73.5305328369141
77.8221969604492
95.4657135009766
100.234230041504
112.823112487793
113.776817321777
102.52311706543
88.9805297851563
84.4027481079102
91.3647842407227
96.9916381835938
102.904594421387
107.95922088623
100.424964904785
96.7055282592773
94.5120086669922
80.2064590454102
80.111083984375
94.3212661743164
87.1684875488281
78.6805267333984
90.6971969604492
91.0786743164063
82.2092361450195
78.4897918701172
69.2388687133789
66.854606628418
70.9555358886719
63.2305335998535
51.5953521728516
50.9277610778809
57.5083160400391
59.0342407226563
56.0777587890625
60.274055480957
73.2444229125977
81.16015625
71.5277557373047
58.1759071350098
58.2712783813477
61.7999801635742
50.4509086608887
36.9083213806152
46.4453544616699
65.9009017944336
74.6749725341797
72.2907180786133
63.3259048461914
50.355541229248
44.1564674377441
58.9388694763184
66.3777542114258
52.7397994995117
52.7397994995117
59.6064605712891
47.017578125
30.2323970794678
27.8481388092041
23.4611034393311
5.53147983551025
-7.34351634979248
-5.91296100616455
-5.7222204208374
-2.5749990940094
13.5425882339478
19.5509204864502
5.1499981880188
-10.204626083374
-18.0249938964844
-24.0333251953125
-31.6629524230957
-30.8046188354492
-22.2212886810303
-18.6925868988037
-17.6435127258301
-6.58055353164673
5.43610954284668
-0.762962698936462
-9.537034034729
-7.15277528762817
-3.147221326828
2.09814739227295
-0.858333051204681
-8.67870044708252
-3.62407302856445
-6.96203470230103
-20.409252166748
-27.5620288848877
-21.9351787567139
4.1962947845459
21.0768451690674
11.0629596710205
2.28888821601868
5.1499981880188
0.0953703373670578
-14.2101802825928
-20.7907333374023
-24.4148063659668
-33.2842483520508
-37.7666549682617
-32.3305435180664
-19.9324016571045
-16.2129573822021
-18.5018463134766
-12.9703664779663
-23.5564746856689
-44.3472061157227
-35.7638778686523
-15.2592544555664
-10.4907369613647
-19.1694374084473
-27.5620288848877
-26.1314735412598
-19.5509204864502
-12.3981437683105
-12.302773475647
-19.1694374084473
-21.5536975860596
-19.1694374084473
-16.4990692138672
-9.537034034729
-10.0138854980469
-17.8342533111572
-9.06018257141113
5.24536848068237
4.10092449188232
0.0953703373670578
0.667592406272888
-0.381481349468231
-2.09814739227295
-2.47962880134583
0.190740674734116
-4.10092449188232
-17.1666603088379
-19.4555492401123
-18.5018463134766
-17.6435127258301
-10.9675893783569
-6.96203470230103
-1.43055510520935
2.5749990940094
-4.00555419921875
-16.30832862854
-26.6083240509033
-30.8999900817871
-23.9379558563232
-8.86944198608398
-6.86666440963745
-12.0166625976563
-12.6842555999756
-20.5999927520752
-28.6111011505127
-34.0472106933594
-43.679615020752
-51.8814659118652
-49.2110939025879
-36.5268402099609
-28.8972129821777
-31.4722118377686
-35.7638778686523
-34.3333206176758
-31.9490642547607
-27.5620288848877
-19.5509204864502
-22.4120292663574
-29.7555465698242
-28.6111011505127
-25.0823993682861
-22.7935104370117
-29.9462871551514
-37.9573936462402
-27.1805477142334
-13.1611070632935
-10.9675893783569
-9.9185152053833
-9.15555286407471
-10.6814785003662
-14.4009208679199
-25.3685111999512
-35.8592491149902
-38.148136138916
-39.864803314209
-36.5268402099609
-25.3685111999512
-20.2185115814209
-20.2185115814209
-25.7499923706055
-31.7583236694336
-26.8944358825684
-15.8314762115479
-5.05462789535522
-7.6296272277832
-14.8777732849121
-8.3925895690918
-4.57777643203735
-10.6814785003662
-22.3166599273682
-36.9083213806152
-40.913875579834
-33.4749908447266
-21.0768451690674
-11.635181427002
-13.1611070632935
-16.30832862854
-3.147221326828
14.3055505752563
4.7685170173645
-11.9212923049927
-4.67314672470093
11.2537002563477
21.4583263397217
25.4638805389404
26.9898052215576
26.226842880249
14.3055505752563
1.14444410800934
-1.71666610240936
-2.28888821601868
-4.86388731002808
-9.44166374206543
-18.6925868988037
-22.7935104370117
-17.0712909698486
-10.5861072540283
2.8611102104187
14.7824029922485
15.35462474823
22.3166599273682
21.2675857543945
5.7222204208374
3.24259161949158
10.9675893783569
10.3953666687012
-3.24259161949158
-11.7305517196655
-8.20184898376465
-6.58055353164673
-0.572222054004669
7.0574049949646
-1.33518481254578
-18.2157344818115
-33.3796195983887
-32.9027671813965
-18.1203651428223
-20.8861045837402
-26.1314735412598
-16.6898097991943
-12.0166625976563
-8.67870044708252
-2.38425850868225
3.147221326828
9.34629344940186
8.67870044708252
5.24536848068237
6.96203470230103
7.43888664245605
4.86388731002808
1.71666610240936
3.24259161949158
10.8722190856934
18.6925868988037
24.7009181976318
22.125919342041
16.022216796875
9.537034034729
-3.8148136138916
-10.3953666687012
-2.95648050308228
6.86666440963745
11.1583299636841
11.0629596710205
16.9759197235107
22.3166599273682
18.9786968231201
22.7935104370117
27.1805477142334
22.0305480957031
28.0388793945313
38.3388748168945
17.4527721405029
-27.657398223877
-66.1870193481445
-110.248115539551
-153.83235168457
-176.053649902344
-202.089752197266
-233.466598510742
-247.009185791016
-255.783248901367
-271.805480957031
-261.123992919922
-171.571243286133
8.77407169342041
229.842514038086
482.955413818359
756.859008789063
922.898803710938
976.115417480469
1077.39868164063
1165.71166992188
1103.72094726563
981.551513671875
786.1376953125
482.955413818359
220.305480957031
7.43888664245605
-192.838821411133
-311.574890136719
-350.676727294922
-370.513763427734
-376.331359863281
-357.543395996094
-344.668395996094
-343.523956298828
-342.284149169922
-350.104522705078
-366.985076904297
-400.650787353516
-437.368377685547
-443.281341552734
-416.100799560547
-368.224884033203
-320.158233642578
-282.200836181641
-254.829544067383
-235.469375610352
-229.270294189453
-239.761032104492
-244.815658569336
-235.087890625
-212.389739990234
-179.105499267578
-145.153656005859
-113.299964904785
-95.9425582885742
-94.03515625
-85.9286727905273
-80.111083984375
-91.0786743164063
-101.37866973877
-94.03515625
-75.3425674438477
-56.936092376709
-40.3416519165039
-23.2703628540039
-13.1611070632935
-8.67870044708252
-6.00833129882813
-13.5425882339478
-20.0277709960938
-18.3111057281494
-20.1231422424316
-17.1666603088379
5.05462789535522
31.2814712524414
43.7749862670898
53.2166481018066
55.6009063720703
41.962947845459
32.6166572570801
36.1453590393066
45.3962821960449
55.1240577697754
55.887020111084
57.7944259643555
71.2416458129883
80.2064590454102
80.8740463256836
77.1546020507813
63.1351661682129
45.1101722717285
43.3935050964355
63.5166473388672
75.0564575195313
67.6175689697266
68.3805313110352
72.9583129882813
73.4351654052734
76.8684921264648
67.5222015380859
62.9444236755371
78.012939453125
82.3046035766602
72.0046081542969
59.0342407226563
50.6416511535645
60.7509078979492
76.6777496337891
84.9749755859375
90.1249694824219
80.6833038330078
67.2360916137695
56.8407211303711
44.251838684082
50.6416511535645
55.4101676940918
48.8296127319336
63.8027572631836
81.3508987426758
86.5009002685547
87.6453399658203
82.876823425293
72.8629379272461
52.453685760498
39.5786895751953
43.4888763427734
48.2573928833008
60.7509078979492
73.2444229125977
73.3397903442383
77.1546020507813
84.7842330932617
81.4462738037109
70.3833084106445
60.9416465759277
45.5870208740234
33.4749908447266
34.6194343566895
32.3305435180664
33.9518394470215
42.5351715087891
38.3388748168945
22.8888816833496
8.10647869110107
1.62129580974579
0.47685170173645
-1.62129580974579
-4.67314672470093
-5.24536848068237
0.190740674734116
1.43055510520935
-0.381481349468231
12.588885307312
16.6898097991943
1.43055510520935
-10.6814785003662
-23.9379558563232
-31.0907306671143
-32.1398048400879
-43.9657249450684
-48.4481315612793
-42.3444290161133
-41.5814666748047
-35.9546165466309
-30.5185089111328
-33.1888771057129
-37.4805450439453
-37.2898025512695
-24.7009181976318
-8.58333015441895
4.1962947845459
9.25092315673828
3.5287024974823
2.5749990940094
3.8148136138916
-9.72777462005615
-27.8481388092041
-27.4666576385498
-20.6953639984131
-18.0249938964844
-4.7685170173645
4.38703584671021
-1.62129580974579
-2.38425850868225
3.71944332122803
-4.00555419921875
-15.5453653335571
-15.1638841629028
-15.6407356262207
-7.53425693511963
7.82036781311035
13.3518476486206
20.0277709960938
18.0249938964844
-2.5749990940094
-22.7935104370117
-35.0962867736816
-35.0962867736816
-32.8073959350586
-27.7527694702148
-12.4935140609741
-7.0574049949646
-1.43055510520935
11.0629596710205
13.5425882339478
10.204626083374
0
-14.8777732849121
-23.2703628540039
-28.6111011505127
-34.9055442810059
-33.6657295227051
-26.9898052215576
-20.5999927520752
-12.2074031829834
-4.57777643203735
0.9537034034729
3.71944332122803
0.9537034034729
-1.62129580974579
0
4.29166507720947
5.7222204208374
0
-3.24259161949158
-2.76573991775513
-6.48518323898315
-6.58055353164673
-5.05462789535522
-12.8749961853027
-8.0111083984375
3.71944332122803
0.762962698936462
-4.1962947845459
-9.06018257141113
-7.82036781311035
10.4907369613647
22.6027698516846
20.5999927520752
15.0685138702393
12.0166625976563
14.0194396972656
14.4009208679199
7.91573810577393
-8.48795986175537
-19.074068069458
-12.9703664779663
-7.43888664245605
-7.15277528762817
-10.0138854980469
-9.537034034729
-6.86666440963745
-11.5398111343384
-19.5509204864502
-25.177770614624
-26.8944358825684
-24.3194370269775
-21.3629570007324
-23.0796222686768
-30.5185089111328
-38.8157272338867
-33.9518394470215
-21.9351787567139
-22.9842510223389
-24.3194370269775
-21.9351787567139
-19.9324016571045
-7.24814605712891
-10.5861072540283
-27.8481388092041
-18.787956237793
-14.1148099899292
-38.148136138916
-47.8759117126465
-35.0009155273438
-22.6027698516846
-14.4962921142578
-9.15555286407471
-6.58055353164673
-2.1935179233551
0.190740674734116
-9.72777462005615
-22.2212886810303
-24.9870281219482
-20.9814739227295
-13.6379585266113
-13.6379585266113
-13.9240694046021
-4.57777643203735
-0.286111027002335
-3.05185079574585
-11.1583299636841
-26.1314735412598
-32.1398048400879
-30.995361328125
-31.5675830841064
-24.5101776123047
-12.1120328903198
0.667592406272888
7.72499752044678
1.81203651428223
3.8148136138916
9.44166374206543
0
-3.71944332122803
-1.43055510520935
-2.28888821601868
4.48240613937378
10.9675893783569
8.86944198608398
-1.52592539787292
-14.4962921142578
-14.1148099899292
1.04907369613647
15.8314762115479
18.2157344818115
14.3055505752563
22.9842510223389
29.278694152832
18.0249938964844
9.82314491271973
13.5425882339478
17.738883972168
12.3981437683105
-0.9537034034729
-6.77129411697388
1.23981440067291
10.6814785003662
0.381481349468231
-25.3685111999512
-29.0879535675049
-11.5398111343384
-0.572222054004669
-0.0953703373670578
-13.9240694046021
-33.3796195983887
-38.7203598022461
-30.4231376647949
-19.9324016571045
-13.8286991119385
-5.81759071350098
4.7685170173645
2.95648050308228
-12.1120328903198
-22.8888816833496
-13.256477355957
-3.62407302856445
-14.9731435775757
-21.3629570007324
-14.4009208679199
-5.7222204208374
3.147221326828
12.8749961853027
11.0629596710205
-2.38425850868225
-8.58333015441895
-13.4472179412842
-19.7416610717773
-14.687032699585
-11.1583299636841
-12.588885307312
-4.10092449188232
1.14444410800934
-2.76573991775513
2.47962880134583
6.19907188415527
-3.71944332122803
-24.6055469512939
-22.4120292663574
-50.2601699829102
-106.910148620605
-170.236053466797
-189.786972045898
-193.601791381836
-217.635116577148
-238.044372558594
-257.881408691406
-284.20361328125
-280.388793945313
-207.811965942383
-44.6333198547363
167.661056518555
389.015625
656.624816894531
888.5654296875
973.349670410156
1048.02465820313
1181.44775390625
1182.11535644531
1044.78210449219
870.254333496094
609.702575683594
314.054534912109
76.4870147705078
-108.149963378906
-236.804550170898
-305.185089111328
-343.714691162109
-371.753570556641
-366.889709472656
-338.087860107422
-317.964721679688
-302.133239746094
-295.648040771484
-304.040649414063
-337.992492675781
-395.977661132813
-426.019317626953
-413.716522216797
-375.473022460938
-321.684143066406
-281.151763916016
-252.922134399414
-231.177703857422
-224.883255004883
-226.313812255859
-232.79899597168
-236.136962890625
-223.261962890625
-201.231414794922
-182.348083496094
-158.600875854492
-130.180511474609
-118.068481445313
-115.49348449707
-110.343482971191
-112.25089263916
-114.921257019043
-107.005523681641
-89.9342269897461
-71.8138656616211
-55.3147964477539
-39.5786895751953
-37.8620262145996
-53.121280670166
-71.3370132446289
-70.9555358886719
-54.3610954284668
-45.3962821960449
-33.3796195983887
-15.0685138702393
-2.95648050308228
2.5749990940094
1.81203651428223
8.48795986175537
22.9842510223389
29.4694347381592
33.6657295227051
36.7175827026367
26.4175834655762
18.3111057281494
21.0768451690674
30.70924949646
48.9249839782715
57.5083160400391
55.9823913574219
66.4731292724609
76.3916397094727
69.6203460693359
63.4212760925293
63.2305335998535
62.5629425048828
67.0453491210938
67.2360916137695
61.7999801635742
70.1925735473633
82.3999710083008
82.4953460693359
85.3564529418945
85.4518280029297
73.2444229125977
71.0509033203125
76.7731246948242
72.5768280029297
68.0944213867188
74.9610900878906
83.1629333496094
87.4546051025391
93.7490463256836
92.0323791503906
87.4546051025391
90.1249694824219
84.7842330932617
72.0999755859375
62.0860900878906
61.8953514099121
77.7268295288086
83.6397857666016
70.2879409790039
59.2249794006348
51.3092422485352
47.1129493713379
51.0231323242188
52.6444282531738
54.3610954284668
67.9990539550781
79.6342315673828
81.3508987426758
81.2555313110352
81.9231185913086
83.925895690918
75.247200012207
48.9249839782715
29.278694152832
30.2323970794678
37.099063873291
38.8157272338867
33.6657295227051
26.3222141265869
32.5212860107422
42.5351715087891
32.9027671813965
16.9759197235107
13.1611070632935
14.9731435775757
15.1638841629028
16.5944385528564
19.8370304107666
13.9240694046021
0.0953703373670578
-4.38703584671021
-9.537034034729
-21.7444381713867
-21.3629570007324
-18.2157344818115
-23.6518440246582
-25.7499923706055
-19.1694374084473
-7.91573810577393
1.14444410800934
6.48518323898315
8.20184898376465
6.38981294631958
-2.38425850868225
-9.537034034729
-3.24259161949158
2.28888821601868
10.1092557907104
24.9870281219482
24.9870281219482
14.4009208679199
12.6842555999756
13.3518476486206
4.7685170173645
-17.9296245574951
-37.3851737976074
-32.9981384277344
-25.3685111999512
-17.9296245574951
-3.33796191215515
3.33796191215515
9.537034034729
7.82036781311035
-7.72499752044678
-13.7333288192749
-17.4527721405029
-18.1203651428223
-8.86944198608398
-10.5861072540283
-6.96203470230103
11.9212923049927
16.4036979675293
18.1203651428223
32.4259147644043
31.5675830841064
21.1722145080566
24.3194370269775
23.4611034393311
7.72499752044678
-16.4036979675293
-29.278694152832
-22.6027698516846
-17.2620315551758
-14.1148099899292
-11.635181427002
-16.5944385528564
-25.6546211242676
-32.8073959350586
-28.0388793945313
-19.2648086547852
-16.2129573822021
-12.7796258926392
-10.2999963760376
-9.537034034729
-1.71666610240936
7.24814605712891
1.43055510520935
-12.4935140609741
-16.022216796875
-11.0629596710205
-6.38981294631958
-4.86388731002808
-4.57777643203735
-7.24814605712891
-14.5916624069214
-17.8342533111572
-16.6898097991943
-12.7796258926392
-11.7305517196655
-12.0166625976563
0.0953703373670578
-0.858333051204681
-17.357400894165
-11.7305517196655
3.91018390655518
0.286111027002335
-8.67870044708252
-9.15555286407471
-15.0685138702393
-15.1638841629028
-13.9240694046021
-19.9324016571045
-16.30832862854
-15.6407356262207
-24.6055469512939
-29.0879535675049
-33.2842483520508
-41.1046180725098
-44.251838684082
-45.2055397033691
-46.1592445373535
-41.4860992431641
-41.8675804138184
-42.4398002624512
-27.4666576385498
-20.0277709960938
-25.7499923706055
-24.891658782959
-26.7036952972412
-34.1425819396973
-30.70924949646
-21.9351787567139
-23.9379558563232
-28.3249912261963
-23.0796222686768
-20.5999927520752
-31.3768424987793
-42.0583190917969
-36.3360977172852
-27.1805477142334
-25.0823993682861
-18.787956237793
-13.0657367706299
-21.3629570007324
-34.4286918640137
-33.4749908447266
-22.2212886810303
-15.4499950408936
-16.30832862854
-23.6518440246582
-36.5268402099609
-42.630542755127
-38.8157272338867
-41.1999855041504
-43.679615020752
-39.0064697265625
-37.3851737976074
-34.2379531860352
-29.4694347381592
-25.0823993682861
-14.1148099899292
-6.00833129882813
-8.10647869110107
-4.86388731002808
1.33518481254578
-1.43055510520935
6.77129411697388
22.6981410980225
30.3277683258057
37.8620262145996
34.7148017883301
22.4120292663574
23.2703628540039
35.6685066223145
34.2379531860352
21.3629570007324
22.4120292663574
30.5185089111328
36.2407302856445
38.3388748168945
33.4749908447266
23.7472152709961
14.7824029922485
11.9212923049927
11.3490705490112
2.5749990940094
-9.72777462005615
-6.6759238243103
9.72777462005615
25.3685111999512
31.3768424987793
26.0361022949219
18.1203651428223
3.5287024974823
-5.05462789535522
6.58055353164673
15.4499950408936
7.43888664245605
-7.24814605712891
-13.7333288192749
-14.7824029922485
-19.074068069458
-24.3194370269775
-30.6138782501221
-33.1888771057129
-35.0962867736816
-34.5240631103516
-28.0388793945313
-26.5129547119141
-29.8509159088135
-28.8972129821777
-26.0361022949219
-22.5074005126953
-23.1749935150146
-30.5185089111328
-35.1916542053223
-29.4694347381592
-15.4499950408936
-8.77407169342041
-10.3953666687012
-9.537034034729
-7.82036781311035
-8.29721927642822
-8.58333015441895
0.9537034034729
15.1638841629028
26.226842880249
42.4398002624512
52.9305381774902
43.679615020752
27.5620288848877
22.125919342041
21.6490669250488
15.8314762115479
18.787956237793
29.8509159088135
33.6657295227051
36.3360977172852
38.6249885559082
29.5648059844971
15.4499950408936
16.4990692138672
19.7416610717773
2.28888821601868
-25.177770614624
-69.9064559936523
-133.041625976563
-171.285125732422
-182.824935913086
-201.040679931641
-222.880477905273
-244.434173583984
-274.189727783203
-294.885101318359
-272.568420410156
-156.502731323242
53.5981292724609
283.917510986328
553.243347167969
849.272888183594
1005.01263427734
1044.59130859375
1151.21533203125
1239.90979003906
1160.75244140625
1001.10247802734
772.785888671875
466.074859619141
203.234191894531
-23.0796222686768
-211.340667724609
-293.263793945313
-332.174896240234
-367.938781738281
-365.649871826172
-348.101745605469
-347.434143066406
-344.954528808594
-345.812866210938
-366.317474365234
-393.498016357422
-424.588745117188
-440.897094726563
-431.360046386719
-408.566528320313
-385.486907958984
-357.638763427734
-314.817504882813
-285.538787841797
-285.729553222656
-297.173980712891
-310.716552734375
-313.768432617188
-301.179534912109
-285.634155273438
-257.404541015625
-214.583267211914
-183.397171020508
-164.799942016602
-150.780502319336
-148.396255493164
-148.777725219727
-144.772171020508
-133.423110961914
-112.155517578125
-92.1277465820313
-75.9147872924805
-59.8925743103027
-45.0148010253906
-40.0555419921875
-48.6388740539551
-48.5435028076172
-34.2379531860352
-26.7036952972412
-19.9324016571045
-8.0111083984375
4.00555419921875
23.8425846099854
34.4286918640137
23.0796222686768
17.6435127258301
22.4120292663574
25.7499923706055
36.431468963623
39.6740608215332
30.3277683258057
31.4722118377686
41.1046180725098
46.3499870300293
45.0148010253906
50.0694274902344
70.2879409790039
83.4490509033203
78.6805267333984
65.6147918701172
51.3092422485352
49.0203552246094
61.0370178222656
68.8573837280273
76.0101623535156
82.2092361450195
75.9147872924805
76.8684921264648
81.3508987426758
70.9555358886719
66.7592391967773
72.6721954345703
77.6314544677734
85.1657104492188
88.0268249511719
90.4110794067383
99.3758926391602
101.950889587402
91.6508941650391
83.4490509033203
88.5990447998047
85.6425628662109
73.5305328369141
76.0101623535156
78.5851593017578
78.5851593017578
85.1657104492188
84.5934906005859
82.6860809326172
85.9286727905273
79.1573791503906
65.0425720214844
64.9472045898438
70.9555358886719
74.9610900878906
81.6370086669922
83.3536758422852
87.2638626098633
93.7490463256836
92.986083984375
86.0240478515625
69.4296035766602
61.4184989929199
70.1925735473633
68.5712738037109
54.7425765991211
52.0722045898438
66.7592391967773
81.7323837280273
90.1249694824219
87.6453399658203
67.6175689697266
52.6444282531738
44.9194297790527
33.9518394470215
33.8564720153809
35.1916542053223
30.2323970794678
28.4203605651855
26.3222141265869
23.0796222686768
19.074068069458
14.687032699585
14.5916624069214
14.0194396972656
6.1037015914917
2.47962880134583
4.57777643203735
7.72499752044678
14.687032699585
25.8453617095947
35.382396697998
34.1425819396973
32.3305435180664
28.4203605651855
10.204626083374
-6.1037015914917
-15.9268465042114
-22.2212886810303
-14.7824029922485
1.04907369613647
3.8148136138916
-3.71944332122803
-5.43610954284668
2.95648050308228
-3.05185079574585
-7.72499752044678
-14.3055505752563
-10.8722190856934
-15.2592544555664
-19.8370304107666
-23.0796222686768
-26.5129547119141
-16.4990692138672
-7.15277528762817
-15.4499950408936
-14.3055505752563
-5.81759071350098
-12.2074031829834
-16.7851791381836
-8.67870044708252
-4.95925760269165
-7.24814605712891
2.1935179233551
3.43333220481873
-15.0685138702393
-19.4555492401123
-16.30832862854
-28.4203605651855
-34.7148017883301
-27.4666576385498
-25.3685111999512
-24.891658782959
-22.6981410980225
-24.3194370269775
-36.7175827026367
-55.5055389404297
-50.9277610778809
-34.3333206176758
-35.5731353759766
-40.0555419921875
-39.5786895751953
-45.0148010253906
-46.7314682006836
-36.9083213806152
-24.7009181976318
-14.3055505752563
-12.302773475647
-19.7416610717773
-24.4148063659668
-23.6518440246582
-20.9814739227295
-22.6027698516846
-30.1370277404785
-41.0092468261719
-54.8379440307617
-68.9527587890625
-76.296272277832
-68.0944213867188
-47.8759117126465
-35.382396697998
-36.3360977172852
-30.4231376647949
-20.5046234130859
-26.7990646362305
-35.2870254516602
-38.5296173095703
-50.2601699829102
-50.7370223999023
-31.6629524230957
-19.8370304107666
-19.7416610717773
-19.7416610717773
-21.0768451690674
-22.2212886810303
-19.9324016571045
-14.3055505752563
-11.1583299636841
-9.25092315673828
-6.86666440963745
-14.4009208679199
-22.6981410980225
-18.2157344818115
-15.6407356262207
-24.4148063659668
-30.1370277404785
-28.6111011505127
-27.5620288848877
-30.1370277404785
-32.9981384277344
-23.2703628540039
-6.6759238243103
1.14444410800934
5.34073925018311
3.24259161949158
-1.33518481254578
7.6296272277832
13.0657367706299
1.9074068069458
-5.81759071350098
-7.82036781311035
-13.9240694046021
-12.1120328903198
3.8148136138916
6.96203470230103
-11.3490705490112
-19.6462898254395
-13.256477355957
-14.7824029922485
-10.204626083374
-7.53425693511963
-24.0333251953125
-26.6083240509033
-15.2592544555664
-10.6814785003662
-8.48795986175537
-8.10647869110107
-8.3925895690918
-6.96203470230103
1.23981440067291
0.858333051204681
-19.6462898254395
-30.1370277404785
-25.0823993682861
-20.409252166748
-17.1666603088379
-10.6814785003662
4.67314672470093
20.0277709960938
29.1833248138428
31.1861019134521
23.1749935150146
14.3055505752563
0.9537034034729
-13.5425882339478
-16.2129573822021
-18.1203651428223
-12.7796258926392
4.38703584671021
1.04907369613647
-17.1666603088379
-19.1694374084473
-8.67870044708252
4.67314672470093
12.9703664779663
10.4907369613647
3.33796191215515
-3.147221326828
0.190740674734116
12.2074031829834
15.6407356262207
7.82036781311035
5.53147983551025
10.6814785003662
8.10647869110107
5.05462789535522
9.72777462005615
14.8777732849121
14.0194396972656
5.1499981880188
6.29444265365601
17.1666603088379
12.1120328903198
1.71666610240936
-1.9074068069458
-9.34629344940186
-12.302773475647
0
15.7361059188843
20.9814739227295
19.2648086547852
13.7333288192749
3.147221326828
-8.20184898376465
-11.7305517196655
-4.10092449188232
1.23981440067291
-1.71666610240936
-4.95925760269165
-2.00277709960938
3.05185079574585
5.62685012817383
6.19907188415527
5.43610954284668
5.81759071350098
5.53147983551025
6.86666440963745
12.0166625976563
8.58333015441895
0.762962698936462
2.09814739227295
8.58333015441895
9.25092315673828
3.05185079574585
5.53147983551025
10.5861072540283
0.381481349468231
-4.67314672470093
5.43610954284668
5.34073925018311
0
12.2074031829834
19.5509204864502
20.409252166748
33.1888771057129
31.9490642547607
22.9842510223389
22.4120292663574
13.0657367706299
5.81759071350098
9.44166374206543
2.95648050308228
-12.1120328903198
-33.2842483520508
-83.8305282592773
-144.962921142578
-172.811050415039
-186.735122680664
-219.351776123047
-253.971221923828
-276.955474853516
-293.168426513672
-292.500823974609
-231.749923706055
-65.9009017944336
145.058288574219
360.309143066406
643.654418945313
903.061767578125
1001.38854980469
1065.76354980469
1202.61999511719
1228.94213867188
1097.42651367188
925.855285644531
655.194213867188
352.202667236328
131.897186279297
-85.8333053588867
-257.118438720703
-321.493408203125
-364.696166992188
-393.974884033203
-379.287841796875
-363.170257568359
-358.973968505859
-346.385070800781
-336.085083007813
-344.477661132813
-374.137847900391
-411.046173095703
-431.073944091797
-426.019317626953
-405.419311523438
-378.715606689453
-349.723022460938
-322.065643310547
-298.413787841797
-285.061950683594
-285.443420410156
-292.500823974609
-286.873992919922
-268.753631591797
-257.023071289063
-236.995300292969
-198.942535400391
-170.903656005859
-159.840682983398
-150.303649902344
-142.578659057617
-143.15087890625
-143.723098754883
-139.622177124023
-125.125885009766
-90.3157119750977
-53.0259094238281
-33.9518394470215
-18.3111057281494
-2.76573991775513
-4.7685170173645
-14.3055505752563
-25.7499923706055
-30.2323970794678
-20.0277709960938
-17.5481433868408
-9.34629344940186
10.3953666687012
16.4990692138672
24.7962875366211
40.0555419921875
40.8185043334961
31.9490642547607
28.3249912261963
30.2323970794678
33.761100769043
44.6333198547363
49.9740562438965
39.9601707458496
35.9546165466309
46.6360969543457
57.0314636230469
57.8897972106934
57.6990547180176
62.6583137512207
65.805534362793
67.0453491210938
69.1434936523438
67.1407165527344
71.6231231689453
84.3073806762695
93.2721939086914
103.953666687012
100.329597473145
85.4518280029297
90.3157119750977
89.3620071411133
74.198127746582
76.7731246948242
86.5962677001953
100.424964904785
113.20458984375
105.193481445313
95.4657135009766
90.9833068847656
83.7351608276367
80.778678894043
77.0592346191406
72.3860855102539
71.8138656616211
76.9638671875
88.4083023071289
90.1249694824219
78.394416809082
70.7647933959961
74.3888626098633
74.6749725341797
61.1323890686035
54.9333152770996
60.8462753295898
63.7073860168457
63.5166473388672
66.1870193481445
77.2499771118164
83.925895690918
77.1546020507813
74.8657150268555
70.3833084106445
48.066650390625
40.6277656555176
54.7425765991211
60.0833129882813
62.3722038269043
65.4240493774414
65.3286819458008
76.8684921264648
81.5416412353516
64.0888671875
58.1759071350098
55.0286865234375
36.1453590393066
28.1342506408691
25.4638805389404
14.9731435775757
8.96481227874756
16.1175880432129
20.5046234130859
11.4444408416748
4.1962947845459
-7.82036781311035
-20.8861045837402
-16.5944385528564
-6.77129411697388
-0.572222054004669
2.5749990940094
1.9074068069458
-2.00277709960938
-8.58333015441895
-11.8259220123291
-7.15277528762817
0.667592406272888
-8.29721927642822
-27.7527694702148
-29.278694152832
-19.8370304107666
-7.6296272277832
4.7685170173645
4.10092449188232
-3.71944332122803
-13.9240694046021
-18.8833274841309
-9.537034034729
6.38981294631958
20.6953639984131
20.8861045837402
7.91573810577393
0.190740674734116
3.8148136138916
-0.0953703373670578
-17.2620315551758
-22.7935104370117
-21.3629570007324
-25.7499923706055
-26.8944358825684
-28.4203605651855
-26.8944358825684
-14.3055505752563
-1.23981440067291
6.58055353164673
13.8286991119385
18.9786968231201
12.3981437683105
0.190740674734116
-6.29444265365601
-11.5398111343384
-18.787956237793
-20.1231422424316
-18.5972156524658
-26.7036952972412
-33.0935096740723
-30.4231376647949
-35.382396697998
-38.2435073852539
-22.8888816833496
-15.4499950408936
-20.9814739227295
-19.8370304107666
-19.5509204864502
-27.943510055542
-30.2323970794678
-27.7527694702148
-33.1888771057129
-37.0036926269531
-32.6166572570801
-26.7036952972412
-19.360179901123
-16.6898097991943
-25.177770614624
-27.0851764678955
-24.6055469512939
-30.6138782501221
-29.278694152832
-27.4666576385498
-32.4259147644043
-30.6138782501221
-30.3277683258057
-32.4259147644043
-29.8509159088135
-25.177770614624
-18.5972156524658
-11.7305517196655
-3.5287024974823
1.9074068069458
-2.76573991775513
-18.2157344818115
-39.864803314209
-45.3962821960449
-36.1453590393066
-40.913875579834
-48.066650390625
-48.1620216369629
-51.2138710021973
-40.1509132385254
-28.8972129821777
-33.3796195983887
-29.0879535675049
-26.8944358825684
-35.4777679443359
-36.7175827026367
-36.3360977172852
-33.9518394470215
-20.3138828277588
-2.47962880134583
8.10647869110107
4.29166507720947
-8.58333015441895
-19.2648086547852
-36.7175827026367
-51.0231323242188
-46.3499870300293
-45.1101722717285
-41.962947845459
-28.8018417358398
-24.9870281219482
-25.7499923706055
-22.6981410980225
-18.4064750671387
-21.839807510376
-32.2351760864258
-29.3740653991699
-22.6981410980225
-28.6111011505127
-38.9110984802246
-44.251838684082
-43.8703575134277
-40.3416519165039
-30.0416564941406
-20.409252166748
-21.5536975860596
-20.9814739227295
-15.5453653335571
-20.3138828277588
-29.9462871551514
-31.4722118377686
-31.1861019134521
-26.226842880249
-11.7305517196655
-0.858333051204681
3.147221326828
5.24536848068237
2.1935179233551
-0.572222054004669
-2.76573991775513
-7.34351634979248
0.667592406272888
21.9351787567139
37.0036926269531
39.197208404541
38.3388748168945
36.1453590393066
22.7935104370117
0
-17.4527721405029
-16.9759197235107
-10.204626083374
-13.7333288192749
-23.3657341003418
-25.5592517852783
-15.8314762115479
1.14444410800934
17.1666603088379
18.2157344818115
15.7361059188843
21.5536975860596
16.6898097991943
3.24259161949158
-4.86388731002808
-8.29721927642822
-3.33796191215515
6.38981294631958
16.2129573822021
37.5759124755859
56.7453536987305
50.7370223999023
40.8185043334961
46.3499870300293
50.1647987365723
36.7175827026367
19.1694374084473
7.53425693511963
0.381481349468231
5.62685012817383
6.96203470230103
6.86666440963745
18.4064750671387
17.9296245574951
9.537034034729
-1.71666610240936
-19.5509204864502
-19.6462898254395
-4.38703584671021
-0.9537034034729
-14.687032699585
-15.9268465042114
1.14444410800934
1.33518481254578
-0.572222054004669
17.738883972168
35.1916542053223
42.9166526794434
46.2546157836914
42.1536903381348
21.3629570007324
1.23981440067291
5.24536848068237
0.286111027002335
-27.657398223877
-34.1425819396973
-26.226842880249
-28.4203605651855
-19.074068069458
-1.62129580974579
4.95925760269165
16.30832862854
40.1509132385254
44.3472061157227
23.4611034393311
7.53425693511963
3.71944332122803
5.05462789535522
3.33796191215515
5.81759071350098
18.8833274841309
25.5592517852783
23.6518440246582
17.9296245574951
13.0657367706299
9.82314491271973
-12.6842555999756
-61.323127746582
-115.970336914063
-149.826797485352
-160.889770507813
-182.061981201172
-216.967529296875
-249.298065185547
-280.102691650391
-296.411010742188
-256.069366455078
-115.016632080078
96.0379333496094
334.559143066406
641.842407226563
935.678405761719
1056.13110351563
1105.62829589844
1245.05981445313
1319.73474121094
1222.36169433594
1065.00061035156
811.506225585938
482.192443847656
205.332336425781
-41.5814666748047
-227.267517089844
-306.615631103516
-353.633209228516
-386.822113037109
-381.004516601563
-356.017486572266
-337.515625
-334.559143066406
-348.864715576172
-380.241546630859
-421.727630615234
-451.483184814453
-463.023010253906
-461.878570556641
-443.472076416016
-414.4794921875
-382.530426025391
-352.107299804688
-327.311004638672
-314.722106933594
-318.34619140625
-321.970275878906
-312.910095214844
-297.555450439453
-281.723999023438
-256.450836181641
-224.883255004883
-203.806411743164
-189.119384765625
-178.628646850586
-171.475875854492
-164.60920715332
-163.464767456055
-158.791610717773
-144.486068725586
-125.030517578125
-100.52033996582
-79.4434967041016
-63.8981285095215
-44.6333198547363
-35.382396697998
-47.4944305419922
-55.4101676940918
-48.9249839782715
-45.300910949707
-39.1018409729004
-16.4990692138672
1.23981440067291
4.7685170173645
6.00833129882813
3.05185079574585
4.10092449188232
6.58055353164673
8.20184898376465
24.6055469512939
35.1916542053223
32.5212860107422
44.5379486083984
63.2305335998535
67.6175689697266
68.9527587890625
75.7240524291992
69.1434936523438
57.0314636230469
63.6120147705078
73.8166427612305
73.4351654052734
66.0916442871094
64.6610870361328
75.5333099365234
84.0212707519531
91.1740417480469
98.8036727905273
107.100891113281
109.294410705566
91.1740417480469
76.8684921264648
76.296272277832
65.2333145141602
55.4101676940918
65.805534362793
75.9147872924805
71.8138656616211
76.0101623535156
88.5036773681641
91.1740417480469
88.6944122314453
87.4546051025391
84.8796005249023
81.0647888183594
80.4925689697266
79.8249740600586
76.3916397094727
74.1027526855469
70.4786834716797
63.8981285095215
60.8462753295898
63.5166473388672
62.6583137512207
62.6583137512207
73.5305328369141
88.4083023071289
102.61848449707
115.684219360352
114.158294677734
88.2175674438477
54.2657241821289
36.431468963623
28.2296199798584
13.5425882339478
2.28888821601868
8.10647869110107
19.4555492401123
27.2759170532227
37.0036926269531
42.4398002624512
43.3935050964355
47.9712791442871
45.6823921203613
30.6138782501221
17.6435127258301
17.2620315551758
19.9324016571045
24.2240657806396
25.177770614624
9.25092315673828
-2.76573991775513
6.1037015914917
21.1722145080566
22.6027698516846
10.6814785003662
3.8148136138916
6.58055353164673
12.7796258926392
16.4036979675293
23.2703628540039
32.6166572570801
24.891658782959
9.15555286407471
3.33796191215515
-1.9074068069458
-4.67314672470093
-4.7685170173645
-9.537034034729
-2.95648050308228
2.38425850868225
-11.3490705490112
-24.2240657806396
-31.6629524230957
-32.7120246887207
-18.4064750671387
-17.2620315551758
-13.7333288192749
-10.2999963760376
-2.95648050308228
3.8148136138916
4.38703584671021
-0.286111027002335
-10.0138854980469
-14.4962921142578
-14.8777732849121
-22.4120292663574
-25.3685111999512
-14.4009208679199
4.95925760269165
