Value(μV)
10.8722190856934
-5.91296100616455
-21.4583263397217
-27.8481388092041
-30.8046188354492
-31.4722118377686
-28.8018417358398
-30.4231376647949
-40.3416519165039
-49.6879463195801
-54.3610954284668
-51.7860946655273
-41.7722091674805
-44.3472061157227
-50.832389831543
-40.8185043334961
-40.2462844848633
-58.8434982299805
-72.4814605712891
-71.9092330932617
-63.039794921875
-51.7860946655273
-51.4999847412109
-67.2360916137695
-74.2934951782227
-62.5629425048828
-59.5110931396484
-60.4647941589355
-43.679615020752
-23.6518440246582
-17.1666603088379
-16.6898097991943
-14.0194396972656
-19.1694374084473
-20.5046234130859
-7.6296272277832
-0.9537034034729
-2.67036962509155
-8.3925895690918
-14.4009208679199
-14.3055505752563
-16.7851791381836
-18.5972156524658
-9.9185152053833
-4.7685170173645
-4.7685170173645
10.1092557907104
19.074068069458
13.0657367706299
14.687032699585
3.5287024974823
-24.2240657806396
-53.6935005187988
-105.670333862305
-169.282348632813
-207.43049621582
-226.886032104492
-244.434173583984
-252.636032104492
-249.774917602539
-235.946228027344
-194.36474609375
-134.853652954102
-66.9499816894531
31.8536930084229
146.107360839844
258.73974609375
393.688751220703
533.787780761719
666.257202148438
834.776611328125
977.450622558594
999.385803222656
983.935791015625
1008.15985107422
1018.93670654297
967.62744140625
820.757141113281
582.903503417969
346.1943359375
170.80827331543
16.2129573822021
-138.096252441406
-265.320281982422
-352.107299804688
-401.509124755859
-430.692443847656
-444.902648925781
-443.376708984375
-437.082275390625
-433.172088623047
-440.324859619141
-449.098937988281
-437.654479980469
-413.144317626953
-397.408203125
-385.200805664063
-369.941558837891
-361.930450439453
-359.546173095703
-344.286926269531
-316.629516601563
-304.517486572266
-288.781402587891
-260.933258056641
-253.971221923828
-247.86750793457
-233.371215820313
-223.643447875977
-209.814743041992
-196.55827331543
-185.686050415039
-165.086059570313
-146.584213256836
-133.232360839844
-106.242561340332
-94.3212661743164
-99.948112487793
-87.0731201171875
-72.7675704956055
-58.9388694763184
-40.913875579834
-29.0879535675049
-12.7796258926392
-7.24814605712891
-13.0657367706299
-0.667592406272888
6.48518323898315
-3.8148136138916
5.34073925018311
23.4611034393311
24.891658782959
34.0472106933594
52.7397994995117
58.3666496276855
58.5573883056641
59.3203506469727
63.8027572631836
65.137939453125
58.2712783813477
57.6990547180176
66.854606628418
77.1546020507813
76.3916397094727
68.6666412353516
59.3203506469727
47.4944305419922
47.3036880493164
56.1731300354004
64.2796096801758
73.9120101928711
83.4490509033203
88.5990447998047
86.7870101928711
85.9286727905273
92.5092315673828
90.3157119750977
74.3888626098633
65.4240493774414
69.5249786376953
74.8657150268555
80.4925689697266
93.2721939086914
102.904594421387
97.3731155395508
87.4546051025391
85.1657104492188
90.6018218994141
97.3731155395508
98.2314529418945
98.9944152832031
101.474044799805
105.002746582031
106.147186279297
101.187927246094
101.37866973877
107.768486022949
107.86385345459
103.286079406738
99.3758926391602
88.6944122314453
76.0101623535156
73.9120101928711
71.2416458129883
72.0999755859375
80.8740463256836
89.1712646484375
96.13330078125
85.0703430175781
69.6203460693359
75.4379425048828
77.345344543457
61.8953514099121
55.9823913574219
63.2305335998535
71.2416458129883
75.8194198608398
67.7129440307617
60.7509078979492
59.701831817627
54.170352935791
54.170352935791
50.9277610778809
42.5351715087891
47.3036880493164
49.6879463195801
44.8240585327148
54.6472053527832
63.8027572631836
48.1620216369629
33.9518394470215
40.2462844848633
47.6851692199707
41.5814666748047
29.0879535675049
22.4120292663574
17.0712909698486
8.77407169342041
-4.10092449188232
-15.5453653335571
-10.8722190856934
-6.6759238243103
-11.8259220123291
-11.1583299636841
-10.3953666687012
-12.3981437683105
-14.8777732849121
-28.0388793945313
-37.4805450439453
-29.7555465698242
-20.8861045837402
-20.3138828277588
-18.2157344818115
-13.6379585266113
-13.8286991119385
-17.0712909698486
-18.2157344818115
-14.5916624069214
-14.0194396972656
-17.8342533111572
-14.4009208679199
-7.6296272277832
-5.34073925018311
-14.1148099899292
-28.8018417358398
-33.3796195983887
-35.8592491149902
-48.066650390625
-51.7860946655273
-38.2435073852539
-32.8073959350586
-45.4916534423828
-57.6990547180176
-57.2222023010254
-47.9712791442871
-41.7722091674805
-40.0555419921875
-42.2490615844727
-54.6472053527832
-65.6147918701172
-67.0453491210938
-60.5601654052734
-42.8212814331055
-28.0388793945313
-30.2323970794678
-34.5240631103516
-27.2759170532227
-26.7990646362305
-39.6740608215332
-37.099063873291
-22.4120292663574
-25.6546211242676
-31.1861019134521
-23.9379558563232
-16.022216796875
-10.2999963760376
-9.537034034729
-9.25092315673828
-5.53147983551025
-6.86666440963745
-13.6379585266113
-17.6435127258301
-24.0333251953125
-35.7638778686523
-39.0064697265625
-35.0009155273438
-32.7120246887207
-28.0388793945313
-24.0333251953125
-26.0361022949219
-28.3249912261963
-23.3657341003418
-21.2675857543945
-26.5129547119141
-27.8481388092041
-27.0851764678955
-31.1861019134521
-37.5759124755859
-40.6277656555176
-38.5296173095703
-33.8564720153809
-35.0962867736816
-42.8212814331055
-44.1564674377441
-35.7638778686523
-31.3768424987793
-39.2925796508789
-46.0638732910156
-47.6851692199707
-45.8731346130371
-33.8564720153809
-31.0907306671143
-38.7203598022461
-31.7583236694336
-23.4611034393311
-20.8861045837402
-17.0712909698486
-16.022216796875
-10.204626083374
-1.52592539787292
0.9537034034729
-1.62129580974579
-5.34073925018311
-2.09814739227295
0.572222054004669
-10.9675893783569
-15.6407356262207
-7.91573810577393
-10.4907369613647
-20.7907333374023
-30.995361328125
-34.2379531860352
-26.4175834655762
-21.2675857543945
-26.8944358825684
-35.5731353759766
-37.4805450439453
-39.4833221435547
-35.9546165466309
-27.657398223877
-26.8944358825684
-20.3138828277588
-8.3925895690918
-3.05185079574585
-6.48518323898315
-12.1120328903198
-12.1120328903198
-8.29721927642822
2.5749990940094
10.4907369613647
5.7222204208374
9.34629344940186
15.4499950408936
10.204626083374
10.7768487930298
15.35462474823
6.48518323898315
-3.71944332122803
4.29166507720947
9.34629344940186
2.00277709960938
6.77129411697388
14.687032699585
10.6814785003662
17.0712909698486
31.1861019134521
31.4722118377686
28.9925842285156
29.5648059844971
29.1833248138428
28.8972129821777
26.7990646362305
25.8453617095947
23.6518440246582
26.1314735412598
31.5675830841064
21.839807510376
13.9240694046021
12.6842555999756
7.91573810577393
17.8342533111572
27.7527694702148
24.1286964416504
29.9462871551514
40.8185043334961
46.1592445373535
49.3064651489258
43.4888763427734
35.4777679443359
44.0610961914063
55.7916488647461
48.6388740539551
36.1453590393066
27.943510055542
17.2620315551758
17.2620315551758
19.9324016571045
4.57777643203735
-11.5398111343384
-10.0138854980469
0.0953703373670578
-3.33796191215515
-17.5481433868408
-14.687032699585
-6.96203470230103
-19.074068069458
-36.6222114562988
-41.2953567504883
-37.0036926269531
-32.9027671813965
-32.5212860107422
-36.6222114562988
-39.1018409729004
-36.0499877929688
-34.7148017883301
-33.761100769043
-26.6083240509033
-21.6490669250488
-24.6055469512939
-23.6518440246582
-23.3657341003418
-27.2759170532227
-24.7962875366211
-32.2351760864258
-52.453685760498
-63.6120147705078
-60.3694267272949
-40.3416519165039
-23.4611034393311
-30.0416564941406
-34.1425819396973
-18.9786968231201
-9.06018257141113
-11.3490705490112
-10.7768487930298
-8.96481227874756
-10.8722190856934
-9.537034034729
-7.43888664245605
-19.1694374084473
-48.2573928833008
-98.899040222168
-175.1953125
-243.385101318359
-265.129547119141
-259.884185791016
-262.173065185547
-259.311950683594
-238.998077392578
-212.199005126953
-168.80549621582
-95.6564483642578
9.25092315673828
134.853652954102
250.347137451172
361.835083007813
487.819274902344
611.037780761719
764.8701171875
926.427490234375
982.219116210938
972.968200683594
984.031188964844
986.987670898438
957.4228515625
851.561767578125
634.022033691406
388.634124755859
205.332336425781
53.121280670166
-110.915702819824
-247.77214050293
-334.273040771484
-398.361907958984
-433.839660644531
-431.264678955078
-423.348937988281
-415.910064697266
-400.936920166016
-400.650787353516
-410.473937988281
-406.0869140625
-393.021179199219
-381.385986328125
-369.369323730469
-353.919342041016
-340.472106933594
-333.986938476563
-320.730438232422
-298.986022949219
-285.729553222656
-271.996215820313
-249.107330322266
-237.949005126953
-230.70085144043
-205.046234130859
-193.601791381836
-200.277709960938
-191.312896728516
-168.71012878418
-145.535140991211
-131.801803588867
-116.542556762695
-98.5175628662109
-88.5036773681641
-72.5768280029297
-64.6610870361328
-69.7157211303711
-58.9388694763184
-43.7749862670898
-42.9166526794434
-42.7259140014648
-35.0009155273438
-26.0361022949219
-21.1722145080566
-24.3194370269775
-22.6981410980225
-5.7222204208374
7.15277528762817
19.7416610717773
45.0148010253906
72.8629379272461
87.5499725341797
78.2036819458008
68.5712738037109
76.8684921264648
83.8305282592773
75.1518249511719
64.6610870361328
63.8981285095215
63.6120147705078
58.4620170593262
53.6935005187988
48.4481315612793
47.1129493713379
53.7888717651367
62.5629425048828
67.6175689697266
64.6610870361328
72.8629379272461
90.7925643920898
85.4518280029297
71.0509033203125
65.0425720214844
55.6009063720703
50.9277610778809
60.1786842346191
69.3342361450195
69.6203460693359
74.4842376708984
85.4518280029297
90.4110794067383
92.7953414916992
85.7379379272461
74.2934951782227
70.2879409790039
60.8462753295898
54.9333152770996
56.4592399597168
56.2685012817383
55.1240577697754
55.1240577697754
68.2851638793945
81.6370086669922
76.6777496337891
69.1434936523438
72.7675704956055
80.5879364013672
86.0240478515625
85.4518280029297
81.7323837280273
83.1629333496094
83.0675659179688
76.5823822021484
75.1518249511719
78.2990493774414
74.8657150268555
72.1953506469727
73.8166427612305
75.3425674438477
78.2990493774414
80.2064590454102
70.0018310546875
56.3638725280762
46.2546157836914
34.6194343566895
39.5786895751953
47.5897979736328
40.6277656555176
40.1509132385254
41.8675804138184
38.3388748168945
34.5240631103516
27.4666576385498
18.5972156524658
12.4935140609741
14.5916624069214
23.8425846099854
23.8425846099854
8.10647869110107
-2.00277709960938
-4.10092449188232
-6.77129411697388
-2.67036962509155
0.286111027002335
3.05185079574585
9.63240432739258
10.6814785003662
9.15555286407471
1.81203651428223
-10.8722190856934
-18.9786968231201
-25.6546211242676
-26.7036952972412
-21.1722145080566
-17.2620315551758
-12.3981437683105
-12.1120328903198
-20.8861045837402
-23.9379558563232
-19.360179901123
-15.7361059188843
-10.9675893783569
-5.62685012817383
-2.38425850868225
-10.1092557907104
-24.6055469512939
-20.7907333374023
-13.7333288192749
-24.5101776123047
-27.943510055542
-24.7009181976318
-23.6518440246582
-9.15555286407471
4.57777643203735
0.858333051204681
-6.86666440963745
-7.6296272277832
-4.86388731002808
-5.91296100616455
-7.6296272277832
-8.86944198608398
-10.6814785003662
-15.2592544555664
-21.839807510376
-13.256477355957
1.52592539787292
1.52592539787292
-1.62129580974579
-9.9185152053833
-31.6629524230957
-42.4398002624512
-34.2379531860352
-30.8999900817871
-30.0416564941406
-26.4175834655762
-28.5157318115234
-26.6083240509033
-25.9407329559326
-37.4805450439453
-37.7666549682617
-25.7499923706055
-27.1805477142334
-28.5157318115234
-21.3629570007324
-26.7990646362305
-39.0064697265625
-46.2546157836914
-53.9796104431152
-51.7860946655273
-42.2490615844727
-46.4453544616699
-53.6935005187988
-55.6962776184082
-59.7972030639648
-55.9823913574219
-41.7722091674805
-34.810173034668
-37.9573936462402
-45.0148010253906
-50.9277610778809
-49.6879463195801
-37.3851737976074
-20.5999927520752
-20.5999927520752
-26.7990646362305
-23.3657341003418
-21.9351787567139
-19.074068069458
-9.44166374206543
4.10092449188232
14.8777732849121
18.6925868988037
12.588885307312
2.00277709960938
8.86944198608398
22.9842510223389
22.125919342041
17.738883972168
19.074068069458
27.2759170532227
36.7175827026367
36.9083213806152
26.3222141265869
11.5398111343384
8.0111083984375
10.1092557907104
3.71944332122803
-5.24536848068237
-15.0685138702393
-23.3657341003418
-30.3277683258057
-28.4203605651855
-20.3138828277588
-22.8888816833496
-23.6518440246582
-20.1231422424316
-24.7009181976318
-27.4666576385498
-24.6055469512939
-22.7935104370117
-20.7907333374023
-20.8861045837402
-26.0361022949219
-30.2323970794678
-25.7499923706055
-23.1749935150146
-28.6111011505127
-27.8481388092041
-20.3138828277588
-20.6953639984131
-25.3685111999512
-25.9407329559326
-37.099063873291
-52.453685760498
-46.6360969543457
-36.3360977172852
-36.431468963623
-32.6166572570801
-29.4694347381592
-28.6111011505127
-26.7990646362305
-30.70924949646
-29.4694347381592
-23.0796222686768
-16.2129573822021
-9.537034034729
-15.6407356262207
-19.6462898254395
-10.1092557907104
-6.77129411697388
-5.91296100616455
-0.381481349468231
7.53425693511963
14.9731435775757
13.7333288192749
6.1037015914917
3.62407302856445
3.71944332122803
1.62129580974579
4.7685170173645
6.29444265365601
4.95925760269165
10.5861072540283
14.9731435775757
18.3111057281494
22.125919342041
26.4175834655762
32.8073959350586
36.3360977172852
49.0203552246094
67.3314590454102
70.3833084106445
63.8981285095215
56.1731300354004
51.5953521728516
50.7370223999023
40.0555419921875
24.7962875366211
8.20184898376465
-6.86666440963745
-7.91573810577393
-8.0111083984375
-9.44166374206543
-7.43888664245605
-15.8314762115479
-22.8888816833496
-17.9296245574951
-16.8805503845215
-13.3518476486206
-13.7333288192749
-26.4175834655762
-30.6138782501221
-30.2323970794678
-32.9027671813965
-29.3740653991699
-15.35462474823
-1.9074068069458
-5.34073925018311
-17.2620315551758
-19.7416610717773
-18.3111057281494
-21.839807510376
-17.5481433868408
-11.3490705490112
-16.1175880432129
-14.4009208679199
-12.9703664779663
-16.2129573822021
-6.48518323898315
-2.95648050308228
-17.0712909698486
-21.9351787567139
-17.8342533111572
-19.7416610717773
-17.0712909698486
-12.7796258926392
-15.7361059188843
-14.1148099899292
-8.96481227874756
-6.1037015914917
-3.91018390655518
-2.28888821601868
5.53147983551025
7.6296272277832
-14.0194396972656
-55.3147964477539
-112.060150146484
-171.380493164063
-210.291595458984
-224.787887573242
-232.322143554688
-233.180480957031
-215.441604614258
-185.209197998047
-145.153656005859
-90.9833068847656
-10.3953666687012
100.997192382813
209.337890625
301.084167480469
415.242462158203
530.259094238281
625.343322753906
764.297912597656
886.276550292969
894.669128417969
883.320068359375
892.380249023438
867.965454101563
819.994201660156
675.3173828125
424.207275390625
217.730484008789
74.0073852539063
-72.8629379272461
-199.133270263672
-284.108245849609
-349.532287597656
-395.31005859375
-405.514678955078
-389.778564453125
-372.802673339844
-362.693389892578
-341.330444335938
-316.724884033203
-314.340637207031
-313.291564941406
-312.337860107422
-316.629516601563
-309.190643310547
-311.288787841797
-310.811950683594
-285.729553222656
-274.189727783203
-276.097137451172
-264.080474853516
-250.156402587891
-247.581405639648
-248.535110473633
-238.998077392578
-217.82585144043
-194.269378662109
-174.241607666016
-162.892547607422
-151.829574584961
-137.428665161133
-140.957366943359
-148.205505371094
-132.278656005859
-114.158294677734
-93.5583038330078
-66.5684967041016
-52.7397994995117
-42.0583190917969
-28.8972129821777
-24.891658782959
-20.6953639984131
-13.7333288192749
-9.15555286407471
-9.06018257141113
-13.1611070632935
0.9537034034729
22.5074005126953
22.6981410980225
22.6981410980225
31.0907306671143
29.5648059844971
15.9268465042114
8.0111083984375
17.8342533111572
25.4638805389404
27.8481388092041
34.0472106933594
28.1342506408691
24.3194370269775
36.3360977172852
43.0120239257813
48.1620216369629
59.0342407226563
67.0453491210938
64.6610870361328
62.7536849975586
71.5277557373047
78.012939453125
75.5333099365234
75.3425674438477
85.1657104492188
86.5962677001953
82.4953460693359
89.1712646484375
90.3157119750977
94.03515625
103.667556762695
104.812004089355
104.525894165039
101.283302307129
99.0897827148438
93.7490463256836
74.3888626098633
67.2360916137695
72.2907180786133
58.9388694763184
38.4342460632324
33.8564720153809
39.7694320678711
34.4286918640137
21.0768451690674
25.177770614624
35.5731353759766
41.1999855041504
44.3472061157227
41.5814666748047
41.2953567504883
39.3879508972168
32.9027671813965
35.382396697998
49.0203552246094
60.3694267272949
55.0286865234375
48.734245300293
57.9851684570313
62.2768325805664
59.5110931396484
59.8925743103027
55.4101676940918
55.6962776184082
63.4212760925293
64.0888671875
66.7592391967773
69.6203460693359
60.4647941589355
54.7425765991211
55.3147964477539
52.453685760498
56.0777587890625
63.2305335998535
53.5981292724609
38.148136138916
36.2407302856445
39.4833221435547
38.6249885559082
32.4259147644043
20.1231422424316
6.96203470230103
-2.09814739227295
0.381481349468231
14.1148099899292
24.891658782959
28.8972129821777
25.8453617095947
15.6407356262207
6.00833129882813
-5.34073925018311
-8.77407169342041
2.28888821601868
6.86666440963745
6.86666440963745
12.4935140609741
10.9675893783569
1.14444410800934
-9.537034034729
-12.302773475647
-3.24259161949158
0.858333051204681
-6.58055353164673
-14.0194396972656
-16.9759197235107
-19.9324016571045
-24.7009181976318
-24.1286964416504
-16.30832862854
-13.5425882339478
-12.6842555999756
-8.48795986175537
-14.2101802825928
-24.3194370269775
-23.5564746856689
-18.0249938964844
-12.1120328903198
-5.7222204208374
-3.147221326828
-2.47962880134583
-2.47962880134583
-0.9537034034729
6.86666440963745
11.3490705490112
3.24259161949158
-11.0629596710205
-19.2648086547852
-20.2185115814209
-20.6953639984131
-13.8286991119385
-8.67870044708252
-12.3981437683105
-12.3981437683105
-14.2101802825928
-22.6027698516846
-25.5592517852783
-25.3685111999512
-23.6518440246582
-18.4064750671387
-7.34351634979248
-1.23981440067291
-19.5509204864502
-30.8999900817871
-24.0333251953125
-27.1805477142334
-35.8592491149902
-42.8212814331055
-46.9222068786621
-43.1073951721191
-38.5296173095703
-39.2925796508789
-38.4342460632324
-37.6712837219238
-37.9573936462402
-33.5703582763672
-33.3796195983887
-30.4231376647949
-22.2212886810303
-26.7990646362305
-28.4203605651855
-20.9814739227295
-25.177770614624
-28.6111011505127
-30.1370277404785
-43.4888763427734
-47.3036880493164
-39.5786895751953
-44.4425773620605
-48.734245300293
-39.0064697265625
-37.2898025512695
-43.2981338500977
-34.0472106933594
-27.0851764678955
-30.1370277404785
-23.7472152709961
-20.8861045837402
-24.891658782959
-23.3657341003418
-21.0768451690674
-20.3138828277588
-26.0361022949219
-30.6138782501221
-23.7472152709961
-22.2212886810303
-28.4203605651855
-26.0361022949219
-14.7824029922485
-8.48795986175537
-5.91296100616455
-1.9074068069458
-8.0111083984375
-22.6981410980225
-23.5564746856689
-5.24536848068237
8.48795986175537
6.29444265365601
5.62685012817383
8.58333015441895
1.81203651428223
-9.06018257141113
-18.3111057281494
-22.6981410980225
-16.9759197235107
-13.7333288192749
-16.9759197235107
-22.9842510223389
-26.6083240509033
-23.6518440246582
-18.5972156524658
-9.06018257141113
-1.14444410800934
2.76573991775513
6.58055353164673
3.71944332122803
-0.0953703373670578
-2.47962880134583
-7.43888664245605
-9.25092315673828
-3.91018390655518
5.24536848068237
2.1935179233551
-15.9268465042114
-26.5129547119141
-26.226842880249
-27.7527694702148
-31.2814712524414
-27.943510055542
-18.1203651428223
-15.0685138702393
-21.4583263397217
-20.409252166748
-13.5425882339478
-10.6814785003662
4.7685170173645
27.0851764678955
32.04443359375
20.6953639984131
4.86388731002808
-2.09814739227295
3.91018390655518
10.204626083374
9.9185152053833
14.9731435775757
21.9351787567139
23.7472152709961
27.0851764678955
33.0935096740723
36.431468963623
32.7120246887207
31.6629524230957
35.382396697998
34.7148017883301
36.2407302856445
41.1999855041504
47.1129493713379
55.1240577697754
64.0888671875
69.6203460693359
70.0018310546875
76.9638671875
80.0157165527344
63.8027572631836
53.9796104431152
61.1323890686035
55.4101676940918
37.5759124755859
24.7009181976318
6.86666440963745
-11.4444408416748
-13.256477355957
-11.9212923049927
-16.30832862854
-7.91573810577393
5.81759071350098
1.43055510520935
-10.2999963760376
-8.0111083984375
-1.04907369613647
-0.47685170173645
-9.72777462005615
-28.2296199798584
-34.5240631103516
-28.6111011505127
-29.1833248138428
-28.0388793945313
-19.360179901123
-22.9842510223389
-35.5731353759766
-34.810173034668
-25.8453617095947
-20.409252166748
-16.7851791381836
-17.6435127258301
-17.8342533111572
-16.1175880432129
-21.9351787567139
-30.2323970794678
-30.8046188354492
-24.6055469512939
-20.5999927520752
-19.7416610717773
-20.8861045837402
-20.9814739227295
-15.9268465042114
-17.9296245574951
-27.8481388092041
-28.5157318115234
-16.8805503845215
-9.537034034729
-16.9759197235107
-12.9703664779663
7.91573810577393
0.858333051204681
-26.3222141265869
-55.5055389404297
-111.774040222168
-176.244384765625
-222.689743041992
-255.497146606445
-271.805480957031
-278.767517089844
-275.048065185547
-255.497146606445
-224.883255004883
-169.282348632813
-85.0703430175781
19.2648086547852
140.957366943359
267.895294189453
405.037841796875
544.469299316406
668.259948730469
817.991394042969
974.2080078125
1024.75427246094
995.284851074219
979.453369140625
977.641357421875
937.871948242188
786.1376953125
537.221130371094
284.298980712891
90.6018218994141
-49.9740562438965
-188.261047363281
-310.907318115234
-395.977661132813
-458.540588378906
-480.189666748047
-461.878570556641
-444.998016357422
-436.510040283203
-417.817443847656
-405.037841796875
-413.716522216797
-414.193389892578
-394.737823486328
-372.802673339844
-358.401733398438
-349.723022460938
-340.948974609375
-337.324890136719
-335.989715576172
-323.114715576172
-305.280456542969
-290.307312011719
-271.614715576172
-259.025848388672
-251.777694702148
-225.550857543945
-198.274932861328
-190.073089599609
-178.533279418945
-166.039764404297
-158.314758300781
-139.812911987305
-120.83422088623
-113.872184753418
-110.343482971191
-102.904594421387
-85.1657104492188
-68.7620162963867
-68.3805313110352
-62.0860900878906
-48.8296127319336
-44.4425773620605
-42.0583190917969
-31.5675830841064
-20.0277709960938
-19.7416610717773
-15.4499950408936
-5.91296100616455
1.23981440067291
10.8722190856934
15.9268465042114
16.7851791381836
14.4962921142578
8.3925895690918
18.1203651428223
41.6768379211426
49.6879463195801
47.1129493713379
55.6009063720703
64.4703521728516
72.9583129882813
92.6045989990234
105.574966430664
98.9944152832031
90.0296020507813
92.4138565063477
98.8036727905273
108.722190856934
112.060150146484
93.4629364013672
79.4434967041016
89.3620071411133
97.849967956543
94.416633605957
93.1768188476563
92.986083984375
90.3157119750977
85.1657104492188
83.2583084106445
93.0814514160156
102.61848449707
104.812004089355
105.002746582031
101.855522155762
102.713859558105
101.569412231445
95.5610809326172
96.9916381835938
93.9397811889648
82.1138610839844
77.0592346191406
72.1953506469727
63.5166473388672
59.0342407226563
53.8842430114746
48.1620216369629
53.4073905944824
59.6064605712891
56.0777587890625
59.7972030639648
69.2388687133789
70.1925735473633
74.8657150268555
81.4462738037109
82.4953460693359
87.4546051025391
93.0814514160156
85.4518280029297
73.3397903442383
76.9638671875
84.9749755859375
79.06201171875
66.5684967041016
60.5601654052734
55.9823913574219
41.0092468261719
27.4666576385498
26.9898052215576
33.6657295227051
35.2870254516602
32.9981384277344
45.2055397033691
57.5083160400391
50.0694274902344
43.8703575134277
37.3851737976074
19.4555492401123
6.96203470230103
4.86388731002808
6.00833129882813
9.44166374206543
14.9731435775757
18.6925868988037
22.7935104370117
24.3194370269775
14.4962921142578
8.0111083984375
8.96481227874756
-1.71666610240936
-14.3055505752563
-19.2648086547852
-27.2759170532227
-26.7036952972412
-13.7333288192749
-9.44166374206543
-12.0166625976563
-6.38981294631958
0.572222054004669
-0.762962698936462
-5.05462789535522
-4.00555419921875
-2.5749990940094
-4.1962947845459
-9.72777462005615
-14.4962921142578
-13.7333288192749
-16.4036979675293
-24.3194370269775
-26.226842880249
-23.8425846099854
-32.8073959350586
-36.8129501342773
-22.4120292663574
-14.1148099899292
-14.3055505752563
-14.5916624069214
-17.6435127258301
-16.4990692138672
-14.4962921142578
-17.357400894165
-11.5398111343384
-3.24259161949158
-10.4907369613647
-22.2212886810303
-29.4694347381592
-33.2842483520508
-27.943510055542
-17.2620315551758
-12.7796258926392
-18.5972156524658
-27.657398223877
-32.4259147644043
-37.9573936462402
-33.2842483520508
-20.5046234130859
-21.839807510376
-23.4611034393311
-17.8342533111572
-13.9240694046021
-4.48240613937378
-6.00833129882813
-17.4527721405029
-13.0657367706299
-12.1120328903198
-22.5074005126953
-21.6490669250488
-17.4527721405029
-22.4120292663574
-25.177770614624
-20.8861045837402
-12.9703664779663
-12.8749961853027
-19.7416610717773
-5.53147983551025
6.6759238243103
-3.24259161949158
-6.19907188415527
-4.95925760269165
-14.4962921142578
-18.9786968231201
-17.0712909698486
-19.9324016571045
-17.357400894165
-13.4472179412842
-21.2675857543945
-22.6981410980225
-14.8777732849121
-17.5481433868408
-29.278694152832
-37.0036926269531
-37.3851737976074
-35.1916542053223
-38.3388748168945
-43.2027626037598
-47.6851692199707
-54.4564628601074
-53.8842430114746
-48.9249839782715
-51.404613494873
-51.9768333435059
-45.3962821960449
-47.1129493713379
-46.6360969543457
-29.278694152832
-19.5509204864502
-21.1722145080566
-20.0277709960938
-20.9814739227295
-20.409252166748
-16.1175880432129
-6.6759238243103
3.62407302856445
5.1499981880188
1.71666610240936
-2.00277709960938
-1.9074068069458
6.19907188415527
6.96203470230103
2.00277709960938
-4.86388731002808
-24.4148063659668
-19.7416610717773
-3.05185079574585
-16.4990692138672
-21.9351787567139
-19.9324016571045
-31.4722118377686
-28.8972129821777
-22.8888816833496
-32.8073959350586
-39.197208404541
-36.0499877929688
-32.3305435180664
-25.6546211242676
-20.8861045837402
-16.9759197235107
-12.4935140609741
-23.9379558563232
-32.3305435180664
-21.0768451690674
-12.4935140609741
-1.23981440067291
12.1120328903198
9.72777462005615
-0.190740674734116
-8.29721927642822
-15.4499950408936
-9.9185152053833
0.0953703373670578
-2.8611102104187
-6.86666440963745
-8.0111083984375
-5.1499981880188
-4.57777643203735
-10.2999963760376
-6.48518323898315
-4.1962947845459
-5.81759071350098
-6.86666440963745
-10.9675893783569
-1.9074068069458
13.7333288192749
12.9703664779663
3.24259161949158
5.05462789535522
8.0111083984375
4.38703584671021
7.72499752044678
10.3953666687012
8.67870044708252
14.687032699585
17.738883972168
19.2648086547852
24.7962875366211
21.9351787567139
16.1175880432129
13.0657367706299
8.48795986175537
2.8611102104187
-3.8148136138916
-5.43610954284668
1.62129580974579
7.91573810577393
12.3981437683105
18.0249938964844
23.4611034393311
34.5240631103516
46.3499870300293
54.3610954284668
60.6555366516113
66.7592391967773
71.5277557373047
68.4759063720703
62.4675712585449
54.2657241821289
48.6388740539551
49.4972076416016
37.3851737976074
23.7472152709961
28.2296199798584
33.1888771057129
24.1286964416504
14.7824029922485
6.1037015914917
-5.43610954284668
-11.2537002563477
-11.635181427002
-9.82314491271973
-11.5398111343384
-17.2620315551758
-12.0166625976563
-2.09814739227295
-7.82036781311035
-14.1148099899292
-14.0194396972656
-19.360179901123
-19.074068069458
-14.2101802825928
-10.9675893783569
-8.96481227874756
-2.47962880134583
7.15277528762817
0.572222054004669
-13.0657367706299
-19.6462898254395
-23.8425846099854
-17.5481433868408
-8.58333015441895
-16.9759197235107
-19.7416610717773
-9.15555286407471
-7.53425693511963
-8.67870044708252
-11.7305517196655
-23.2703628540039
-30.2323970794678
-17.738883972168
-6.00833129882813
-16.7851791381836
-16.8805503845215
-4.86388731002808
-7.43888664245605
-16.022216796875
-35.7638778686523
-53.5981292724609
-73.1490478515625
-133.899963378906
-205.809188842773
-253.589736938477
-279.72119140625
-286.015655517578
-282.582305908203
-266.655456542969
-237.376770019531
-208.765670776367
-169.282348632813
-90.0296020507813
23.6518440246582
138.95458984375
251.491592407227
380.909149169922
513.950744628906
646.992370605469
821.996948242188
999.290405273438
1058.22924804688
1034.57739257813
1041.44409179688
1047.92932128906
992.328369140625
853.469177246094
613.708129882813
348.29248046875
173.955505371094
44.4425773620605
-121.978668212891
-264.557312011719
-356.68505859375
-430.597076416016
-466.265594482422
-466.742431640625
-465.311889648438
-461.878570556641
-447.477630615234
-441.660034179688
-463.88134765625
-472.941528320313
-447.000793457031
-434.030426025391
-431.455413818359
-408.471160888672
-389.873962402344
-388.634124755859
-381.099884033203
-357.638763427734
-329.695251464844
-306.329528808594
-293.645263671875
-279.911956787109
-252.254547119141
-231.177703857422
-226.4091796875
-221.640670776367
-213.343444824219
-210.100860595703
-198.561050415039
-174.909210205078
-158.791610717773
-145.058288574219
-125.030517578125
-110.629592895508
-104.144409179688
-95.084228515625
-84.3073806762695
-72.2907180786133
-56.1731300354004
-43.9657249450684
-33.2842483520508
-22.6027698516846
-16.9759197235107
-4.7685170173645
14.1148099899292
18.787956237793
14.4009208679199
22.5074005126953
32.9981384277344
30.8046188354492
24.1286964416504
28.9925842285156
43.9657249450684
51.9768333435059
49.9740562438965
44.3472061157227
47.7805404663086
62.0860900878906
70.9555358886719
70.1925735473633
70.0971984863281
78.5851593017578
83.3536758422852
78.012939453125
81.3508987426758
95.6564483642578
103.953666687012
97.849967956543
89.5527496337891
92.1277465820313
99.948112487793
105.574966430664
110.152740478516
111.583297729492
103.667556762695
98.3268203735352
97.4684906005859
93.0814514160156
95.084228515625
100.138854980469
104.049041748047
109.580520629883
102.52311706543
83.2583084106445
71.6231231689453
63.5166473388672
54.3610954284668
53.0259094238281
59.701831817627
72.3860855102539
80.4925689697266
81.2555313110352
82.4953460693359
82.876823425293
89.3620071411133
93.0814514160156
85.7379379272461
83.0675659179688
80.111083984375
74.0073852539063
73.5305328369141
74.198127746582
72.3860855102539
67.1407165527344
60.4647941589355
64.2796096801758
72.7675704956055
76.0101623535156
83.6397857666016
96.13330078125
96.9916381835938
81.5416412353516
67.6175689697266
59.6064605712891
54.3610954284668
57.0314636230469
59.9879455566406
59.5110931396484
56.4592399597168
51.8814659118652
47.8759117126465
41.4860992431641
34.4286918640137
29.8509159088135
23.8425846099854
22.0305480957031
19.6462898254395
6.38981294631958
2.47962880134583
9.34629344940186
13.4472179412842
20.6953639984131
21.3629570007324
14.7824029922485
8.29721927642822
2.76573991775513
12.302773475647
17.357400894165
6.6759238243103
7.34351634979248
6.86666440963745
2.38425850868225
14.1148099899292
24.891658782959
24.9870281219482
18.3111057281494
8.96481227874756
13.8286991119385
26.9898052215576
32.1398048400879
31.7583236694336
26.9898052215576
9.537034034729
-8.3925895690918
-6.77129411697388
2.00277709960938
-3.147221326828
-10.5861072540283
-10.7768487930298
-15.8314762115479
-20.7907333374023
-18.787956237793
-18.2157344818115
-25.5592517852783
-30.6138782501221
-20.6953639984131
-6.29444265365601
1.04907369613647
0.381481349468231
-11.2537002563477
-14.9731435775757
-11.0629596710205
-24.2240657806396
-34.3333206176758
-34.810173034668
-40.3416519165039
-40.913875579834
-38.8157272338867
-46.8268356323242
-56.936092376709
-55.6009063720703
-48.2573928833008
-48.066650390625
-43.0120239257813
-30.8999900817871
-36.1453590393066
-40.5323944091797
-27.943510055542
-34.6194343566895
-54.6472053527832
-57.0314636230469
-51.0231323242188
-44.6333198547363
-41.8675804138184
-48.734245300293
-54.2657241821289
-47.2083168029785
-44.7286911010742
-48.8296127319336
-37.8620262145996
-32.2351760864258
-36.5268402099609
-28.8018417358398
-26.1314735412598
-28.0388793945313
-25.7499923706055
-27.1805477142334
-24.2240657806396
-15.1638841629028
-12.8749961853027
-16.2129573822021
-15.6407356262207
-12.302773475647
-8.96481227874756
-5.81759071350098
-4.86388731002808
-9.537034034729
-20.1231422424316
-23.1749935150146
-25.2731399536133
-37.9573936462402
-42.0583190917969
-45.7777633666992
-56.0777587890625
-48.734245300293
-34.5240631103516
-41.1046180725098
-57.6036834716797
-61.4184989929199
-53.4073905944824
-40.0555419921875
-23.8425846099854
-12.3981437683105
-2.8611102104187
-0.286111027002335
-13.8286991119385
-25.8453617095947
-20.8861045837402
-9.9185152053833
-2.1935179233551
3.33796191215515
-3.24259161949158
-22.3166599273682
-34.2379531860352
-33.2842483520508
-33.2842483520508
-34.2379531860352
-34.3333206176758
-39.1018409729004
-47.017578125
-51.2138710021973
-37.099063873291
-20.409252166748
-22.5074005126953
-14.3055505752563
-2.47962880134583
-10.1092557907104
-11.4444408416748
-3.05185079574585
1.14444410800934
4.29166507720947
4.95925760269165
0.286111027002335
-4.95925760269165
-4.57777643203735
-4.67314672470093
1.23981440067291
11.7305517196655
0.858333051204681
-16.7851791381836
-16.022216796875
-12.9703664779663
-17.0712909698486
-13.9240694046021
-7.34351634979248
-4.86388731002808
2.47962880134583
3.05185079574585
-10.3953666687012
-13.1611070632935
-11.2537002563477
-16.1175880432129
-12.2074031829834
-6.96203470230103
-10.6814785003662
-12.9703664779663
-9.82314491271973
-1.33518481254578
6.29444265365601
10.204626083374
14.5916624069214
13.1611070632935
8.48795986175537
10.204626083374
12.6842555999756
8.86944198608398
7.34351634979248
8.96481227874756
0.572222054004669
-6.96203470230103
-5.05462789535522
-2.47962880134583
6.19907188415527
18.3111057281494
21.2675857543945
19.074068069458
24.2240657806396
28.0388793945313
28.8972129821777
37.5759124755859
34.2379531860352
23.9379558563232
26.226842880249
22.0305480957031
9.06018257141113
5.7222204208374
6.86666440963745
2.95648050308228
4.38703584671021
11.1583299636841
9.82314491271973
13.5425882339478
26.7036952972412
29.7555465698242
23.5564746856689
18.5972156524658
19.5509204864502
30.0416564941406
45.6823921203613
55.4101676940918
54.7425765991211
53.6935005187988
64.2796096801758
74.7703475952148
70.4786834716797
58.5573883056641
51.9768333435059
49.783317565918
46.4453544616699
49.9740562438965
51.0231323242188
37.9573936462402
28.3249912261963
23.8425846099854
17.4527721405029
12.6842555999756
10.8722190856934
13.0657367706299
17.4527721405029
14.4962921142578
14.5916624069214
24.0333251953125
13.8286991119385
-16.022216796875
-31.1861019134521
-26.3222141265869
-21.1722145080566
-20.9814739227295
-21.9351787567139
-28.8018417358398
-34.3333206176758
-28.9925842285156
-28.0388793945313
-30.6138782501221
-24.7962875366211
-22.5074005126953
-24.5101776123047
-25.0823993682861
-30.70924949646
-39.864803314209
-45.300910949707
-41.1046180725098
-31.8536930084229
-21.9351787567139
-18.4064750671387
-24.5101776123047
-28.4203605651855
-31.4722118377686
-35.9546165466309
-39.0064697265625
-40.8185043334961
-33.0935096740723
-24.5101776123047
-25.7499923706055
-26.0361022949219
-20.5999927520752
-24.0333251953125
-39.7694320678711
-65.9962768554688
-119.68977355957
-185.399948120117
-219.161041259766
-226.790664672852
-242.622146606445
-254.066589355469
-248.248992919922
-241.57307434082
-219.92399597168
-171.094390869141
-94.6073760986328
17.5481433868408
130.180511474609
221.545303344727
337.706359863281
474.181335449219
600.16552734375
762.867370605469
934.820068359375
999.576538085938
991.374694824219
1001.67468261719
1005.29876708984
965.243225097656
852.801574707031
637.169250488281
381.099884033203
197.035125732422
62.1814613342285
-105.956443786621
-262.077697753906
-364.696166992188
-432.218383789063
-456.633178710938
-449.480407714844
-441.755401611328
-445.474853515625
-447.096160888672
-439.561889648438
-440.897094726563
-445.856353759766
-432.790588378906
-412.953582763672
-403.70263671875
-393.974884033203
-381.576721191406
-370.323028564453
-355.063781738281
-348.101745605469
-342.665618896484
-322.161010742188
-297.460083007813
-274.285095214844
-255.211029052734
-230.986968994141
-208.384185791016
-207.525863647461
-203.04345703125
-183.492538452148
-170.712905883789
-161.843460083008
-144.581436157227
-123.027740478516
-109.485153198242
-97.5638580322266
-82.9721984863281
-78.7759017944336
-79.4434967041016
-71.0509033203125
-54.7425765991211
-38.7203598022461
-23.5564746856689
-10.7768487930298
-7.15277528762817
-9.9185152053833
-9.82314491271973
-11.4444408416748
-8.58333015441895
7.34351634979248
19.9324016571045
30.5185089111328
45.8731346130371
54.4564628601074
53.9796104431152
53.6935005187988
54.7425765991211
59.6064605712891
70.0018310546875
72.7675704956055
76.7731246948242
88.5990447998047
89.5527496337891
79.06201171875
67.0453491210938
60.5601654052734
60.9416465759277
59.8925743103027
62.3722038269043
83.6397857666016
102.52311706543
94.1305236816406
85.0703430175781
78.7759017944336
63.1351661682129
63.5166473388672
68.4759063720703
57.1268348693848
53.9796104431152
61.0370178222656
63.7073860168457
69.6203460693359
82.2092361450195
84.7842330932617
71.2416458129883
64.3749771118164
69.6203460693359
75.247200012207
75.7240524291992
70.9555358886719
72.8629379272461
78.1083068847656
82.3999710083008
89.9342269897461
84.2120132446289
64.756462097168
57.8897972106934
68.7620162963867
78.9666442871094
76.296272277832
77.6314544677734
91.5555267333984
96.8962631225586
91.269416809082
91.9370040893555
94.416633605957
87.1684875488281
86.3101577758789
92.0323791503906
89.6481170654297
89.9342269897461
98.4221878051758
97.5638580322266
88.1221923828125
89.3620071411133
94.03515625
88.4083023071289
84.5934906005859
75.8194198608398
60.6555366516113
60.4647941589355
66.4731292724609
65.7101669311523
64.6610870361328
65.805534362793
64.756462097168
55.5055389404297
39.7694320678711
32.1398048400879
35.0009155273438
32.9981384277344
26.9898052215576
26.5129547119141
19.5509204864502
9.72777462005615
2.95648050308228
2.09814739227295
11.3490705490112
11.9212923049927
7.0574049949646
6.38981294631958
4.86388731002808
7.82036781311035
6.00833129882813
-1.81203651428223
-0.286111027002335
-2.8611102104187
-15.6407356262207
-12.9703664779663
-1.33518481254578
-0.572222054004669
3.43333220481873
12.9703664779663
11.5398111343384
2.76573991775513
5.05462789535522
15.1638841629028
13.1611070632935
7.82036781311035
6.00833129882813
-11.4444408416748
-24.5101776123047
-18.9786968231201
-20.7907333374023
-18.0249938964844
-4.7685170173645
-8.67870044708252
-22.125919342041
-28.6111011505127
-28.8018417358398
-18.8833274841309
-15.8314762115479
-28.3249912261963
-30.3277683258057
-24.4148063659668
-24.2240657806396
-27.4666576385498
-33.8564720153809
-34.3333206176758
-30.5185089111328
-31.9490642547607
-35.7638778686523
-35.6685066223145
-28.8018417358398
-29.4694347381592
-42.5351715087891
-48.6388740539551
-43.0120239257813
-41.962947845459
-49.4018363952637
-57.5083160400391
-54.0749816894531
-38.5296173095703
-29.278694152832
-37.9573936462402
-42.9166526794434
-31.1861019134521
-28.9925842285156
-43.2027626037598
-47.1129493713379
-45.5870208740234
-53.4073905944824
-54.5518341064453
-51.3092422485352
-52.0722045898438
-53.5981292724609
-55.3147964477539
-56.1731300354004
-60.7509078979492
-55.1240577697754
-35.4777679443359
-32.9027671813965
-48.734245300293
-56.936092376709
-54.5518341064453
-56.5546112060547
-60.1786842346191
-56.2685012817383
-50.9277610778809
-41.2953567504883
-30.70924949646
-31.7583236694336
-28.1342506408691
-16.4990692138672
-22.4120292663574
-31.6629524230957
-25.3685111999512
-16.022216796875
-6.19907188415527
2.09814739227295
3.43333220481873
-2.1935179233551
-3.147221326828
4.1962947845459
1.81203651428223
-10.8722190856934
-19.6462898254395
-26.7990646362305
-29.5648059844971
-18.4064750671387
-14.9731435775757
-26.226842880249
-28.3249912261963
-22.6027698516846
-15.7361059188843
-14.3055505752563
-19.074068069458
-17.8342533111572
-21.4583263397217
-29.4694347381592
-24.1286964416504
-18.5972156524658
-20.5999927520752
-21.1722145080566
-32.2351760864258
-46.7314682006836
-41.1046180725098
-26.7036952972412
-16.30832862854
-2.47962880134583
-0.0953703373670578
-6.38981294631958
2.28888821601868
13.8286991119385
14.3055505752563
5.62685012817383
-0.47685170173645
8.0111083984375
11.4444408416748
4.7685170173645
2.38425850868225
-1.14444410800934
1.23981440067291
12.1120328903198
5.53147983551025
-1.81203651428223
7.72499752044678
6.1037015914917
-6.48518323898315
-5.34073925018311
0
-7.72499752044678
-10.2999963760376
-7.6296272277832
-14.4009208679199
-18.9786968231201
-19.074068069458
-13.6379585266113
-7.53425693511963
-3.24259161949158
7.91573810577393
12.0166625976563
7.24814605712891
8.86944198608398
17.0712909698486
17.6435127258301
16.4036979675293
31.9490642547607
42.1536903381348
33.8564720153809
24.9870281219482
26.3222141265869
39.6740608215332
50.4509086608887
49.9740562438965
44.251838684082
37.1944313049316
36.8129501342773
44.1564674377441
50.1647987365723
48.6388740539551
46.6360969543457
54.9333152770996
68.0944213867188
76.2009048461914
72.6721954345703
62.6583137512207
57.8897972106934
51.0231323242188
40.1509132385254
35.382396697998
32.1398048400879
29.6601753234863
23.9379558563232
10.9675893783569
1.04907369613647
0.0953703373670578
12.0166625976563
16.4990692138672
1.81203651428223
-6.96203470230103
-7.34351634979248
-6.77129411697388
-12.302773475647
-30.2323970794678
-44.1564674377441
-49.4018363952637
-49.9740562438965
-42.5351715087891
-29.0879535675049
-19.1694374084473
-18.0249938964844
-24.6055469512939
-28.6111011505127
-21.1722145080566
-25.0823993682861
-41.4860992431641
-46.9222068786621
-45.8731346130371
-38.2435073852539
-31.3768424987793
-37.6712837219238
-42.7259140014648
-43.0120239257813
-45.0148010253906
-46.8268356323242
-46.9222068786621
-45.300910949707
-50.2601699829102
-54.4564628601074
-48.6388740539551
-46.8268356323242
-45.9685020446777
-42.1536903381348
-39.197208404541
-32.9027671813965
-28.8018417358398
-23.9379558563232
-32.8073959350586
-81.0647888183594
-158.219390869141
-222.212890625
-247.676773071289
-259.121215820313
-266.369354248047
-258.644348144531
-244.148071289063
-211.53141784668
-154.595321655273
-97.7546005249023
-10.0138854980469
124.458290100098
235.946228027344
330.839721679688
453.199859619141
570.600769042969
702.784057617188
855.662658691406
926.904357910156
923.566345214844
933.198791503906
934.724670410156
908.497863769531
822.283081054688
611.5146484375
359.164703369141
183.68327331543
54.8379440307617
-85.4518280029297
-218.302703857422
-315.103607177734
-368.415618896484
-397.026733398438
-416.005432128906
-410.378570556641
-394.928588867188
-383.674865722656
-367.175811767578
-360.213775634766
-356.68505859375
-341.998046875
-324.640625
-303.086944580078
-283.631378173828
-272.854553222656
-267.895294189453
-263.889739990234
-246.913803100586
-230.605484008789
-230.223999023438
-225.741592407227
-214.487899780273
-213.915664672852
-214.964752197266
-201.136047363281
-178.724014282227
-153.164764404297
-137.524032592773
-142.006439208984
-144.295318603516
-130.180511474609
-117.49626159668
-113.776817321777
-101.950889587402
-90.1249694824219
-84.5934906005859
-61.4184989929199
-33.1888771057129
-23.0796222686768
-16.022216796875
-9.06018257141113
-5.91296100616455
-1.04907369613647
0.47685170173645
6.48518323898315
7.53425693511963
-1.9074068069458
6.1037015914917
18.787956237793
22.125919342041
29.8509159088135
30.8046188354492
27.8481388092041
32.7120246887207
34.9055442810059
32.1398048400879
29.9462871551514
28.6111011505127
33.1888771057129
40.0555419921875
32.9981384277344
23.4611034393311
26.1314735412598
30.8046188354492
35.1916542053223
40.7231369018555
43.1073951721191
44.7286911010742
50.1647987365723
58.9388694763184
55.3147964477539
40.8185043334961
36.0499877929688
39.9601707458496
44.4425773620605
47.2083168029785
49.0203552246094
45.5870208740234
33.5703582763672
27.0851764678955
30.0416564941406
36.9083213806152
45.5870208740234
47.7805404663086
47.4944305419922
53.2166481018066
55.887020111084
51.9768333435059
49.8786888122559
47.3990592956543
45.1101722717285
55.3147964477539
69.0481262207031
69.7157211303711
60.274055480957
52.3583183288574
57.0314636230469
70.8601608276367
76.5823822021484
71.5277557373047
65.6147918701172
60.5601654052734
55.4101676940918
57.6990547180176
60.8462753295898
58.4620170593262
59.2249794006348
66.0916442871094
73.7212753295898
73.5305328369141
73.8166427612305
77.7268295288086
70.7647933959961
65.805534362793
63.9934997558594
51.2138710021973
40.1509132385254
39.9601707458496
42.3444290161133
51.4999847412109
69.4296035766602
80.6833038330078
77.345344543457
58.7481307983398
37.4805450439453
26.9898052215576
21.1722145080566
24.2240657806396
28.9925842285156
24.7009181976318
26.3222141265869
29.8509159088135
30.8046188354492
39.2925796508789
40.6277656555176
26.0361022949219
14.8777732849121
17.2620315551758
25.2731399536133
23.1749935150146
24.2240657806396
33.0935096740723
24.1286964416504
14.7824029922485
14.7824029922485
5.7222204208374
-1.9074068069458
-10.3953666687012
-19.4555492401123
-15.4499950408936
-4.10092449188232
4.29166507720947
8.96481227874756
17.1666603088379
25.3685111999512
26.3222141265869
22.6027698516846
22.6981410980225
27.0851764678955
22.9842510223389
10.204626083374
3.24259161949158
2.00277709960938
-5.24536848068237
-13.6379585266113
-8.96481227874756
-1.71666610240936
2.28888821601868
4.10092449188232
-4.38703584671021
-7.6296272277832
-4.67314672470093
-17.5481433868408
-32.4259147644043
-32.2351760864258
-20.0277709960938
-4.38703584671021
2.1935179233551
1.52592539787292
-1.71666610240936
-10.204626083374
-20.2185115814209
-22.6027698516846
-22.3166599273682
-29.1833248138428
-26.1314735412598
-18.1203651428223
-28.5157318115234
-37.7666549682617
-35.0962867736816
-36.5268402099609
-45.9685020446777
-50.7370223999023
-42.8212814331055
-39.5786895751953
-48.6388740539551
-54.2657241821289
-51.2138710021973
-54.0749816894531
-58.7481307983398
-54.4564628601074
-53.7888717651367
-54.3610954284668
-48.1620216369629
-44.5379486083984
-40.8185043334961
-37.0036926269531
-35.2870254516602
-32.3305435180664
-37.3851737976074
-48.5435028076172
-50.355541229248
-47.6851692199707
-44.7286911010742
-37.5759124755859
-34.4286918640137
-38.6249885559082
-39.4833221435547
-30.995361328125
-20.5999927520752
-18.9786968231201
-20.8861045837402
-23.1749935150146
-32.9027671813965
-39.6740608215332
-39.3879508972168
-45.9685020446777
-55.1240577697754
-57.3175735473633
-48.1620216369629
-24.5101776123047
-13.1611070632935
-23.6518440246582
-28.9925842285156
-27.5620288848877
-26.9898052215576
-29.8509159088135
-36.431468963623
-30.6138782501221
-22.5074005126953
-24.3194370269775
-24.2240657806396
-24.7962875366211
-24.0333251953125
-22.4120292663574
-25.177770614624
-18.5018463134766
-4.38703584671021
-1.23981440067291
-3.147221326828
-2.1935179233551
-4.95925760269165
-8.67870044708252
-6.48518323898315
-6.6759238243103
-14.5916624069214
-20.6953639984131
-24.3194370269775
-26.7990646362305
-22.9842510223389
-14.1148099899292
-6.86666440963745
-11.1583299636841
-12.9703664779663
3.8148136138916
20.3138828277588
17.8342533111572
7.6296272277832
5.53147983551025
3.147221326828
-6.77129411697388
-16.7851791381836
-24.2240657806396
-19.9324016571045
-8.0111083984375
0.381481349468231
8.67870044708252
12.7796258926392
17.9296245574951
26.0361022949219
28.4203605651855
36.1453590393066
34.810173034668
21.3629570007324
14.1148099899292
6.48518323898315
2.8611102104187
5.1499981880188
3.71944332122803
11.7305517196655
19.8370304107666
20.1231422424316
23.1749935150146
23.5564746856689
23.8425846099854
29.4694347381592
37.8620262145996
52.1675758361816
57.9851684570313
45.5870208740234
35.382396697998
39.9601707458496
42.5351715087891
40.8185043334961
43.3935050964355
31.9490642547607
22.6981410980225
37.2898025512695
45.3962821960449
42.5351715087891
32.9027671813965
17.4527721405029
15.4499950408936
11.2537002563477
-1.04907369613647
-3.147221326828
-4.57777643203735
-15.9268465042114
-23.6518440246582
-13.8286991119385
1.71666610240936
11.635181427002
10.1092557907104
0
-2.38425850868225
-3.147221326828
-2.00277709960938
4.57777643203735
-3.8148136138916
-23.7472152709961
-41.7722091674805
-53.7888717651367
-46.0638732910156
-35.1916542053223
-41.4860992431641
-41.8675804138184
-34.2379531860352
-31.0907306671143
-19.2648086547852
-10.0138854980469
-17.0712909698486
-21.3629570007324
-21.2675857543945
-30.4231376647949
-33.0935096740723
-20.1231422424316
-12.4935140609741
-4.38703584671021
3.71944332122803
-11.4444408416748
-29.9462871551514
-36.6222114562988
-49.4018363952637
-92.5092315673828
-170.80827331543
-236.709182739258
-268.086029052734
-288.495269775391
-299.653594970703
-300.225830078125
-291.833251953125
-256.260101318359
-205.1416015625
-154.595321655273
-65.5194244384766
62.4675712585449
172.620315551758
268.753631591797
397.980438232422
544.660034179688
686.09423828125
849.177490234375
988.132080078125
1028.56909179688
1019.60430908203
1011.68853759766
991.5654296875
933.580261230469
781.273803710938
533.501708984375
279.72119140625
98.4221878051758
-37.4805450439453
-174.623092651367
-282.486938476563
-346.1943359375
-385.773010253906
-409.901733398438
-413.621154785156
-403.321166992188
-395.786895751953
-384.056365966797
-371.753570556641
-376.235992431641
-382.625793457031
-372.993408203125
-354.300811767578
-341.616546630859
-338.660064697266
-334.845275878906
-318.155456542969
-304.708221435547
-310.239715576172
-308.904541015625
-293.645263671875
-283.631378173828
-273.331390380859
-261.123992919922
-249.679550170898
-231.940673828125
-213.057342529297
-198.370300292969
-178.914764404297
-159.363830566406
-146.202728271484
-131.706436157227
-119.212921142578
-105.956443786621
-89.4573822021484
-80.8740463256836
-72.3860855102539
-60.3694267272949
-50.6416511535645
-37.6712837219238
-24.7962875366211
-21.2675857543945
-16.2129573822021
-3.147221326828
-0.572222054004669
-3.62407302856445
-1.62129580974579
-3.147221326828
1.81203651428223
23.7472152709961
43.4888763427734
44.1564674377441
39.5786895751953
42.2490615844727
47.1129493713379
51.9768333435059
59.9879455566406
65.0425720214844
60.7509078979492
57.1268348693848
61.8953514099121
57.0314636230469
37.3851737976074
26.0361022949219
22.9842510223389
25.7499923706055
37.099063873291
42.9166526794434
47.1129493713379
55.9823913574219
57.5083160400391
50.6416511535645
56.7453536987305
68.3805313110352
73.4351654052734
83.3536758422852
92.6999740600586
92.7953414916992
89.0758972167969
90.6971969604492
93.1768188476563
89.7434921264648
87.8360824584961
80.3971939086914
67.8083114624023
65.805534362793
68.8573837280273
72.0046081542969
74.4842376708984
79.5388641357422
88.5990447998047
91.0786743164063
90.1249694824219
94.9888610839844
99.3758926391602
96.8962631225586
98.4221878051758
96.13330078125
80.778678894043
74.3888626098633
79.729606628418
80.111083984375
75.3425674438477
70.7647933959961
65.6147918701172
61.0370178222656
61.323127746582
55.1240577697754
48.066650390625
53.9796104431152
56.4592399597168
51.2138710021973
46.7314682006836
42.1536903381348
47.3036880493164
48.5435028076172
30.3277683258057
27.5620288848877
42.9166526794434
39.6740608215332
25.3685111999512
17.9296245574951
18.3111057281494
18.5018463134766
10.7768487930298
4.10092449188232
5.34073925018311
4.29166507720947
1.9074068069458
15.7361059188843
28.9925842285156
22.125919342041
20.6953639984131
28.4203605651855
29.1833248138428
29.5648059844971
27.0851764678955
16.2129573822021
5.53147983551025
4.7685170173645
11.5398111343384
11.0629596710205
8.3925895690918
3.91018390655518
-7.91573810577393
-15.35462474823
-21.839807510376
-15.2592544555664
4.86388731002808
6.29444265365601
2.28888821601868
6.38981294631958
6.00833129882813
2.28888821601868
-0.190740674734116
-3.147221326828
-5.81759071350098
-10.6814785003662
-22.125919342041
-35.2870254516602
-42.3444290161133
-37.8620262145996
-28.5157318115234
-28.0388793945313
-29.278694152832
-20.5046234130859
-16.30832862854
-25.9407329559326
-35.9546165466309
-41.7722091674805
-49.5925750732422
-52.5490570068359
-44.5379486083984
-39.3879508972168
-38.2435073852539
-30.4231376647949
-27.5620288848877
-32.3305435180664
-33.4749908447266
-30.5185089111328
-19.1694374084473
-8.48795986175537
-8.77407169342041
-7.15277528762817
-6.1037015914917
-12.4935140609741
-12.6842555999756
-5.43610954284668
-0.381481349468231
-5.34073925018311
-13.4472179412842
-14.7824029922485
-20.8861045837402
-23.6518440246582
-19.5509204864502
-23.5564746856689
-23.4611034393311
-17.738883972168
-16.022216796875
-16.4036979675293
-27.3712882995605
-32.9981384277344
-24.891658782959
-30.8999900817871
-39.9601707458496
-30.5185089111328
-21.1722145080566
-18.0249938964844
-19.1694374084473
-21.5536975860596
-14.687032699585
-10.204626083374
-17.738883972168
-20.2185115814209
-15.7361059188843
-13.3518476486206
-8.58333015441895
0
7.53425693511963
2.09814739227295
-13.0657367706299
-13.7333288192749
-4.38703584671021
-0.9537034034729
-6.38981294631958
-10.5861072540283
-3.33796191215515
1.04907369613647
0.667592406272888
-2.1935179233551
-7.34351634979248
-3.91018390655518
-4.00555419921875
-10.7768487930298
-14.8777732849121
-18.787956237793
-18.787956237793
-20.7907333374023
-18.5972156524658
-4.29166507720947
0.858333051204681
0.572222054004669
7.43888664245605
9.82314491271973
10.5861072540283
4.67314672470093
-11.2537002563477
-12.6842555999756
-6.1037015914917
-9.44166374206543
-9.82314491271973
2.67036962509155
13.1611070632935
14.7824029922485
15.0685138702393
10.1092557907104
2.67036962509155
-1.52592539787292
-4.95925760269165
-11.635181427002
-20.9814739227295
-21.0768451690674
-19.360179901123
-29.0879535675049
-35.4777679443359
-32.7120246887207
-29.3740653991699
-26.6083240509033
-19.9324016571045
-13.8286991119385
-19.7416610717773
-32.5212860107422
-31.9490642547607
-21.839807510376
-19.7416610717773
-20.409252166748
-13.1611070632935
-1.52592539787292
7.43888664245605
17.5481433868408
29.3740653991699
35.4777679443359
34.1425819396973
21.7444381713867
4.67314672470093
-1.81203651428223
0.9537034034729
0.190740674734116
-6.58055353164673
-9.82314491271973
-17.5481433868408
-29.0879535675049
-18.0249938964844
4.57777643203735
14.4009208679199
17.1666603088379
17.8342533111572
23.0796222686768
35.0009155273438
44.0610961914063
45.1101722717285
39.1018409729004
40.1509132385254
42.3444290161133
41.6768379211426
39.5786895751953
22.2212886810303
13.256477355957
18.1203651428223
7.53425693511963
-4.10092449188232
-3.5287024974823
-2.47962880134583
0.572222054004669
-1.62129580974579
-19.360179901123
-29.4694347381592
-18.8833274841309
-16.4036979675293
-29.1833248138428
-40.3416519165039
-52.453685760498
-56.1731300354004
-46.5407257080078
-44.6333198547363
-41.4860992431641
-36.431468963623
-36.8129501342773
-31.3768424987793
-38.0527648925781
-49.0203552246094
-40.1509132385254
-30.0416564941406
-30.5185089111328
-35.6685066223145
-40.3416519165039
-34.6194343566895
-26.0361022949219
-26.4175834655762
-24.891658782959
-18.3111057281494
-13.8286991119385
-12.2074031829834
-16.1175880432129
-19.6462898254395
-16.9759197235107
-5.34073925018311
3.91018390655518
-3.62407302856445
-5.53147983551025
7.15277528762817
16.2129573822021
9.06018257141113
-10.2999963760376
-30.8999900817871
-77.1546020507813
-157.361053466797
-226.218444824219
-259.407318115234
-263.698974609375
-258.930480957031
-261.123992919922
-257.881408691406
-231.654556274414
-186.544387817383
-118.926811218262
-21.5536975860596
89.1712646484375
199.514755249023
318.34619140625
457.682250976563
589.9609375
720.332153320313
891.617309570313
1018.17376708984
1028.56909179688
1020.08117675781
1034.57739257813
1014.26354980469
917.653381347656
722.048828125
462.260040283203
233.657333374023
70.0971984863281
-70.5740509033203
-205.809188842773
-321.493408203125
-397.408203125
-437.082275390625
-463.213745117188
-466.742431640625
-451.483184814453
-444.998016357422
-447.477630615234
-449.766510009766
-449.385040283203
-441.278564453125
-423.253570556641
-410.187835693359
-404.751708984375
-385.200805664063
-361.930450439453
-351.344329833984
-343.142486572266
-326.548034667969
-293.549896240234
-259.407318115234
-243.57585144043
-233.848068237305
-213.62956237793
-192.45735168457
-183.969390869141
-175.004577636719
-160.603652954102
-149.63606262207
-136.474960327148
-126.747184753418
-117.400886535645
-92.318489074707
-79.5388641357422
-78.2036819458008
-60.5601654052734
-47.8759117126465
-43.5842437744141
-34.7148017883301
-29.4694347381592
-27.657398223877
-25.5592517852783
-29.1833248138428
-26.8944358825684
-7.82036781311035
17.4527721405029
30.5185089111328
24.7962875366211
19.9324016571045
18.5018463134766
14.0194396972656
21.5536975860596
32.4259147644043
30.8046188354492
30.8046188354492
36.6222114562988
48.3527641296387
64.3749771118164
76.4870147705078
87.4546051025391
98.5175628662109
102.237007141113
89.6481170654297
69.1434936523438
60.0833129882813
57.8897972106934
58.1759071350098
68.6666412353516
80.778678894043
80.778678894043
71.5277557373047
68.9527587890625
79.1573791503906
85.9286727905273
82.3999710083008
80.5879364013672
77.6314544677734
69.1434936523438
66.0916442871094
72.0046081542969
78.012939453125
77.1546020507813
66.5684967041016
57.7944259643555
64.3749771118164
73.3397903442383
77.345344543457
74.5796051025391
68.5712738037109
73.8166427612305
78.7759017944336
70.9555358886719
57.9851684570313
51.4999847412109
59.6064605712891
61.4184989929199
56.3638725280762
65.0425720214844
78.1083068847656
83.8305282592773
82.6860809326172
85.9286727905273
95.2749710083008
89.8388595581055
86.9777526855469
93.6536712646484
89.6481170654297
89.8388595581055
100.615707397461
108.436073303223
109.294410705566
99.7573776245117
92.8907089233398
93.2721939086914
85.0703430175781
73.0536804199219
67.903678894043
70.0971984863281
79.6342315673828
80.3971939086914
65.805534362793
57.3175735473633
50.9277610778809
45.7777633666992
47.1129493713379
38.6249885559082
29.0879535675049
23.7472152709961
18.6925868988037
10.0138854980469
-3.71944332122803
-0.9537034034729
12.6842555999756
13.6379585266113
12.1120328903198
11.0629596710205
-1.52592539787292
-19.360179901123
-27.0851764678955
-22.2212886810303
-17.1666603088379
-15.7361059188843
-8.10647869110107
0.286111027002335
0.762962698936462
-5.24536848068237
-15.1638841629028
-21.7444381713867
-23.1749935150146
-22.8888816833496
-20.1231422424316
-18.5972156524658
-18.787956237793
-23.2703628540039
-32.6166572570801
-26.226842880249
-13.0657367706299
-15.7361059188843
-17.357400894165
-9.82314491271973
-8.29721927642822
-18.787956237793
-22.6027698516846
-15.8314762115479
-15.5453653335571
-18.6925868988037
-18.4064750671387
-16.1175880432129
-25.3685111999512
-38.8157272338867
-32.3305435180664
-30.4231376647949
-39.4833221435547
-36.1453590393066
-33.761100769043
-32.3305435180664
-35.1916542053223
-47.5897979736328
-46.9222068786621
-45.2055397033691
-56.0777587890625
-60.274055480957
-52.7397994995117
-40.6277656555176
-36.2407302856445
-38.9110984802246
-37.9573936462402
-35.8592491149902
-36.6222114562988
-35.5731353759766
-27.8481388092041
-23.9379558563232
-26.5129547119141
-28.6111011505127
-29.8509159088135
-22.6027698516846
-14.2101802825928
-20.2185115814209
-27.3712882995605
-28.8972129821777
-26.8944358825684
-20.8861045837402
-20.2185115814209
-22.2212886810303
-25.7499923706055
-32.7120246887207
-36.431468963623
-37.3851737976074
-32.9027671813965
-20.1231422424316
-13.4472179412842
-18.0249938964844
-20.6953639984131
-19.8370304107666
-20.5999927520752
-17.5481433868408
-12.6842555999756
-16.4036979675293
-29.5648059844971
-33.0935096740723
-27.0851764678955
-32.7120246887207
-36.431468963623
-33.0935096740723
-36.6222114562988
-27.8481388092041
-13.256477355957
-7.0574049949646
1.81203651428223
6.1037015914917
3.24259161949158
1.71666610240936
-3.5287024974823
-12.302773475647
-15.6407356262207
-15.7361059188843
-13.7333288192749
-7.6296272277832
-0.858333051204681
10.5861072540283
14.9731435775757
4.48240613937378
1.62129580974579
0.667592406272888
-8.0111083984375
-14.1148099899292
-26.5129547119141
-30.2323970794678
-19.1694374084473
-16.1175880432129
-18.5972156524658
-23.6518440246582
-21.1722145080566
-1.43055510520935
16.1175880432129
13.256477355957
-2.8611102104187
-11.3490705490112
-13.7333288192749
-20.3138828277588
-26.8944358825684
-28.5157318115234
-28.6111011505127
-30.5185089111328
-31.6629524230957
-32.9981384277344
-32.3305435180664
-30.70924949646
-30.995361328125
-25.6546211242676
-24.7009181976318
-28.5157318115234
-22.9842510223389
-17.1666603088379
-20.0277709960938
-25.2731399536133
-22.3166599273682
-6.00833129882813
4.38703584671021
0
-2.67036962509155
7.15277528762817
16.8805503845215
14.687032699585
18.3111057281494
26.3222141265869
20.7907333374023
16.1175880432129
18.787956237793
20.5046234130859
16.30832862854
8.29721927642822
14.1148099899292
24.1286964416504
23.1749935150146
26.8944358825684
30.70924949646
23.9379558563232
25.177770614624
33.3796195983887
29.9462871551514
21.9351787567139
19.4555492401123
21.1722145080566
18.6925868988037
4.7685170173645
-9.63240432739258
-6.29444265365601
7.15277528762817
7.53425693511963
4.00555419921875
6.00833129882813
1.52592539787292
-0.762962698936462
0
-7.82036781311035
-10.204626083374
-9.72777462005615
-14.9731435775757
-10.6814785003662
-11.4444408416748
-16.6898097991943
-6.6759238243103
-4.1962947845459
-5.91296100616455
-1.23981440067291
-11.0629596710205
-18.5972156524658
-8.67870044708252
0.190740674734116
10.1092557907104
11.4444408416748
-0.762962698936462
1.23981440067291
10.8722190856934
7.91573810577393
4.7685170173645
6.86666440963745
5.91296100616455
12.3981437683105
21.5536975860596
13.0657367706299
13.6379585266113
24.7009181976318
17.5481433868408
14.3055505752563
24.6055469512939
26.5129547119141
25.4638805389404
31.5675830841064
31.0907306671143
16.1175880432129
1.23981440067291
-34.0472106933594
-117.400886535645
-197.035125732422
-227.458267211914
-241.38232421875
-260.5517578125
-269.135101318359
-257.404541015625
-236.804550170898
-214.774002075195
-162.129577636719
-67.9990539550781
39.197208404541
145.344390869141
250.919357299805
368.224884033203
500.408172607422
639.553527832031
804.353454589844
951.986755371094
988.799682617188
974.112670898438
995.857116699219
1002.15155029297
944.833984375
801.015502929688
558.011840820313
312.623962402344
156.693466186523
19.360179901123
-144.199951171875
-274.285095214844
-367.4619140625
-428.022094726563
-449.575775146484
-457.682250976563
-464.072082519531
-464.167449951172
-451.673919677734
-444.902648925781
-457.586883544922
-459.685028076172
-435.174865722656
-411.427642822266
-407.708190917969
-400.555419921875
-380.3369140625
-369.750793457031
-363.360992431641
-345.145263671875
-319.013793945313
-291.928619384766
-273.998992919922
-265.224914550781
-256.260101318359
-236.709182739258
-210.673080444336
-203.806411743164
-207.525863647461
-196.462905883789
-179.105499267578
-164.51383972168
-151.257354736328
-134.56755065918
-108.912925720215
-87.1684875488281
-74.9610900878906
-63.9934997558594
-56.7453536987305
-51.6907234191895
-39.7694320678711
-24.7009181976318
-10.6814785003662
-2.00277709960938
8.20184898376465
18.5972156524658
19.9324016571045
27.4666576385498
39.2925796508789
43.3935050964355
42.0583190917969
42.0583190917969
47.4944305419922
49.3064651489258
45.4916534423828
42.3444290161133
53.0259094238281
69.4296035766602
66.2823867797852
65.4240493774414
86.4055252075195
94.03515625
81.3508987426758
77.6314544677734
75.0564575195313
68.3805313110352
63.8981285095215
54.5518341064453
53.9796104431152
64.2796096801758
65.137939453125
58.5573883056641
55.0286865234375
50.6416511535645
48.6388740539551
52.2629470825195
50.5462799072266
39.6740608215332
38.3388748168945
54.7425765991211
59.9879455566406
49.9740562438965
50.6416511535645
57.6036834716797
63.039794921875
65.3286819458008
62.3722038269043
69.0481262207031
72.5768280029297
63.9934997558594
64.8518295288086
79.729606628418
89.1712646484375
80.9694213867188
71.9092330932617
67.9990539550781
62.3722038269043
64.756462097168
72.8629379272461
74.9610900878906
70.8601608276367
68.6666412353516
65.5194244384766
57.5083160400391
55.887020111084
64.0888671875
66.2823867797852
60.9416465759277
68.1897964477539
82.3999710083008
89.5527496337891
86.4055252075195
74.2934951782227
66.2823867797852
67.4268264770508
71.3370132446289
72.4814605712891
70.0971984863281
71.9092330932617
79.06201171875
81.16015625
74.0073852539063
67.4268264770508
67.3314590454102
57.8897972106934
39.9601707458496
38.2435073852539
40.6277656555176
26.8944358825684
19.2648086547852
23.0796222686768
21.1722145080566
23.4611034393311
29.8509159088135
29.8509159088135
36.9083213806152
41.0092468261719
30.8999900817871
19.8370304107666
16.30832862854
24.891658782959
27.1805477142334
17.357400894165
16.4990692138672
21.0768451690674
14.7824029922485
7.34351634979248
13.9240694046021
23.6518440246582
23.1749935150146
19.6462898254395
18.8833274841309
10.6814785003662
-5.1499981880188
-8.29721927642822
-5.53147983551025
-14.9731435775757
-19.8370304107666
-13.3518476486206
-14.5916624069214
-23.9379558563232
-19.7416610717773
-11.3490705490112
-20.1231422424316
-19.5509204864502
-2.95648050308228
-1.9074068069458
-9.82314491271973
-14.4009208679199
-22.0305480957031
-27.3712882995605
-35.4777679443359
-47.5897979736328
-52.8351669311523
-56.0777587890625
-51.0231323242188
-40.4370231628418
-40.3416519165039
-45.4916534423828
-47.8759117126465
-47.3990592956543
-43.3935050964355
-34.0472106933594
-26.1314735412598
-21.5536975860596
-15.6407356262207
-13.4472179412842
-18.3111057281494
-23.5564746856689
-22.4120292663574
-25.0823993682861
-34.4286918640137
-34.2379531860352
-32.8073959350586
-37.2898025512695
-40.8185043334961
-42.3444290161133
-38.6249885559082
-38.4342460632324
-42.4398002624512
-33.0935096740723
-25.8453617095947
-32.4259147644043
-33.2842483520508
-29.6601753234863
-31.4722118377686
-35.8592491149902
-35.7638778686523
-28.6111011505127
-22.9842510223389
-28.4203605651855
-39.7694320678711
-42.1536903381348
-33.8564720153809
-31.4722118377686
-30.0416564941406
-19.8370304107666
-21.1722145080566
-31.0907306671143
-35.9546165466309
-38.8157272338867
-41.1999855041504
-40.8185043334961
-36.7175827026367
-37.5759124755859
-38.148136138916
-33.1888771057129
-35.5731353759766
-40.3416519165039
-39.4833221435547
-42.4398002624512
-40.913875579834
-34.810173034668
-36.1453590393066
-24.4148063659668
-9.72777462005615
-13.5425882339478
-14.5916624069214
-9.63240432739258
-15.0685138702393
-27.3712882995605
-30.8046188354492
-31.6629524230957
-30.70924949646
-29.278694152832
-38.6249885559082
-38.9110984802246
-26.7036952972412
-22.2212886810303
-15.1638841629028
-11.2537002563477
-15.7361059188843
-8.58333015441895
4.67314672470093
11.5398111343384
8.10647869110107
1.71666610240936
4.86388731002808
5.53147983551025
-4.7685170173645
-5.62685012817383
5.05462789535522
9.72777462005615
6.19907188415527
2.95648050308228
1.43055510520935
-9.25092315673828
-13.8286991119385
4.48240613937378
17.8342533111572
14.687032699585
15.6407356262207
21.7444381713867
15.2592544555664
11.8259220123291
17.9296245574951
4.67314672470093
-4.48240613937378
7.82036781311035
12.588885307312
18.4064750671387
30.1370277404785
35.0009155273438
41.8675804138184
45.8731346130371
45.1101722717285
45.300910949707
39.0064697265625
27.7527694702148
16.4036979675293
16.4990692138672
26.7036952972412
22.2212886810303
15.7361059188843
21.2675857543945
23.5564746856689
21.5536975860596
19.6462898254395
14.687032699585
8.96481227874756
12.9703664779663
8.0111083984375
-16.4990692138672
-20.6953639984131
-2.5749990940094
-3.91018390655518
-20.5999927520752
-29.7555465698242
-27.1805477142334
-22.5074005126953
-26.3222141265869
-29.7555465698242
-35.4777679443359
-45.9685020446777
-46.3499870300293
-36.6222114562988
-37.099063873291
-40.913875579834
-24.891658782959
-17.357400894165
-22.6027698516846
-9.44166374206543
-0.0953703373670578
-9.82314491271973
-14.5916624069214
-13.7333288192749
-12.7796258926392
-2.76573991775513
4.48240613937378
2.8611102104187
6.1037015914917
5.91296100616455
-6.77129411697388
-18.1203651428223
-20.8861045837402
-18.0249938964844
-11.4444408416748
-6.19907188415527
-6.00833129882813
-6.86666440963745
-6.29444265365601
-3.8148136138916
4.00555419921875
0.381481349468231
-18.5018463134766
-40.7231369018555
-95.4657135009766
-174.813827514648
-224.787887573242
-233.848068237305
-225.932342529297
-225.932342529297
-218.398071289063
-190.931427001953
-154.690689086914
-102.904594421387
-29.6601753234863
79.9203414916992
198.847152709961
283.345275878906
379.383209228516
509.659088134766
638.79052734375
774.025695800781
872.638610839844
883.320068359375
882.175659179688
900.772888183594
892.666381835938
835.062683105469
674.172912597656
419.629486083984
205.427719116211
83.1629333496094
-27.4666576385498
-159.077728271484
-277.813812255859
-363.647094726563
-420.583190917969
-443.185974121094
-423.444305419922
-400.173950195313
-389.873962402344
-367.652648925781
-354.5869140625
-360.404510498047
-353.347106933594
-334.940643310547
-320.539703369141
-318.536926269531
-320.4443359375
-310.144348144531
-296.697113037109
-287.827697753906
-281.914733886719
-278.099914550781
-270.088806152344
-252.063812255859
-230.319366455078
-218.684188842773
-208.002716064453
-187.974945068359
-172.620315551758
-157.551803588867
-136.188842773438
-128.082366943359
-119.022186279297
-95.751823425293
-81.2555313110352
-75.247200012207
-68.5712738037109
-65.2333145141602
-57.8897972106934
-42.1536903381348
-25.6546211242676
-13.256477355957
-16.30832862854
-28.1342506408691
-22.6981410980225
-10.3953666687012
-9.63240432739258
-7.15277528762817
1.04907369613647
4.67314672470093
7.15277528762817
10.9675893783569
19.7416610717773
31.5675830841064
36.2407302856445
33.4749908447266
28.6111011505127
27.943510055542
37.099063873291
51.2138710021973
62.5629425048828
66.854606628418
62.2768325805664
48.6388740539551
37.4805450439453
38.4342460632324
48.5435028076172
58.8434982299805
59.2249794006348
60.7509078979492
70.0018310546875
74.2934951782227
73.6259002685547
69.7157211303711
65.5194244384766
69.6203460693359
74.7703475952148
75.247200012207
66.1870193481445
54.5518341064453
52.8351669311523
42.7259140014648
33.3796195983887
46.1592445373535
58.4620170593262
63.5166473388672
72.8629379272461
75.6286773681641
69.6203460693359
67.9990539550781
64.0888671875
54.6472053527832
52.453685760498
54.8379440307617
56.2685012817383
65.9009017944336
76.296272277832
81.0647888183594
84.5934906005859
89.4573822021484
103.858299255371
109.580520629883
99.7573776245117
102.52311706543
104.525894165039
98.1360778808594
103.667556762695
109.103668212891
105.002746582031
97.4684906005859
85.8333053588867
80.5879364013672
73.0536804199219
58.5573883056641
56.6499824523926
52.3583183288574
39.6740608215332
37.0036926269531
35.8592491149902
32.04443359375
33.1888771057129
30.8999900817871
23.2703628540039
23.1749935150146
26.1314735412598
20.5046234130859
9.15555286407471
1.43055510520935
3.8148136138916
7.91573810577393
2.5749990940094
0.47685170173645
7.24814605712891
2.95648050308228
-6.6759238243103
-1.81203651428223
4.48240613937378
3.43333220481873
3.71944332122803
-2.00277709960938
-14.5916624069214
-17.738883972168
-6.29444265365601
1.9074068069458
-4.38703584671021
-9.72777462005615
-15.8314762115479
-30.3277683258057
-35.8592491149902
-31.5675830841064
-30.0416564941406
-23.0796222686768
-16.9759197235107
-16.4036979675293
-7.43888664245605
-1.71666610240936
3.71944332122803
5.05462789535522
-7.91573810577393
-13.6379585266113
-14.9731435775757
-23.2703628540039
-22.125919342041
-4.95925760269165
6.58055353164673
3.05185079574585
3.71944332122803
3.71944332122803
-8.29721927642822
-10.1092557907104
-4.67314672470093
-0.667592406272888
8.77407169342041
8.77407169342041
-4.1962947845459
-14.1148099899292
-17.738883972168
-18.2157344818115
-19.7416610717773
-22.2212886810303
-30.0416564941406
-46.7314682006836
-57.5083160400391
-52.6444282531738
-45.7777633666992
-44.6333198547363
-41.7722091674805
-38.6249885559082
-37.3851737976074
-36.9083213806152
-43.8703575134277
-51.6907234191895
-47.1129493713379
-35.2870254516602
-24.3194370269775
-22.125919342041
-25.9407329559326
-23.1749935150146
-26.8944358825684
-34.6194343566895
-29.5648059844971
-31.8536930084229
-41.1999855041504
-39.4833221435547
-32.1398048400879
-22.3166599273682
-18.1203651428223
-16.4990692138672
-1.71666610240936
4.10092449188232
-5.34073925018311
-0.667592406272888
-0.9537034034729
-24.891658782959
-39.3879508972168
-28.5157318115234
-14.4009208679199
-17.8342533111572
-28.0388793945313
-29.278694152832
-27.8481388092041
-24.7962875366211
-16.4990692138672
-16.2129573822021
-21.3629570007324
-21.1722145080566
-19.4555492401123
-18.787956237793
-22.2212886810303
-20.6953639984131
-9.44166374206543
0.667592406272888
7.53425693511963
4.7685170173645
4.00555419921875
10.3953666687012
2.67036962509155
-13.0657367706299
-19.6462898254395
-12.0166625976563
0.381481349468231
3.05185079574585
2.38425850868225
8.86944198608398
11.3490705490112
-4.38703584671021
-22.3166599273682
-16.022216796875
2.67036962509155
5.91296100616455
-6.1037015914917
-9.9185152053833
10.2999963760376
27.4666576385498
23.7472152709961
21.6490669250488
26.4175834655762
23.4611034393311
16.022216796875
5.7222204208374
-6.00833129882813
-0.47685170173645
15.5453653335571
15.5453653335571
8.48795986175537
7.82036781311035
11.635181427002
20.9814739227295
24.4148063659668
27.943510055542
32.6166572570801
19.7416610717773
12.0166625976563
27.7527694702148
33.8564720153809
14.687032699585
2.47962880134583
9.44166374206543
5.91296100616455
-8.58333015441895
-15.4499950408936
-21.7444381713867
-23.8425846099854
-10.3953666687012
-1.04907369613647
-17.2620315551758
-35.382396697998
-36.8129501342773
-39.2925796508789
-30.2323970794678
-9.63240432739258
-9.44166374206543
-16.9759197235107
-25.9407329559326
-45.4916534423828
-56.7453536987305
-54.9333152770996
-48.4481315612793
-41.4860992431641
-40.2462844848633
-47.017578125
-43.679615020752
-32.04443359375
-31.1861019134521
-31.8536930084229
-32.6166572570801
-33.3796195983887
-25.177770614624
-16.6898097991943
-19.074068069458
-24.3194370269775
-25.3685111999512
-28.5157318115234
-27.7527694702148
-23.8425846099854
-25.7499923706055
-27.3712882995605
-27.1805477142334
-24.0333251953125
-20.8861045837402
-22.9842510223389
-23.2703628540039
-18.8833274841309
-12.6842555999756
-8.29721927642822
-13.9240694046021
-25.3685111999512
-43.3935050964355
-80.3971939086914
-133.899963378906
-193.124938964844
-231.845291137695
-242.240661621094
-254.638809204102
-250.537887573242
-222.117523193359
-203.901779174805
-176.816604614258
-122.741630554199
-46.3499870300293
69.0481262207031
195.890670776367
289.830474853516
390.446166992188
520.245178222656
645.6572265625
782.322875976563
905.159912109375
945.978393554688
940.446899414063
926.522827148438
903.53857421875
860.049743652344
713.084045410156
473.704467773438
262.745300292969
98.1360778808594
-47.3036880493164
-174.718460083008
-285.634155273438
-364.123962402344
-411.618377685547
-439.180419921875
-438.894317626953
-431.836883544922
-431.264678955078
-414.002655029297
-391.685974121094
-381.576721191406
-367.843414306641
-356.208221435547
-349.913787841797
-340.376739501953
-328.169342041016
-315.580444335938
-309.858245849609
-300.702667236328
-281.628601074219
-265.987884521484
-252.731399536133
-241.000854492188
-228.411956787109
-213.248077392578
-194.36474609375
-166.421249389648
-146.774948120117
-139.336059570313
-131.420333862305
-117.686996459961
-96.2286758422852
-81.2555313110352
-74.4842376708984
-68.7620162963867
-62.8490524291992
-51.6907234191895
-39.5786895751953
-24.0333251953125
-6.00833129882813
-6.48518323898315
-17.8342533111572
-8.96481227874756
9.34629344940186
22.6027698516846
39.1018409729004
48.6388740539551
47.9712791442871
45.8731346130371
47.017578125
51.6907234191895
49.9740562438965
43.3935050964355
40.4370231628418
41.3907279968262
52.3583183288574
65.805534362793
69.1434936523438
70.5740509033203
67.0453491210938
60.7509078979492
58.4620170593262
52.9305381774902
57.1268348693848
63.8981285095215
56.8407211303711
54.8379440307617
62.4675712585449
70.2879409790039
83.7351608276367
93.2721939086914
85.5471954345703
80.3971939086914
84.1166381835938
83.8305282592773
81.0647888183594
74.0073852539063
70.4786834716797
81.16015625
86.0240478515625
83.2583084106445
83.4490509033203
73.6259002685547
61.5138702392578
58.9388694763184
51.3092422485352
45.8731346130371
56.8407211303711
68.2851638793945
69.4296035766602
68.1897964477539
73.2444229125977
82.7814559936523
80.4925689697266
60.0833129882813
42.2490615844727
34.810173034668
32.3305435180664
37.099063873291
34.2379531860352
23.0796222686768
27.943510055542
42.9166526794434
47.3036880493164
41.0092468261719
35.5731353759766
41.2953567504883
40.3416519165039
19.1694374084473
6.77129411697388
13.7333288192749
19.5509204864502
24.7962875366211
30.70924949646
28.4203605651855
32.04443359375
36.0499877929688
27.7527694702148
25.9407329559326
31.5675830841064
35.9546165466309
40.8185043334961
44.3472061157227
46.7314682006836
52.2629470825195
49.783317565918
37.1944313049316
25.4638805389404
11.8259220123291
2.1935179233551
12.6842555999756
27.0851764678955
23.6518440246582
19.2648086547852
20.0277709960938
16.4990692138672
15.8314762115479
21.2675857543945
21.0768451690674
7.43888664245605
-2.8611102104187
-0.858333051204681
5.24536848068237
14.1148099899292
20.2185115814209
14.3055505752563
5.05462789535522
9.537034034729
13.6379585266113
8.3925895690918
8.58333015441895
4.38703584671021
-3.71944332122803
-5.7222204208374
-14.1148099899292
-18.1203651428223
-7.34351634979248
-3.43333220481873
-6.58055353164673
-6.00833129882813
-8.58333015441895
-15.0685138702393
-27.1805477142334
-38.9110984802246
-34.9055442810059
-27.4666576385498
-24.2240657806396
-21.839807510376
-26.1314735412598
-37.099063873291
-44.5379486083984
-34.3333206176758
-17.5481433868408
-17.0712909698486
-24.6055469512939
-18.5972156524658
-5.7222204208374
-6.96203470230103
-18.1203651428223
-21.6490669250488
-19.2648086547852
-18.8833274841309
-18.6925868988037
-29.278694152832
-45.6823921203613
-41.5814666748047
-27.0851764678955
-20.9814739227295
-12.8749961853027
-8.77407169342041
-19.9324016571045
-31.6629524230957
-37.9573936462402
-36.1453590393066
-25.2731399536133
-23.9379558563232
-31.3768424987793
-31.0907306671143
-31.8536930084229
-35.0962867736816
-34.1425819396973
-34.6194343566895
-31.8536930084229
-21.7444381713867
-11.3490705490112
-6.77129411697388
1.62129580974579
7.24814605712891
-1.33518481254578
-2.28888821601868
-2.09814739227295
-16.022216796875
-23.8425846099854
-22.125919342041
-23.1749935150146
-26.9898052215576
-24.3194370269775
-16.7851791381836
-8.10647869110107
0.9537034034729
1.52592539787292
-3.05185079574585
1.43055510520935
17.0712909698486
24.5101776123047
20.5999927520752
19.7416610717773
17.1666603088379
16.1175880432129
20.9814739227295
14.0194396972656
5.81759071350098
7.43888664245605
2.76573991775513
-4.10092449188232
-8.67870044708252
-19.4555492401123
-35.1916542053223
-41.8675804138184
-35.0009155273438
-27.943510055542
-25.6546211242676
-25.7499923706055
-20.409252166748
-6.77129411697388
-10.204626083374
-27.0851764678955
-24.5101776123047
-16.4990692138672
-25.177770614624
-30.995361328125
-30.70924949646
-27.657398223877
-13.0657367706299
-4.48240613937378
-10.6814785003662
-15.6407356262207
-12.7796258926392
-10.204626083374
-16.30832862854
-13.5425882339478
0.9537034034729
0.9537034034729
-2.47962880134583
4.29166507720947
0.858333051204681
-7.15277528762817
-4.7685170173645
-4.48240613937378
-7.24814605712891
-3.33796191215515
-0.9537034034729
-1.71666610240936
-5.91296100616455
-6.38981294631958
4.29166507720947
0.858333051204681
-11.3490705490112
-3.24259161949158
10.2999963760376
16.8805503845215
21.0768451690674
16.022216796875
11.7305517196655
21.6490669250488
31.2814712524414
23.6518440246582
9.15555286407471
5.53147983551025
0.667592406272888
-9.537034034729
-0.762962698936462
11.7305517196655
1.04907369613647
-15.6407356262207
-16.9759197235107
-8.0111083984375
-8.86944198608398
-16.4036979675293
-16.8805503845215
-16.2129573822021
-21.4583263397217
-30.3277683258057
-29.4694347381592
-24.3194370269775
-30.5185089111328
-32.04443359375
-35.8592491149902
-45.7777633666992
-36.8129501342773
-34.6194343566895
-45.5870208740234
-41.4860992431641
-38.0527648925781
-35.8592491149902
-29.7555465698242
-33.9518394470215
-32.6166572570801
-24.3194370269775
-17.738883972168
-15.5453653335571
-17.2620315551758
-6.86666440963745
3.24259161949158
1.43055510520935
1.52592539787292
6.1037015914917
12.4935140609741
16.9759197235107
20.1231422424316
20.9814739227295
16.022216796875
15.5453653335571
15.5453653335571
-7.6296272277832
-50.7370223999023
-103.858299255371
-164.799942016602
-217.635116577148
-253.875839233398
-272.854553222656
-276.478607177734
-268.562866210938
-247.104553222656
-215.346221923828
-165.658279418945
-95.8471908569336
-13.5425882339478
97.849967956543
217.92121887207
322.733215332031
453.772064208984
608.653503417969
765.919189453125
920.705261230469
997.382995605469
987.464477539063
980.120971679688
983.554321289063
955.32470703125
852.706237792969
648.709045410156
398.266540527344
197.607345581055
46.7314682006836
-108.722190856934
-240.237884521484
-332.937866210938
-405.228576660156
-441.469299316406
-458.731323242188
-467.219299316406
-461.687805175781
-462.736877441406
-458.731323242188
-446.905426025391
-440.897094726563
-418.771148681641
-387.108215332031
-369.750793457031
-360.976745605469
-352.774871826172
-340.662841796875
-325.689697265625
-318.060089111328
-311.574890136719
-291.737884521484
-266.178619384766
-256.736968994141
-253.494369506836
-236.518447875977
-221.259185791016
-205.618453979492
-180.917541503906
-162.3203125
-151.161987304688
-148.110137939453
-145.058288574219
-133.518478393555
-121.311073303223
-104.716636657715
-93.9397811889648
-89.6481170654297
-75.3425674438477
-57.3175735473633
-45.6823921203613
-32.9027671813965
-10.9675893783569
6.6759238243103
21.4583263397217
41.962947845459
42.630542755127
29.278694152832
28.5157318115234
35.1916542053223
51.404613494873
62.1814613342285
55.6009063720703
57.9851684570313
61.5138702392578
62.9444236755371
69.2388687133789
71.6231231689453
81.3508987426758
90.0296020507813
87.3592300415039
86.3101577758789
78.5851593017578
68.8573837280273
74.7703475952148
87.7407150268555
91.7462692260742
86.7870101928711
88.4083023071289
93.9397811889648
91.9370040893555
93.1768188476563
90.8879318237305
84.7842330932617
89.7434921264648
88.9805297851563
82.6860809326172
84.6888580322266
89.1712646484375
89.4573822021484
81.7323837280273
82.1138610839844
94.5120086669922
90.5064544677734
75.1518249511719
73.2444229125977
76.7731246948242
81.2555313110352
81.827751159668
73.4351654052734
76.4870147705078
85.7379379272461
76.2009048461914
64.5657196044922
71.7184982299805
78.5851593017578
73.4351654052734
69.3342361450195
78.012939453125
92.986083984375
99.1851501464844
102.52311706543
107.482376098633
102.141632080078
86.6916351318359
84.9749755859375
91.0786743164063
82.6860809326172
68.4759063720703
59.3203506469727
57.1268348693848
60.3694267272949
65.4240493774414
65.7101669311523
53.8842430114746
42.5351715087891
43.1073951721191
50.6416511535645
51.404613494873
48.6388740539551
45.1101722717285
35.5731353759766
34.810173034668
35.0962867736816
28.0388793945313
30.8046188354492
24.7009181976318
3.24259161949158
-4.95925760269165
-3.05185079574585
-6.48518323898315
-4.10092449188232
4.38703584671021
4.57777643203735
-5.05462789535522
-15.6407356262207
-14.687032699585
-8.77407169342041
-4.86388731002808
-0.9537034034729
-4.7685170173645
-8.0111083984375
-1.04907369613647
8.58333015441895
2.1935179233551
-20.6953639984131
-26.7036952972412
-20.2185115814209
-20.3138828277588
-14.687032699585
-3.33796191215515
1.04907369613647
-1.81203651428223
-2.47962880134583
-8.0111083984375
-13.5425882339478
1.43055510520935
6.86666440963745
-1.43055510520935
2.67036962509155
-3.33796191215515
-22.8888816833496
-37.2898025512695
-40.3416519165039
-28.4203605651855
-21.5536975860596
-25.9407329559326
-26.5129547119141
-24.1286964416504
-28.8018417358398
-44.4425773620605
-55.0286865234375
-50.2601699829102
-46.2546157836914
-45.0148010253906
-40.5323944091797
-48.066650390625
-60.6555366516113
-63.3259048461914
-62.5629425048828
-56.8407211303711
-46.7314682006836
-41.4860992431641
-35.0009155273438
-22.2212886810303
-14.3055505752563
-10.4907369613647
-4.48240613937378
-5.7222204208374
-11.5398111343384
-22.0305480957031
-32.5212860107422
-32.9027671813965
-37.1944313049316
-44.0610961914063
-41.7722091674805
-40.4370231628418
-43.4888763427734
-43.1073951721191
-35.0009155273438
-28.8018417358398
-33.6657295227051
-32.5212860107422
-22.6027698516846
-30.8999900817871
-49.8786888122559
-48.3527641296387
-38.4342460632324
-32.4259147644043
-28.4203605651855
-36.2407302856445
-35.0962867736816
-22.9842510223389
-19.5509204864502
-16.022216796875
-18.787956237793
-23.8425846099854
-19.8370304107666
-19.9324016571045
-21.4583263397217
-22.3166599273682
-28.3249912261963
-32.5212860107422
-28.9925842285156
-20.0277709960938
-13.0657367706299
-16.1175880432129
-22.3166599273682
-17.6435127258301
-10.5861072540283
-13.0657367706299
-20.5046234130859
-23.8425846099854
-19.2648086547852
-18.1203651428223
-18.8833274841309
-8.77407169342041
7.34351634979248
19.6462898254395
21.1722145080566
24.9870281219482
41.1046180725098
44.7286911010742
33.1888771057129
31.9490642547607
36.3360977172852
31.6629524230957
26.7990646362305
16.4990692138672
0.47685170173645
-3.62407302856445
1.33518481254578
2.95648050308228
-0.667592406272888
-0.667592406272888
0.572222054004669
-2.09814739227295
0
6.19907188415527
5.43610954284668
0.190740674734116
-2.95648050308228
-12.6842555999756
-15.2592544555664
-1.52592539787292
4.95925760269165
-0.572222054004669
-15.6407356262207
-32.1398048400879
-30.5185089111328
-17.4527721405029
-12.2074031829834
-14.3055505752563
-20.5046234130859
-24.5101776123047
-18.5972156524658
-10.204626083374
-6.48518323898315
-6.1037015914917
-0.190740674734116
10.6814785003662
19.8370304107666
31.4722118377686
36.6222114562988
33.8564720153809
24.891658782959
8.96481227874756
7.91573810577393
17.8342533111572
10.2999963760376
-5.24536848068237
-9.44166374206543
-10.3953666687012
-13.8286991119385
-15.0685138702393
-23.3657341003418
-35.6685066223145
-36.0499877929688
-29.278694152832
-23.7472152709961
-19.8370304107666
-8.67870044708252
11.635181427002
12.7796258926392
-1.71666610240936
-0.0953703373670578
-0.572222054004669
-11.7305517196655
-21.1722145080566
-35.1916542053223
-37.0036926269531
-32.04443359375
-37.5759124755859
-40.2462844848633
-41.1046180725098
-38.9110984802246
-27.7527694702148
-21.1722145080566
-23.2703628540039
-25.4638805389404
-12.9703664779663
2.1935179233551
-5.24536848068237
-13.7333288192749
-7.91573810577393
-5.1499981880188
-5.43610954284668
-3.62407302856445
-6.48518323898315
-11.9212923049927
-14.4009208679199
-14.2101802825928
-9.63240432739258
-7.24814605712891
-16.4990692138672
-28.5157318115234
-34.810173034668
-45.300910949707
-81.0647888183594
-147.061065673828
-209.43327331543
-241.668441772461
-260.742523193359
-276.764739990234
-285.252685546875
-271.519348144531
-231.273071289063
-182.729568481445
-123.886070251465
-37.0036926269531
74.5796051025391
178.437911987305
273.045288085938
404.084136962891
549.142395019531
675.126647949219
838.686767578125
981.07470703125
1006.72930908203
1003.96356201172
1027.32934570313
1027.04321289063
974.2080078125
821.615478515625
573.461853027344
339.995269775391
184.350860595703
48.5435028076172
-105.193481445313
-235.373992919922
-320.062866210938
-376.903594970703
-412.38134765625
-425.065612792969
-422.109130859375
-410.855438232422
-400.650787353516
-409.901733398438
-432.504486083984
-434.507263183594
-410.378570556641
-384.247100830078
-377.285064697266
-385.391540527344
-380.432281494141
-368.987854003906
-368.320251464844
-355.731353759766
-339.136932373047
-332.365631103516
-305.089721679688
-267.13232421875
-243.385101318359
-228.60270690918
-216.204559326172
-196.081420898438
-175.767532348633
-167.088836669922
-160.603652954102
-152.974029541016
-146.774948120117
-131.801803588867
-108.531448364258
-99.948112487793
-97.9453353881836
-80.778678894043
-71.1462707519531
-70.6694183349609
-53.7888717651367
-32.04443359375
-17.2620315551758
-12.302773475647
-13.1611070632935
-6.29444265365601
6.19907188415527
14.5916624069214
13.7333288192749
15.6407356262207
25.3685111999512
28.3249912261963
28.4203605651855
35.5731353759766
41.1999855041504
41.5814666748047
41.3907279968262
39.9601707458496
46.6360969543457
57.6036834716797
61.8953514099121
63.2305335998535
61.7046089172363
59.701831817627
57.6990547180176
55.9823913574219
63.3259048461914
77.1546020507813
84.2120132446289
86.6916351318359
85.9286727905273
78.1083068847656
79.729606628418
78.8712692260742
61.1323890686035
51.9768333435059
55.219425201416
57.6036834716797
62.4675712585449
70.0971984863281
76.1055297851563
88.9805297851563
98.1360778808594
95.5610809326172
98.899040222168
94.5120086669922
83.0675659179688
81.3508987426758
75.6286773681641
76.1055297851563
85.2610855102539
87.2638626098633
86.5962677001953
90.9833068847656
99.7573776245117
103.667556762695
102.713859558105
98.1360778808594
98.2314529418945
111.297187805176
117.400886535645
110.152740478516
107.577743530273
106.433296203613
100.424964904785
93.7490463256836
81.5416412353516
82.9721984863281
103.858299255371
110.438850402832
103.095336914063
99.948112487793
92.8907089233398
79.06201171875
72.2907180786133
70.8601608276367
63.9934997558594
54.3610954284668
44.9194297790527
35.1916542053223
37.5759124755859
54.2657241821289
58.8434982299805
45.3962821960449
36.7175827026367
35.382396697998
32.2351760864258
23.6518440246582
10.8722190856934
10.5861072540283
20.5999927520752
28.6111011505127
35.2870254516602
21.7444381713867
0.572222054004669
0.0953703373670578
3.71944332122803
4.67314672470093
3.33796191215515
-3.71944332122803
-3.43333220481873
-0.0953703373670578
0.572222054004669
3.33796191215515
2.76573991775513
4.00555419921875
4.86388731002808
-7.0574049949646
-22.7935104370117
-24.7009181976318
-18.787956237793
-20.3138828277588
-24.0333251953125
-33.5703582763672
-41.2953567504883
-27.3712882995605
-16.022216796875
-11.8259220123291
-3.91018390655518
-6.58055353164673
-17.0712909698486
-22.4120292663574
-23.2703628540039
-24.6055469512939
-15.7361059188843
-1.14444410800934
-1.9074068069458
-13.8286991119385
-21.839807510376
-19.074068069458
-19.7416610717773
-34.2379531860352
-49.2110939025879
-54.8379440307617
-52.9305381774902
-54.3610954284668
-59.5110931396484
-58.8434982299805
-58.1759071350098
-61.6092376708984
-62.2768325805664
-56.2685012817383
-54.3610954284668
-57.1268348693848
-56.4592399597168
-58.3666496276855
-61.4184989929199
-66.854606628418
-71.3370132446289
-67.8083114624023
-67.8083114624023
-66.5684967041016
-51.4999847412109
-42.2490615844727
-44.1564674377441
-37.8620262145996
-27.7527694702148
-21.4583263397217
-18.3111057281494
-28.2296199798584
-35.6685066223145
-23.6518440246582
-14.687032699585
-14.1148099899292
-13.0657367706299
-15.4499950408936
-23.5564746856689
-34.0472106933594
-38.9110984802246
-46.0638732910156
-54.170352935791
-53.5981292724609
-53.7888717651367
-57.5083160400391
-52.8351669311523
-38.148136138916
-28.6111011505127
-30.995361328125
-27.0851764678955
-14.4962921142578
-10.0138854980469
-7.0574049949646
-5.1499981880188
-14.4962921142578
-17.5481433868408
-11.8259220123291
-19.9324016571045
-26.6083240509033
-22.6027698516846
-25.7499923706055
-28.4203605651855
-29.278694152832
-34.1425819396973
-30.6138782501221
-24.891658782959
-18.3111057281494
-11.4444408416748
-17.9296245574951
-25.0823993682861
-23.1749935150146
-16.2129573822021
-4.29166507720947
-1.14444410800934
-1.43055510520935
-4.10092449188232
-20.2185115814209
-21.5536975860596
-9.537034034729
-8.67870044708252
-7.15277528762817
-0.381481349468231
12.9703664779663
27.1805477142334
21.6490669250488
11.8259220123291
8.20184898376465
0.667592406272888
-1.23981440067291
5.34073925018311
13.256477355957
19.8370304107666
23.3657341003418
29.7555465698242
31.7583236694336
20.7907333374023
7.6296272277832
-0.667592406272888
4.29166507720947
25.6546211242676
36.3360977172852
27.1805477142334
19.7416610717773
17.8342533111572
12.4935140609741
9.72777462005615
13.1611070632935
10.0138854980469
3.43333220481873
8.96481227874756
18.5018463134766
17.8342533111572
14.9731435775757
11.2537002563477
7.72499752044678
9.537034034729
5.62685012817383
-1.62129580974579
-0.9537034034729
0.381481349468231
5.34073925018311
14.687032699585
15.2592544555664
17.2620315551758
24.9870281219482
21.6490669250488
17.6435127258301
26.7990646362305
34.7148017883301
33.9518394470215
32.4259147644043
26.226842880249
16.30832862854
17.4527721405029
22.3166599273682
15.5453653335571
9.34629344940186
14.1148099899292
14.5916624069214
4.57777643203735
-4.29166507720947
-8.3925895690918
-7.15277528762817
-13.256477355957
-24.7962875366211
-20.409252166748
-10.6814785003662
-8.0111083984375
-9.72777462005615
-15.2592544555664
-18.0249938964844
-15.0685138702393
-8.58333015441895
-1.9074068069458
-6.38981294631958
-12.9703664779663
-11.635181427002
-17.2620315551758
-28.0388793945313
-30.4231376647949
-30.5185089111328
-35.9546165466309
-34.810173034668
-26.5129547119141
-27.7527694702148
-38.2435073852539
-35.4777679443359
-21.6490669250488
-20.2185115814209
-26.7036952972412
-24.9870281219482
-22.2212886810303
-27.657398223877
-32.5212860107422
-32.8073959350586
-40.0555419921875
-57.5083160400391
-67.9990539550781
-82.876823425293
-131.134216308594
-191.026794433594
-230.891586303711
-257.595275878906
-273.522125244141
-273.140655517578
-257.690643310547
-233.466598510742
-209.43327331543
-179.200866699219
-115.398109436035
-6.48518323898315
109.96199798584
207.049011230469
312.337860107422
446.810028076172
576.418334960938
713.179382324219
874.927490234375
962.096008300781
961.237670898438
968.581176757813
981.551513671875
961.3330078125
863.578430175781
655.289611816406
407.803558349609
221.068450927734
80.3018264770508
-68.6666412353516
-199.705490112305
-295.648040771484
-369.941558837891
-408.089691162109
-403.893402099609
-395.691528320313
-402.844329833984
-389.683197021484
-367.748016357422
-378.715606689453
-395.882293701172
-384.056365966797
-361.835083007813
-347.911010742188
-341.521179199219
-339.423034667969
-325.975830078125
-308.809173583984
-297.555450439453
-281.723999023438
-274.094360351563
-267.704528808594
-242.812881469727
-218.588821411133
-208.574935913086
-202.85270690918
-197.035125732422
-187.402725219727
-164.990692138672
-138.382369995117
-125.411994934082
-121.69255065918
-115.970336914063
-110.057373046875
-104.239784240723
-93.5583038330078
-83.8305282592773
-79.06201171875
-63.3259048461914
-44.5379486083984
-35.5731353759766
-33.3796195983887
-38.2435073852539
-35.0962867736816
-16.2129573822021
-0.0953703373670578
-3.8148136138916
-9.15555286407471
7.53425693511963
26.7990646362305
30.6138782501221
28.3249912261963
34.6194343566895
50.9277610778809
64.2796096801758
68.4759063720703
60.4647941589355
51.2138710021973
52.7397994995117
58.1759071350098
69.7157211303711
80.778678894043
86.2147903442383
87.5499725341797
76.4870147705078
65.6147918701172
61.6092376708984
65.9962768554688
78.394416809082
78.4897918701172
69.5249786376953
69.4296035766602
70.9555358886719
68.5712738037109
70.1925735473633
67.8083114624023
59.5110931396484
54.6472053527832
59.7972030639648
72.4814605712891
84.1166381835938
84.6888580322266
70.1925735473633
64.756462097168
63.7073860168457
52.453685760498
55.6962776184082
64.0888671875
54.7425765991211
47.9712791442871
47.8759117126465
48.6388740539551
54.5518341064453
55.3147964477539
54.0749816894531
53.3120193481445
46.4453544616699
45.2055397033691
52.3583183288574
57.8897972106934
55.6009063720703
50.355541229248
58.1759071350098
75.247200012207
80.3971939086914
73.2444229125977
71.8138656616211
80.111083984375
84.3073806762695
76.9638671875
70.1925735473633
77.2499771118164
87.4546051025391
88.3129348754883
84.8796005249023
79.6342315673828
75.7240524291992
74.198127746582
66.9499816894531
64.5657196044922
72.2907180786133
81.827751159668
82.3999710083008
65.2333145141602
56.0777587890625
55.887020111084
40.1509132385254
33.761100769043
45.300910949707
48.5435028076172
38.4342460632324
23.7472152709961
15.35462474823
9.9185152053833
5.1499981880188
8.96481227874756
9.25092315673828
-0.762962698936462
0.0953703373670578
14.3055505752563
11.635181427002
0.667592406272888
3.33796191215515
5.53147983551025
0.858333051204681
0
7.0574049949646
8.77407169342041
9.15555286407471
18.4064750671387
13.8286991119385
2.09814739227295
2.28888821601868
-4.7685170173645
-21.2675857543945
-29.1833248138428
-28.6111011505127
-27.1805477142334
-29.9462871551514
-26.9898052215576
-16.6898097991943
-16.9759197235107
-25.0823993682861
-28.4203605651855
-26.226842880249
-25.2731399536133
-23.3657341003418
-21.5536975860596
-30.3277683258057
-32.9027671813965
-25.177770614624
-35.5731353759766
-52.8351669311523
-57.6036834716797
-61.7999801635742
-63.3259048461914
-59.6064605712891
-66.2823867797852
-77.6314544677734
-71.8138656616211
-63.1351661682129
-65.4240493774414
-57.9851684570313
-43.9657249450684
-39.0064697265625
-48.9249839782715
-65.9962768554688
-64.756462097168
-55.6009063720703
-56.0777587890625
-51.404613494873
-38.4342460632324
-31.6629524230957
-42.0583190917969
-59.2249794006348
-59.701831817627
-49.1157264709473
-41.1046180725098
-35.9546165466309
-40.6277656555176
-49.2110939025879
-45.8731346130371
-31.9490642547607
-27.2759170532227
-37.9573936462402
-40.1509132385254
-28.4203605651855
-21.2675857543945
-18.787956237793
-17.8342533111572
-19.9324016571045
-16.8805503845215
-8.29721927642822
0.762962698936462
3.71944332122803
0.190740674734116
1.71666610240936
10.2999963760376
15.5453653335571
8.67870044708252
2.8611102104187
9.63240432739258
15.6407356262207
14.8777732849121
18.9786968231201
21.3629570007324
15.35462474823
11.635181427002
6.77129411697388
0.9537034034729
6.19907188415527
12.588885307312
9.25092315673828
0.0953703373670578
-13.3518476486206
-17.5481433868408
-8.96481227874756
-2.1935179233551
12.3981437683105
23.2703628540039
9.82314491271973
-5.91296100616455
-11.5398111343384
-17.8342533111572
-21.1722145080566
-18.0249938964844
-13.8286991119385
-5.24536848068237
1.71666610240936
-2.1935179233551
-13.0657367706299
-25.3685111999512
-31.7583236694336
-33.8564720153809
-36.6222114562988
-24.7009181976318
-7.82036781311035
-2.1935179233551
0.381481349468231
-9.537034034729
-18.9786968231201
-12.0166625976563
-13.5425882339478
-17.357400894165
-10.5861072540283
-10.7768487930298
-16.4990692138672
-12.302773475647
-5.62685012817383
-8.77407169342041
-14.5916624069214
-10.4907369613647
-4.00555419921875
-10.9675893783569
-14.4009208679199
-2.95648050308228
14.4009208679199
29.8509159088135
35.0962867736816
31.5675830841064
28.1342506408691
32.5212860107422
33.761100769043
31.3768424987793
33.2842483520508
16.2129573822021
-3.62407302856445
-3.91018390655518
-7.24814605712891
-13.9240694046021
-18.9786968231201
-26.3222141265869
-25.7499923706055
-16.8805503845215
-18.9786968231201
-27.5620288848877
-23.9379558563232
-22.3166599273682
-34.7148017883301
-44.6333198547363
-35.8592491149902
-20.9814739227295
-14.4009208679199
-16.4036979675293
-26.3222141265869
-26.4175834655762
-10.9675893783569
-0.858333051204681
-6.00833129882813
-14.1148099899292
-14.3055505752563
-11.7305517196655
-9.537034034729
-6.77129411697388
-2.76573991775513
-1.9074068069458
-10.2999963760376
-10.9675893783569
-5.43610954284668
-12.7796258926392
-13.6379585266113
-5.1499981880188
-11.635181427002
-19.7416610717773
-17.4527721405029
-16.9759197235107
-12.588885307312
-6.1037015914917
-4.10092449188232
-2.5749990940094
-5.62685012817383
-13.8286991119385
-25.5592517852783
-61.0370178222656
-130.46662902832
-194.36474609375
-224.024932861328
-232.417510986328
-237.853622436523
-242.336029052734
-230.319366455078
-202.089752197266
-169.568466186523
-117.877738952637
-26.1314735412598
91.6508941650391
195.699935913086
286.397125244141
402.653564453125
528.923889160156
645.561828613281
782.036804199219
885.513610839844
902.298767089844
906.590454101563
917.939514160156
901.249694824219
838.686767578125
661.202575683594
411.618377685547
224.692520141602
89.6481170654297
-49.783317565918
-177.674942016602
-274.857330322266
-337.420257568359
-374.423950195313
-395.596160888672
-394.165618896484
-386.059143066406
-391.209136962891
-384.8193359375
-360.118408203125
-345.622100830078
-335.41748046875
-315.103607177734
-289.639709472656
-272.854553222656
-271.614715576172
-269.325836181641
-256.832336425781
-247.390655517578
-241.859176635742
-235.183258056641
-237.853622436523
-246.341583251953
-245.578628540039
-230.510116577148
-204.855484008789
-183.301788330078
-171.380493164063
-158.314758300781
-150.780502319336
-151.829574584961
-143.723098754883
-123.886070251465
-105.479598999023
-96.6101531982422
-91.5555267333984
-79.1573791503906
-63.8027572631836
-54.5518341064453
-45.1101722717285
-34.9055442810059
-29.8509159088135
-20.6953639984131
-6.29444265365601
-5.7222204208374
-9.25092315673828
10.8722190856934
30.1370277404785
26.8944358825684
28.3249912261963
34.9055442810059
32.5212860107422
27.5620288848877
23.7472152709961
15.8314762115479
7.72499752044678
12.6842555999756
18.1203651428223
16.7851791381836
27.943510055542
41.962947845459
47.2083168029785
54.4564628601074
55.3147964477539
45.7777633666992
43.2027626037598
46.7314682006836
48.6388740539551
46.4453544616699
43.9657249450684
48.9249839782715
56.0777587890625
60.9416465759277
64.4703521728516
66.5684967041016
57.6990547180176
58.3666496276855
76.3916397094727
70.9555358886719
62.2768325805664
73.4351654052734
75.8194198608398
74.198127746582
73.7212753295898
72.0999755859375
73.7212753295898
69.8110885620117
64.1842422485352
66.0916442871094
75.247200012207
84.4981231689453
87.3592300415039
86.9777526855469
82.6860809326172
69.4296035766602
55.0286865234375
56.7453536987305
61.2277565002441
51.7860946655273
49.3064651489258
58.2712783813477
58.7481307983398
52.8351669311523
49.2110939025879
46.9222068786621
44.1564674377441
38.8157272338867
28.1342506408691
23.3657341003418
35.4777679443359
45.3962821960449
41.8675804138184
39.864803314209
39.3879508972168
39.197208404541
42.5351715087891
42.5351715087891
42.4398002624512
49.4018363952637
60.8462753295898
59.5110931396484
42.4398002624512
41.5814666748047
50.9277610778809
44.7286911010742
36.2407302856445
28.3249912261963
24.3194370269775
34.6194343566895
40.7231369018555
41.3907279968262
43.679615020752
39.4833221435547
35.5731353759766
30.8046188354492
21.0768451690674
21.9351787567139
26.1314735412598
22.9842510223389
23.9379558563232
21.839807510376
20.6953639984131
31.5675830841064
35.2870254516602
24.7962875366211
14.9731435775757
20.5999927520752
27.8481388092041
16.5944385528564
13.1611070632935
18.5972156524658
6.00833129882813
-10.3953666687012
-12.9703664779663
-8.86944198608398
-11.3490705490112
-11.2537002563477
-2.76573991775513
-0.762962698936462
-2.09814739227295
-3.24259161949158
-12.7796258926392
-26.9898052215576
-33.3796195983887
-26.4175834655762
-15.35462474823
-15.7361059188843
-18.787956237793
-14.2101802825928
-20.8861045837402
-36.8129501342773
-47.1129493713379
-52.6444282531738
-50.1647987365723
-46.4453544616699
-46.4453544616699
-47.7805404663086
-50.355541229248
-52.0722045898438
-55.7916488647461
-49.4018363952637
-36.7175827026367
-38.7203598022461
-34.2379531860352
-17.1666603088379
-10.8722190856934
-8.20184898376465
-6.19907188415527
-13.1611070632935
-21.6490669250488
-27.5620288848877
-31.9490642547607
-39.2925796508789
-45.7777633666992
-37.7666549682617
-30.8999900817871
-35.9546165466309
-37.1944313049316
-35.1916542053223
-32.5212860107422
-26.6083240509033
-26.8944358825684
-33.2842483520508
-38.7203598022461
-39.7694320678711
-32.6166572570801
-19.4555492401123
-13.4472179412842
-23.9379558563232
-35.0009155273438
-27.7527694702148
-21.839807510376
-29.4694347381592
-28.8018417358398
-23.5564746856689
-28.4203605651855
-30.995361328125
-24.5101776123047
-20.409252166748
-24.6055469512939
-23.6518440246582
-19.9324016571045
-29.1833248138428
-38.4342460632324
-43.2027626037598
-49.0203552246094
-40.7231369018555
-25.4638805389404
-24.6055469512939
-28.5157318115234
-19.074068069458
-6.58055353164673
-5.81759071350098
-11.3490705490112
-15.1638841629028
-24.1286964416504
-30.3277683258057
-27.0851764678955
-31.5675830841064
-37.3851737976074
-35.7638778686523
-36.0499877929688
-28.3249912261963
-17.738883972168
-15.2592544555664
-9.82314491271973
-2.8611102104187
5.1499981880188
13.256477355957
11.635181427002
5.24536848068237
3.43333220481873
-0.762962698936462
-2.8611102104187
6.38981294631958
11.3490705490112
6.1037015914917
3.5287024974823
3.33796191215515
-3.33796191215515
-1.62129580974579
10.5861072540283
15.4499950408936
25.177770614624
40.2462844848633
38.9110984802246
30.2323970794678
32.8073959350586
34.6194343566895
26.8944358825684
28.3249912261963
29.1833248138428
14.3055505752563
8.77407169342041
14.8777732849121
21.2675857543945
29.7555465698242
30.6138782501221
26.9898052215576
25.0823993682861
27.943510055542
34.6194343566895
29.8509159088135
17.9296245574951
21.4583263397217
34.1425819396973
35.382396697998
28.0388793945313
27.0851764678955
37.3851737976074
44.5379486083984
33.6657295227051
16.30832862854
17.9296245574951
22.5074005126953
8.29721927642822
1.71666610240936
3.71944332122803
-3.91018390655518
-12.2074031829834
-17.8342533111572
-21.7444381713867
-23.4611034393311
-21.839807510376
-23.8425846099854
-33.4749908447266
-35.0009155273438
-37.2898025512695
-52.1675758361816
-57.3175735473633
-51.9768333435059
-42.4398002624512
-27.7527694702148
-23.4611034393311
-27.8481388092041
-25.6546211242676
-23.7472152709961
-28.7064723968506
-31.0907306671143
-28.9925842285156
-32.8073959350586
-39.6740608215332
-39.7694320678711
-32.7120246887207
-21.5536975860596
-15.8314762115479
-20.6953639984131
-26.7036952972412
-32.3305435180664
-38.8157272338867
-38.4342460632324
-32.9981384277344
-29.5648059844971
-22.125919342041
-19.2648086547852
-20.6953639984131
-13.4472179412842
-10.6814785003662
-14.2101802825928
-12.588885307312
-10.6814785003662
-11.2537002563477
-30.3277683258057
-96.13330078125
-186.830490112305
-240.810104370117
-250.728622436523
-257.499908447266
-262.554534912109
-251.491592407227
-232.036041259766
-202.661972045898
-158.791610717773
-88.4083023071289
17.738883972168
133.613845825195
244.529556274414
371.467468261719
512.234069824219
642.509948730469
789.857177734375
951.223754882813
1023.22839355469
1010.63946533203
1008.63671875
1007.39691162109
964.575622558594
845.458068847656
627.059997558594
371.181365966797
173.383270263672
35.0962867736816
-104.812004089355
-241.763809204102
-340.758209228516
-405.323944091797
-437.177642822266
-438.608184814453
-436.319305419922
-441.087829589844
-432.504486083984
-419.820220947266
-425.447082519531
-429.45263671875
-421.346160888672
-408.566528320313
-385.963775634766
-365.840637207031
-358.115631103516
-350.199890136719
-332.842498779297
-308.999908447266
-295.171203613281
-290.498046875
-278.195281982422
-261.219360351563
-243.67121887207
-229.461044311523
-222.212890625
-207.621231079102
-196.65364074707
-200.182342529297
-185.87678527832
-161.080505371094
-150.685134887695
-136.951812744141
-119.880516052246
-104.144409179688
-87.8360824584961
-84.7842330932617
-79.5388641357422
-66.3777542114258
-61.6092376708984
-50.1647987365723
-29.5648059844971
-18.5018463134766
-9.63240432739258
1.52592539787292
8.48795986175537
12.588885307312
12.1120328903198
12.2074031829834
18.8833274841309
29.4694347381592
38.4342460632324
45.1101722717285
56.7453536987305
69.8110885620117
78.012939453125
76.0101623535156
74.7703475952148
78.394416809082
74.2934951782227
72.8629379272461
67.9990539550781
53.9796104431152
50.1647987365723
50.355541229248
47.2083168029785
46.3499870300293
51.0231323242188
59.5110931396484
58.9388694763184
56.1731300354004
64.6610870361328
71.3370132446289
74.6749725341797
74.6749725341797
64.0888671875
64.2796096801758
78.7759017944336
89.2666397094727
98.6129302978516
103.667556762695
93.1768188476563
82.1138610839844
83.7351608276367
89.4573822021484
96.4194107055664
100.043487548828
99.7573776245117
101.855522155762
105.193481445313
111.583297729492
112.632369995117
111.1064453125
108.054595947266
96.4194107055664
88.3129348754883
87.3592300415039
86.5009002685547
81.5416412353516
82.3999710083008
93.6536712646484
104.239784240723
113.20458984375
112.918479919434
102.999969482422
100.901817321777
95.9425582885742
75.8194198608398
57.2222023010254
55.5055389404297
61.323127746582
64.3749771118164
67.903678894043
71.0509033203125
68.3805313110352
61.4184989929199
58.3666496276855
53.7888717651367
45.1101722717285
43.7749862670898
48.3527641296387
49.8786888122559
48.9249839782715
51.404613494873
51.6907234191895
42.2490615844727
32.9981384277344
33.761100769043
42.630542755127
51.7860946655273
57.5083160400391
55.6009063720703
38.3388748168945
23.8425846099854
19.8370304107666
14.2101802825928
11.8259220123291
15.1638841629028
25.4638805389404
39.4833221435547
41.962947845459
25.7499923706055
9.06018257141113
6.29444265365601
-0.0953703373670578
-16.8805503845215
-29.1833248138428
-35.8592491149902
-45.5870208740234
-49.8786888122559
-45.8731346130371
-42.0583190917969
-36.3360977172852
-32.1398048400879
-29.5648059844971
-33.3796195983887
-42.1536903381348
-40.913875579834
-32.6166572570801
-27.0851764678955
-25.2731399536133
-25.7499923706055
-32.5212860107422
-31.6629524230957
-21.4583263397217
-29.1833248138428
-34.3333206176758
-30.4231376647949
-36.0499877929688
-28.9925842285156
-22.4120292663574
-35.5731353759766
-38.3388748168945
-28.0388793945313
-27.657398223877
-34.2379531860352
-40.1509132385254
-41.4860992431641
-43.7749862670898
-52.5490570068359
-57.4129447937012
-55.7916488647461
-49.1157264709473
-42.9166526794434
-49.6879463195801
-62.9444236755371
-62.0860900878906
-56.1731300354004
-59.0342407226563
-56.7453536987305
-58.4620170593262
-67.4268264770508
-66.0916442871094
-60.0833129882813
-58.2712783813477
-59.2249794006348
-61.6092376708984
-68.7620162963867
-65.805534362793
-45.0148010253906
-43.3935050964355
-54.4564628601074
-51.7860946655273
-54.6472053527832
-56.4592399597168
-51.3092422485352
-48.3527641296387
-40.7231369018555
-34.810173034668
-27.943510055542
-13.0657367706299
-10.7768487930298
-26.5129547119141
-33.6657295227051
-34.2379531860352
-33.5703582763672
-18.9786968231201
-12.7796258926392
-23.3657341003418
-34.3333206176758
-42.9166526794434
-47.2083168029785
-50.5462799072266
-48.4481315612793
-43.1073951721191
-42.3444290161133
-36.1453590393066
-27.0851764678955
-20.5046234130859
-13.0657367706299
-6.1037015914917
-6.00833129882813
-11.3490705490112
-7.34351634979248
-4.7685170173645
-7.91573810577393
6.6759238243103
19.6462898254395
8.96481227874756
-1.04907369613647
-2.8611102104187
0.9537034034729
8.3925895690918
10.0138854980469
4.29166507720947
-0.9537034034729
7.24814605712891
25.8453617095947
29.0879535675049
22.3166599273682
29.9462871551514
34.5240631103516
22.8888816833496
11.2537002563477
13.8286991119385
28.9925842285156
37.1944313049316
37.7666549682617
43.2027626037598
50.355541229248
52.453685760498
47.8759117126465
32.8073959350586
20.2185115814209
21.1722145080566
20.6953639984131
11.2537002563477
0.286111027002335
-1.81203651428223
-1.33518481254578
-8.86944198608398
-11.7305517196655
-6.96203470230103
-0.572222054004669
8.29721927642822
13.9240694046021
14.2101802825928
11.5398111343384
4.86388731002808
-5.62685012817383
-6.19907188415527
10.5861072540283
25.9407329559326
24.5101776123047
17.0712909698486
20.2185115814209
32.8073959350586
37.2898025512695
28.1342506408691
25.4638805389404
39.6740608215332
47.3990592956543
44.4425773620605
51.8814659118652
61.1323890686035
54.3610954284668
41.0092468261719
38.7203598022461
40.1509132385254
26.9898052215576
14.4962921142578
16.5944385528564
11.4444408416748
-5.43610954284668
-8.0111083984375
-2.00277709960938
-10.5861072540283
-22.6981410980225
-28.1342506408691
-37.099063873291
-43.1073951721191
