Value(bpm)
79.1752577319588
79.1525009498226
79.1304148970501
79.1096557682744
79.0908784792542
79.0747369418773
79.0618844470789
79.0529741555041
79.0486596960511
79.049595872806
79.0564394813375
79.0698502358507
79.0904918093087
79.119032989331
79.156148953456
79.2024390870489
79.2570524725693
79.3178977092845
79.3828346124783
79.4497106750069
79.5163594018019
79.5805998144266
79.6402371457128
79.6930647443285
79.7368672061815
79.7694247437508
79.7885187957253
79.7919735048091
79.7783197245078
79.7467471715398
79.6964953162275
79.6268331248141
79.5370626290394
79.4265225019075
79.2945916087173
79.1406925008613
78.9642948186745
78.7649185688066
78.5421372412142
78.2956103355862
78.0277176859277
77.745533277678
77.4564411962236
77.1676202255556
76.8860395644883
76.6184674581901
76.3714917861637
76.151551769314
75.9649801598812
75.8180555498023
75.7170647710229
75.6683757666149
75.6779809018124
75.7438181372458
75.8575439446879
76.0107427147876
76.1950013479964
76.4018293882112
76.6225975240685
76.8484947425927
77.0705049194047
77.2794039569142
77.4657787217885
77.6200689643283
77.7326331028765
77.7941600181712
77.8040746576702
77.7713434274315
77.7055317860272
77.6162437862069
77.5130526273435
77.4054549493704
77.3028487229456
77.2145342422103
77.1497376202126
77.1176563131108
77.1275265481831
77.1887130043039
77.307398461627
77.4775528507798
77.6903904588123
77.9370855338729
78.2086822603532
78.4960242688073
78.7897042641297
79.0800349593141
79.3570429167427
79.6104871008652
79.8299039033061
80.0046801616822
80.1271271181174
80.2005009343577
80.2307444938465
80.2239724804899
80.1864101783833
80.1243409600276
80.0440631605622
79.9518567278139
79.8539597880381
79.7565550807842
79.6657660953523
79.5876626851244
79.5271832884048
79.4844600502078
79.4583322482338
79.4476638181652
79.4513388345476
79.4682573333519
79.4973314872817
79.5374821130815
79.5876354944825
79.6467205083436
79.7136660450513
79.7873987173655
79.8674000169946
79.9558551546613
80.0557901784275
80.1702695483279
80.3024059647365
80.4553728788538
80.6324196699414
80.8368896865175
81.0722414071482
81.3420730479656
81.6501510312026
82.0004166760598
82.3925872363673
82.8169241948728
83.2621184710856
83.7163920367646
84.1674484768926
84.6024575596622
85.0080778354695
85.3705213146222
85.6756637698358
85.9092030837109
86.0568673302621
86.1099687689487
86.0779469957287
85.9743908096311
85.8131646116038
85.608202648618
85.3733472170246
85.1222322991253
84.8682122353077
84.6243337828437
84.4033492709669
84.2177684865214
84.0788966983355
83.9853566942623
83.9275427641054
83.89585981625
83.8808042086055
83.8729152950281
83.8627485697354
83.8408701522466
83.7978725091581
83.7244112611419
83.6112626768165
83.4494158210634
83.2360625269808
82.9834734478359
82.7060613718979
82.4179333337962
82.1328331992375
81.8641318042519
81.624861518536
81.4277923064627
81.2855471353397
81.210755869776
81.216248571293
81.3150783860503
81.5090828665223
81.7826792162868
82.1188665091381
82.5003978613786
82.9095430323934
83.3279217380504
83.7364129324096
84.1151477921626
84.443595200842
84.7007478885105
84.865414907773
84.9228693416361
84.8817901106404
84.7567103299206
84.5625536102536
84.3143689343225
84.0271165770937
83.7155077639258
83.3938980103592
83.0762321404609
82.7760378376619
82.5064641857149
82.2801729650918
82.1011275596789
81.9615795031405
81.8531431425621
81.7676032280674
81.6968607052994
81.6328952900284
81.5677441692096
81.4934964194105
81.4023028458258
81.2864009291994
81.1381544289687
80.9506394756762
80.7277287165675
80.4829939927118
80.2301015116638
79.982395885538
79.7528974794282
79.5543427987371
79.3992654571334
79.3001161084852
79.2694210790064
79.3199812938856
79.4651155058081
79.718366413829
80.0785283188525
80.5277353354512
81.0470338170264
81.6168316326041
82.2165801320256
82.8245467682105
83.4176910485019
83.9716607050842
84.4609268797954
84.8590759556348
85.139315618813
85.2863484370023
85.311950622325
85.232709938055
85.0659501771747
84.8293448340463
84.540596587957
84.2171893823227
83.8762150247367
83.5342726103981
83.2074367607424
82.9112896125843
82.6602557574592
82.4569791761691
82.2952040000897
82.1686628587891
82.07126253719
81.9970364916828
81.9401069108328
81.8946557171327
81.8549041135173
81.8151004285449
81.7695161119821
81.7124497807502
81.6394843554561
81.5542443888097
81.4634971243324
81.3739630560653
81.2923046035542
81.2251336900834
81.1790300835641
81.1605703705539
81.1763675956522
81.2331218330751
81.3376822685021
81.4971210289733
81.7151838140819
81.9837750566371
82.2922425940633
82.6297336287601
82.9850989737841
83.3468251906975
83.7029966735749
84.0412903795444
84.3490062050804
84.6131358961178
84.8204727923504
84.9592313653982
85.0305753801639
85.0425964797993
85.0037232343372
84.9225577836255
84.8077820780096
84.6680810197632
84.512083280113
84.3483199881716
84.1852010598898
84.0310086611164
83.8938481688078
83.7776092927269
83.6794207470404
83.595838994573
83.5234651783408
83.4589346123306
83.3989090798461
83.3400718607629
83.2791254306973
83.212791787464
83.1378153636393
83.0509684788408
82.949643234368
82.8363396572923
82.7161454623833
82.5941172879981
82.4752538846813
82.3644971153456
82.2667389069554
82.1868339958146
82.1296183585384
82.0999332987654
82.1026552653953
82.1427311787444
82.2230870989958
82.3396827822628
82.4870575339196
82.6597476281024
82.8522482352738
83.0589824628527
83.2742775731948
83.4923485994192
83.7072896968882
83.9130736441964
84.1035599384569
84.2727218458137
84.4170095045463
84.5345596901325
84.6235698528702
84.6822794148981
84.7089816498041
84.7020359787206
84.6598805503525
84.5810449559211
84.464162915251
84.3079847577961
84.1114140539393
83.8764468229545
83.6108500318738
83.3229350794896
83.0208418297828
82.7125051640256
82.4056375325782
82.1077264961987
81.8260461811304
81.5676816208802
81.3395651052677
81.1485238909896
81.001174780252
80.8980227041048
80.8318770485247
80.7951981968356
80.7805500493783
80.7805526562684
80.7878486960403
80.7950834796722
80.7948983654551
80.7799375720042
80.7428683758535
80.6764145769493
80.5737770873269
80.4368890284101
80.2762919925075
80.1027897341664
79.9270247981633
79.7594592740784
79.6103834258705
79.4899510231544
79.4082404474413
79.3753411710141
79.4014659992278
79.4970905382274
79.6728018116765
79.9296481005587
80.2571131310393
80.644019367375
81.0790147661156
81.5504100580621
82.0460458712026
82.553191760149
83.0584807274803
83.5478839878984
84.006731446899
84.4197843149887
84.7753164709525
85.0746663560078
85.3222258932904
85.52271322528
85.6811165594356
85.8026412136247
85.8926610784122
85.9566754847401
86.0002722433343
86.0290974177965
86.0488322157646
86.0643356479542
86.0760090345129
86.0827788306092
86.0835713441855
86.0773150233536
86.0629420773645
86.0393903586089
86.0056054999451
85.9605432995844
85.90317234347
85.8324768525837
85.7476380010438
85.6495778159529
85.5401855967439
85.4213526547086
85.2949571276132
85.1628603471258
85.0269040459937
84.8889083879756
84.7506707993053
84.6139655777578
84.4805442541459
84.3521415522546
84.2307429597264
84.1187206195967
84.0184598793012
83.9323314228828
83.8626987133934
83.8119267517744
83.7823921735003
83.7764947268204
83.796670202486
83.8454049148704
83.9252518689815
84.037208453393
84.17362003861
84.3238873894196
84.4772791616627
84.6229114685815
84.7497532658577
84.8466603441204
84.9024386963558
84.9059374952846
84.846171055459
84.7124679807734
84.4953870109048
84.1990009374296
83.8385788716509
83.4295886011891
82.9871478577457
82.5258852250516
82.0598567363736
81.6025138825904
81.1667179974393
80.7647959592379
80.4086327165945
80.1097971904074
79.8790161695578
79.7151900660272
79.6075083634886
79.5452206797521
79.5178237000354
79.5149553379184
79.5263172933804
79.5416248167303
79.5505831899082
79.5428908389127
79.508269102088
79.4365185004227
79.3179541433922
79.1525663332339
78.9506764777722
78.7230322607088
78.4802094255667
78.2325588683684
77.9901821455287
77.7629338534119
77.5604492310144
77.392195514072
77.2675459968974
77.1958764154005
77.1866840354382
77.2458265693673
77.3652726392607
77.5339376614078
77.7407573944626
77.9745603771544
78.2239715601646
78.4773476505373
78.7227456823412
78.9479269424791
79.1403985775015
79.287494934202
79.3764998925532
79.3977041767312
79.3556486954046
79.2593668293996
79.1180548496883
78.9409575078254
78.7372754035426
78.5160940504252
78.2863346259302
78.0567258136358
77.8357957814347
77.631883178323
77.4531660569631
77.3074207797543
77.1966651221927
77.1177298472472
77.0673576244831
77.0423757272587
77.0396739596633
77.0561854603638
77.0888701769556
77.1347008663046
77.190651528069
77.2536882212715
77.3207622481657
77.3888072353276
77.4558389127178
77.5229127272158
77.5916153090836
77.6635446703385
77.7403112296943
77.8235395087998
77.914870515659
78.0159648347639
78.1285064484046
78.2542073199398
78.39481277761
78.5521077469263
78.7275323903028
78.9204861200978
79.12968368761
79.3538295096228
79.5916125269091
79.8417010102458
80.1027377472182
80.3733356188616
80.6520735820322
80.9374930798479
81.2280949085673
81.5223360763417
81.8182641425499
82.1128561537837
82.4028272535925
82.6848020040687
82.9553187347706
83.210836848328
83.447747245515
83.6623860028516
83.8510513936654
84.0100242884783
84.1355919025028
84.2244615684689
84.2771521940345
84.2963824738131
84.2849838127761
84.2458556162954
84.1819452783579
84.0962299553096
83.9917002855475
83.8713461660832
83.7381446522946
83.5950500082969
83.4449890416589
83.2913805681092
83.1387101729917
82.9915398330232
82.8543682338536
82.7316394694253
82.627756464921
82.5470990205499
82.4940464446321
82.473004835764
82.4884391860672
82.5449106126113
82.6467161255326
82.7921297997675
82.9746633367156
83.187690600866
83.4245207519543
83.6783529345719
83.9422414479198
84.2090718105717
84.4715483447668
84.7221940409516
84.953363517363
85.1573206831818
85.329807088023
85.4724467941382
85.5875016435653
85.6773170576309
85.7443073337249
85.7909419540437
85.819733060949
85.8332242239804
85.8339805956825
85.8245805279614
85.8076082890915
85.7853526588949
85.7592817042442
85.730721177938
85.7009939416982
85.6714194050899
85.6433133722792
85.6179882938538
85.5967539209909
85.5809183598492
85.5717895251577
85.5706769935891
85.5780280270269
85.5896967592961
85.6000155824452
85.6033109821749
85.5939100453109
85.5661535224416
85.5144163514833
85.4331354961116
85.3168448202122
85.1602165501121
84.9581086756053
84.7061809177142
84.4089539277814
84.0776573941386
83.7234687876733
83.3572603852957
82.9895579289611
82.6305273416593
82.2899872300957
81.9774449340238
81.7021541610263
81.4731927339648
81.2995596479327
81.18907957029
81.140250209553
81.1473689984971
81.2049505541587
81.307681185388
81.4503555526703
81.6278210710415
81.8349293130012
82.0664939567736
82.3172550710664
82.5818497373411
82.8547889084413
83.1303712888525
83.4025794252815
83.665215247714
83.9119310366742
84.1362474733466
84.331581873919
84.4912869657858
84.6087003480299
84.677204491073
84.6902967735924
84.6416686373296
84.5269544245815
84.3527811236235
84.1301367903419
83.8699926722818
83.583183823841
83.2803293255622
82.9717808731879
82.6675983946587
82.3775509720609
82.1111412465012
81.8776516333238
81.6862086768228
81.5421410312596
81.4395845014104
81.3707502300633
81.3279981982043
81.3037811746657
81.2906033226708
81.2809929214094
81.2674889298708
81.2426412782918
81.1990248234925
81.1292668497125
81.0261351124149
80.8882437537554
80.7253406748664
80.548342610072
80.3680036975524
80.194893161913
80.0394013293531
79.9117727553109
79.8221654662292
79.7807358219882
79.7977492823966
79.8837184168164
80.0495027685136
80.2982859349955
80.6175872003442
80.9930354308932
81.4099629300316
81.8532175906318
82.307026326462
82.7549143592461
83.1796867817134
83.5634797678404
83.8878886500352
84.1341785974441
84.2866557620183
84.3497950839018
84.3365380627073
84.2602958696119
84.1347090777036
83.9734673981122
83.790173078294
83.5982489505773
83.4108905731895
83.2410609692417
83.1015261250716
83.0048558434808
82.9569380713031
82.9518922405287
82.9827556161343
83.0426513074166
83.1247342256271
83.2221485870308
83.3279966998601
83.4353190303261
83.5370857212945
83.6261998374514
83.6955126302743
83.7388549737654
83.7572057149478
83.7546775047629
83.7354300840394
83.7036393016761
83.6634825506128
83.619128361485
83.574730166775
83.5344242134711
83.5023315849049
83.4825642923497
83.4792170909418
83.4951152458034
83.5310050958311
83.5874679350089
83.6651178946823
83.7646049141827
83.8866179422633
84.031888396476
84.2011939109183
84.3953624065625
84.6152765227045
84.8618784530387
85.1348572524314
85.4286266402546
85.7361364846406
86.0501441790333
86.3631955774541
86.6676182964839
86.9555283521636
87.2188511128056
87.449357455862
87.6387158056143
87.7785609752503
87.8634635358998
87.8977321595136
87.8878606890118
87.8404841712562
87.7623173721602
87.6601028842116
87.5405693641406
87.4104001407289
87.2762121983563
87.144545374365
87.0218614614291
86.9128895096525
86.8162748627731
86.7293121646799
86.6493250344251
86.5736609031056
86.4996875175989
86.4247910717927
86.3463759329741
86.2618659338901
86.1687071998259
86.0643724750075
85.9471074067155
85.8194993267971
85.6856702590381
85.549698040653
85.4156103713176
85.2873848789698
85.1689529154795
85.064206968342
84.9770115969118
84.9112178374832
84.8706810703333
84.8590282366957
84.8755035749632
84.9156382663335
84.9748716596326
85.0486478129189
85.1323973335953
85.2215240904669
85.311396822196
85.397345715893
85.4746640567546
85.5386150540568
85.5844802907907
85.6095685608968
85.6142674700775
85.5992474219561
85.5652057447378
85.5128635610695
85.4429626958402
85.3562626421076
85.2535376035614
85.135573630068
85.0031658609331
84.8571159006086
84.6986598250126
84.5305902845861
84.3560192187173
84.1780126966954
83.9995875731719
83.8237103661367
83.6532982652995
83.4912221793112
83.3403117369265
83.2033621695069
83.0831430197938
82.9823439002764
82.9019226357728
82.8409842245354
82.7985728142095
82.7737618784314
82.7656502282564
82.773358306308
82.7960247382678
82.8328031199343
82.8828590213054
82.945367192048
83.0195089553484
83.1043337769524
83.1981684072133
83.2990911252994
83.405165366287
83.5144369518989
83.6249320636411
83.7346561298708
83.8415936512942
83.9437089907982
84.0389481530249
84.1252415766
84.2005255610344
84.2631351182667
84.3118121242254
84.3453235653129
84.3624481697886
84.3619809361707
84.3427379625592
84.3035615476411
84.2433255286426
84.1609408159643
84.0553610787974
83.9255887475106
83.7717405177687
83.5974777775303
83.4071600830803
83.2050931194833
82.9955149310633
82.7825866626074
82.5703876398215
82.3629145891556
82.1640847870952
81.9777429358206
81.807671584142
81.657576377578
81.5291358785256
81.4207748683412
81.3306625846559
81.257009563855
81.1980600836862
81.1520854811516
81.1173782914746
81.0922471656294
81.0750125338976
81.0640029913509
81.0575523881792
81.0540888223147
81.0544827986012
81.0622546132394
81.081063178704
81.1145815531566
81.1665086027255
81.2405840904286
81.3406073214008
81.4704595401805
81.6341303580602
81.8357485893963
82.0796179987836
82.3692737749408
82.7006861434978
83.0660956700784
83.4575203624548
83.8667146420975
84.2851214569672
84.7038403282471
85.113613023309
85.5048287831777
85.867551108944
86.1915679945699
86.4670584649806
86.6912913389425
86.8664518747466
86.9950297607351
87.0797059403486
87.1233238501841
87.1288611647624
87.0994025275911
87.0381136829398
86.9482173540126
86.8329711438286
86.6956742684963
86.5400296658456
86.3700328031136
86.1896442354699
86.0027701093595
85.8132548888783
85.6248776339758
85.4413516870194
85.2663276178943
85.1033992838225
84.9561128774486
84.8279482334292
84.7195981218319
84.6268512205702
84.545044950129
84.4695635761842
84.3958287123416
84.3192948671769
84.235449929979
84.1398204990529
84.0279819438011
83.8955730580054
83.7383151079414
83.5533663163952
83.347396054488
83.1310361054436
82.9147337741994
82.7087237397184
82.5230420706278
82.3675646772139
82.2520691857509
82.1863197357745
82.1801749409668
82.2437202262153
82.3874097652657
82.6153249652184
82.9144528897479
83.2690261762902
83.6629743740109
84.0797312291877
84.502102578412
84.9121999443437
85.2914467145202
85.6206644294304
85.8802459786456
86.0504201680672
86.1171179157712
86.0888958496032
85.9804476312062
85.8068272126044
85.5831976887621
85.3246316318375
85.045965177859
84.7617056100875
84.4859904543579
84.232595163626
84.0149862645387
83.8457684535661
83.7261964853676
83.6481143671525
83.6032615116731
83.5835056859667
83.5807863259005
83.5870738950756
83.5943448525031
83.5945720604082
83.5797306034743
83.5418190060789
83.4728964674655
83.3687678984918
83.2373851402881
83.089149193915
82.9343467799661
82.7831220024832
82.6454732851246
82.5312746842885
82.4503207814119
82.412394694063
82.4273593129533
82.50527267178
82.6562031786851
82.8803950403276
83.1662379307877
83.5013860813263
83.8732771126471
84.2689954727757
84.6751724798101
85.0779256953747
85.4628414690224
85.815005093077
86.1190829885581
86.3595771738629
86.5291085345897
86.6340002012173
86.6822049452699
86.6819582678063
86.6416782097823
86.5698795561283
86.4751038446128
86.3658659644751
86.2506176244778
86.1377275995613
86.0354718451896
85.9494143260483
85.8784365373253
85.8204111145479
85.7732349644474
85.7348234446168
85.7031056008231
85.6760204327711
85.6515141678499
85.6275385289782
85.602049987185
85.5730099920694
85.5389454740955
85.501086810487
85.4614733516304
85.4221375603682
85.3851045026072
85.3523924666649
85.3260145370307
85.3079811162643
85.3003033928203
85.3049977585281
85.32409118728
85.3595232327561
85.412129952987
85.482082568609
85.5695643181999
85.6747809135557
85.7979612788332
85.9393583712995
86.0992500889092
86.2779402705471
86.4757597954504
86.6930677890734
86.9299246427591
87.1819308796525
87.4413491171081
87.700189206667
87.950271188472
88.1832326915174
88.3905521957164
88.5635889316043
88.6936399453184
88.7720144652721
88.7901251712612
88.7412483462801
88.6306811559214
88.4689895707192
88.2668130274204
88.0347360500943
87.7832059213025
87.5224760170149
87.2625740689995
87.013294191204
86.7842113258871
86.5847168090813
86.42317589453
86.2992459830252
86.2078348208124
86.1439191986055
86.1025641837748
86.0788945280088
86.0680719072974
86.0652777642877
86.0657016186224
86.0645347791959
86.0569694346039
86.0385087091506
86.009993638005
85.9767890189529
85.9443899618373
85.9182755707875
85.9039134749474
85.9067713223739
85.9323352410112
85.9861353508787
86.0737785300095
86.2009887955015
86.3734107207188
86.5891525479571
86.837230120547
87.1059594743683
87.383401879738
87.657321219547
87.9151745022039
88.1441376890218
88.3311689397502
88.463110856583
88.5268322982749
88.5102891749638
88.4153249102527
88.2546959345447
88.0415900362384
87.7891710557694
87.5104449840474
87.2181658278553
86.9247802873133
86.642409386077
86.382864770903
86.1576974096429
85.9779803218423
85.8454135105598
85.7508919363571
85.6848806407478
85.6379736310063
85.6008415868454
85.5642003448659
85.5187997083561
85.4554323265261
85.3649623986827
85.2383737900204
85.0668515138541
84.847722342138
84.5932655342972
84.3178653327862
84.0355928272574
83.7601624063708
83.5049344048872
83.2829609738201
83.1070725592136
82.9900032758958
82.9445548600332
82.9838007718936
83.1201553029046
83.3486329639565
83.6504255152371
84.0062292063402
84.3963164053903
84.8003180895835
85.1970983907751
85.5647294875958
85.8805768271035
86.1215041550579
86.2642047564247
86.2863597606296
86.1852022951089
85.9792172037647
85.6884107529158
85.332861385205
84.9323808863617
84.506270615541
84.0731708756758
83.6509977833934
83.2569600948259
82.9076481469496
82.6191881269345
82.4048064631108
82.2607880796388
82.1771113099768
82.1441105580755
82.1523633346116
82.1925849064093
82.2555453781987
82.3320080271168
82.4126884021185
82.4882341864715
82.5492261108324
82.5862256455793
82.5940768282706
82.5767394177341
82.5393712277398
82.4871462447378
82.4252328412531
82.3587784739218
82.2929008623003
82.232685581378
82.1831899715316
82.149453273768
82.1365129346217
82.1492106904618
82.188116055149
82.2498617464958
82.3309527987262
82.4278970722905
82.5371901336997
82.6553030764605
82.7786732906239
82.9036982270892
83.0267322310528
83.1440865365438
83.2520325203252
83.3476827367051
83.4316378213171
83.5053917411214
83.5704577008054
83.6283647169614
83.6806547210499
83.7288802094859
83.7746024552056
83.8193902918989
83.8648194797773
83.9124726603136
83.9638432719797
84.0187458990473
84.0755602300868
84.1326119573827
84.1882177461471
84.2406854620279
84.2883150779223
84.3294002683734
84.3622306977213
84.385095004903
84.3962844833137
84.3941039207373
84.3784878316724
84.3531195846551
84.3222082437963
84.2899542769996
84.2605461359772
84.2381610115017
84.2269697355367
84.2311458136945
84.2548786004893
84.30239067617
84.3779595480022
84.4851650048618
84.6221393553424
84.7846439810719
84.9684143043029
85.1691450725357
85.3824702755742
85.603947307434
85.8290455162152
86.0531393460953
86.2715063182052
86.479330119576
86.6719705824089
86.8472605515652
87.0044493185594
87.1428156759912
87.2616551337487
87.360282792684
87.4380362596171
87.4942785854178
87.5284012065961
87.5398268696637
87.5280125165412
87.4925862815149
87.4343815622106
87.3548633366594
87.2555239081789
87.1378710667222
87.0034216834964
86.8536957982275
86.6902112232151
86.5144786802714
86.3279974792734
86.1322517404536
85.9288236005678
85.7210493431087
85.5135888237274
85.3110497445097
85.1179535158777
84.938743394428
84.7777972043652
84.639444472817
84.5279878756476
84.4477289744797
84.402998327577
84.3981718160111
84.4346236270017
84.5072655812322
84.6102359059019
84.7376891815995
84.8837579371438
85.0425222718716
85.2079875157038
85.3740700925332
85.5345918615677
85.6832832723121
85.8137957096225
85.9208389459134
86.0031763528754
86.0605322760742
86.0926735220136
86.0994105701001
86.0805986025389
86.0361383429403
85.9659766958954
85.8701071813715
85.7485701594559
85.6014528427236
85.4291750380247
85.2342187052336
85.0199334426904
84.7896389018005
84.5466081338567
84.2940571415514
84.0351370337784
83.7729286821985
83.5104397583757
83.2506040187899
82.9962827009676
82.7502686375681
82.5154151959969
82.2947782499964
82.0913911957313
81.9082432800661
81.7482939455136
81.6144892155525
81.5097801471885
81.4371434313173
81.3996042820568
81.4002618250042
81.4423172731603
81.5289785821382
81.6596203065126
81.8290217197713
82.0317195046934
82.2622267653133
82.514990536717
82.7843563877707
83.0645402481026
83.349607776541
83.6334617355951
83.9098379420782
84.1723104470897
84.4152047717176
84.6360323851286
84.833042864664
85.0044968790542
85.1486756665662
85.2638911103031
85.3484963363049
85.4008967446243
85.4195613682797
85.4030344403448
85.3499470358952
85.2597755040206
85.1379444467915
84.9926497538139
84.832043447585
84.6641807435552
84.4969992288176
84.3383132563556
84.1958229802647
84.0771374742987
83.9898115032271
83.9413957471897
83.9393859388375
83.9850162957868
84.0700200382571
84.1853882094372
84.3220921562378
84.4710273873282
84.6229767108615
84.7685930560557
84.8984026323352
85.0028291480072
85.0722396859352
85.0970133427237
85.0717372177584
85.0047834058791
84.907425010168
84.790917205501
84.6664321017371
84.5450234493313
84.4376206192842
84.3550510643318
84.308090560539
84.3075409235775
84.3643355844634
84.4883419324978
84.6753940163007
84.9126817265154
85.1871820027559
85.485645343011
85.7944968103869
86.099777987979
86.3871326299387
86.641839281676
86.8488940517777
86.9931459302956
87.0606918405549
87.0524706322453
86.9794638998713
86.8530765824955
86.6848103957977
86.4861394797015
86.2684164937973
86.0428093037308
85.8202675396467
85.6115177869678
85.4270859744765
85.2771616348029
85.1649789145066
85.0850564515903
85.0314632085545
84.9983542218176
84.9799384686671
84.9704549067039
84.9641564527126
84.9553017827611
84.9381549044539
84.9069924768238
84.8561205114451
84.7825478577032
84.6913474418821
84.5890818039732
84.482263935297
84.3773454484076
84.2807147273734
84.1987048163577
84.1376108245448
84.103716706249
84.1033314146514
84.142834626023
84.2279691939512
84.3564005936502
84.5208429730479
84.7139264575909
84.9282109522557
85.1561410466971
85.3900137792506
85.6219597682327
85.8439384177111
86.0477480029019
86.2250514269707
86.3677628840442
86.4737868305179
86.5462236128248
86.5884423318577
86.6038941901197
86.5960896793502
86.5685782844556
86.5249309016311
86.4687251051334
86.4035333420303
86.3329140885137
86.2603622686084
86.187977325848
86.1162310341802
86.0454996306725
85.976156921588
85.9085743922323
85.8431213485143
85.7801650897513
85.7200711123026
85.6632033436881
85.6099244069265
85.5605955484483
85.515515483623
85.4748520056283
85.4387569163488
85.407382903438
85.3808837101021
85.3594143112417
85.3431310962201
85.3321920585527
85.3267569928462
85.3269876993469
85.3330481964914
85.3452339611225
85.3644104434424
85.3916036024925
85.4278461590747
85.474179650449
85.5316567554909
85.6013438964473
85.6843241303666
85.7817003462386
85.8945987872392
86.0241729212795
86.1710392711337
86.3317901475458
86.5012210026874
86.6740447996699
86.8448911832203
87.0083052075565
87.1587528527349
87.2906335896943
87.3983002077398
87.4760860323618
87.518339534788
87.5204217843693
87.4839389430954
87.4130255092556
87.3118836715358
87.1847465396252
87.0358513379711
86.8694166750569
86.6896239696697
86.5006030323184
86.3064217337837
86.1110796438563
85.9184695319801
85.7320288117255
85.5549019620274
85.3901820398719
85.2409222687319
85.1101463563393
85.0008608949027
84.9160698390205
84.8587910968983
84.8320753171854
84.8390270075
84.8827506614749
84.9629359140001
85.0744695339224
85.2118992057448
85.3697547564987
85.5425177996757
85.7245983008997
85.9103181912065
86.0939022641895
86.2694766658543
86.4310753182375
86.572676609739
86.6902024458191
86.7831382350845
86.8513773229561
86.8948553384483
86.9135503953065
86.9074831110441
86.8767164440276
86.8213553502052
86.7415462625081
86.6374763973358
86.509378017445
86.358798824262
86.1902422377308
86.0085826245848
85.8186301024126
85.6251190622853
85.4327020916373
85.2459490804011
85.0693512791446
84.9073300869467
84.7642503770522
84.6444382182991
84.5516848741973
84.4864659784281
84.4479896239175
84.4355148396165
84.4483503661658
84.4858504858117
84.5474111634601
84.6324664630394
84.7404852071736
84.8709678515061
85.0234435479343
85.1973821260213
85.3907822113229
85.600357069137
85.822732268621
86.0544735940606
86.2920775836188
86.5319647596122
86.7704756973556
87.0038700997806
87.2283290553854
87.4399606564838
87.6348993292515
87.8106188661053
87.9656695487541
88.0986409687624
88.2081397765597
88.2927965663042
88.3512730931685
88.3822697707238
88.3845333878467
88.3568649766031
88.2981277550948
88.207576064389
88.0876355376912
87.9424997602605
87.7763765684942
87.593447215002
87.3978488895113
87.1936612973043
86.9848972089391
86.7754968508962
86.5693259787078
86.3701774610871
86.1815694142746
86.0038043075541
85.8347234441673
85.6721413070359
85.5139080940071
85.3579068617918
85.2020517577112
85.044287296668
84.8825886436412
84.7149628627609
84.5394510927904
84.3541491647832
84.160146323506
83.9647420108686
83.7758924491044
83.6014129046938
83.4489980022915
83.3262561041185
83.2407573788184
83.2000955037209
83.2119633673761
83.2842436722073
83.4251159970452
83.6419600444959
83.9307793560125
84.2810980309478
84.6822868893109
85.1234855198418
85.5934767039264
86.0805870699293
86.5726162343173
87.0567977100305
87.519795584285
87.9477413113108
88.3275906484932
88.6551395624925
88.9302411893339
89.1529715360243
89.3236103767817
89.4426358174814
89.5107171042672
89.5287058242447
89.4976256690143
89.4186609498339
89.2931443944591
89.1241489667079
88.9201413705531
88.6906296415965
88.4449889954868
88.1924193663351
87.9419228404802
87.7023000422437
87.4821644244192
87.2899734713261
87.1340760202484
87.0227751457005
86.9612069861969
86.9429844194432
86.9592209940892
87.001114858304
87.0598877842474
87.1267421120603
87.1928354197054
87.249273015817
87.2871184927266
87.2974225640923
87.2712703503616
87.203709125811
87.1039613635352
86.9844392709236
86.8574620561699
86.7352178387172
86.6297602280911
86.5530386389164
86.5169615703546
86.5334926246048
86.6147799648865
86.7733212343391
87.0174213321195
87.3350280485716
87.7083117225064
88.1190628291124
88.5484887034891
88.9770846394608
89.3845861182733
89.750010495875
90.0517966631764
90.2680495394295
90.3771139446987
90.3701486466163
90.2577221817966
90.0526164335558
89.7680144124521
89.4172558418493
89.0136292741548
88.5702038189829
88.09970128421
87.6144077363988
87.126122208761
86.6461006034483
86.1816251570857
85.7335207223813
85.3019523958679
84.8870834385688
84.4890767055578
84.1080960552814
83.7443077437532
83.3978818090116
83.0689934515242
82.757824416535
82.4645643846804
82.1893818640784
81.9320452301553
81.6920503568046
81.468914984267
81.2621836182453
81.0714259210332
80.8962352189055
80.7362271159364
80.5910382053335
80.4603248702036
80.3437621664083
80.241042780829
80.1519436825555
80.0770721487063
80.0175849467133
79.974658110841
79.9494819818427
79.9432663816602
79.9572462136406
79.9926875265378
80.0508940886894
80.1332145279232
80.2410501031624
80.3758631856006
80.5386221259451
80.7248791197324
80.9270550759466
81.1374065499093
81.3480353029336
81.5508790765963
81.7377180596848
81.9001978633872
82.0298697028323
82.11824821845
82.1568869515684
82.1374710127269
82.0554064676084
81.9190451366922
81.739733580706
81.5287874319983
81.2973903856517
81.0565247995722
80.8169331119471
80.5891086787369
80.3833143799149
80.2096274105055
80.0780090282133
79.9983985416561
79.9770478333959
80.0066358848352
80.0768896048394
80.1776110197145
80.2985860026273
80.4295190075468
80.5599937810636
80.6794605898056
80.7772507861875
80.8426195288072
80.8648171598247
80.8332038781973
80.7432744878486
80.6056812396139
80.4334334491664
80.2394391542995
80.0364163578062
79.8368457634502
79.652963445541
79.4967915449471
79.3802052492978
79.3150349496183
79.3132035403784
79.386899311976
79.5437040493599
79.774826760803
80.0681672609683
80.4115782267756
80.7926866042326
81.1987504918922
81.6165527090884
82.032333943338
82.4317696074145
82.79999524525
83.1216853928795
83.381677940258
83.5744663538611
83.7038072837398
83.7741539943109
83.7902564637043
83.7570964028139
83.6798256470956
83.5637091487666
83.4140735229001
83.2362618337383
83.0355950594776
82.8173404538352
82.5868033154644
82.3497489460126
82.1119868171019
81.8791951500144
81.6569247239696
81.4506102862481
81.2655891142978
81.1071264030689
80.9804472756555
80.8907753745632
80.8433781846378
80.8436190530458
80.894971092009
80.9943014009553
81.1372083576854
81.3193760045792
81.5365284847916
81.7843893121355
82.0586451201656
82.3549137106707
82.6687163758465
82.9954546045862
83.3303914026398
83.6687255842499
84.0070452162177
84.3431515934372
84.6748189845007
84.9997546296769
85.315601082932
85.6199399041544
85.910296784525
86.1841481786122
86.4389295035153
86.6720449479781
86.8809532472755
87.0648245698834
87.224585529333
87.3612964730528
87.476071511172
87.5700725739776
87.6445035811376
87.7006047782144
87.7396472904855
87.7629279383609
87.7717643528647
87.767490066153
87.7514444437627
87.7249698322001
87.6894133015115
87.6461238309645
87.5964497373231
87.5417365184818
87.4833251138546
87.422550580405
87.3607411812403
87.2992178822677
87.2391657223572
87.1795256120028
87.117346307625
87.049633490333
86.9734130657739
86.8857359308782
86.7836847173242
86.6643824481699
86.5250030227116
86.3627834185258
86.1750374694967
85.959308432139
85.7183645534401
85.4614693693824
85.1981194372978
84.9375900566551
84.6889329205618
84.4609933780423
84.2624461409313
84.1018485147892
83.9877106282113
83.9285826705587
83.9331598262719
84.0069748182388
84.1407985090859
84.3213974448966
84.5354946102195
84.7696405674167
85.0101259336786
85.242936644332
85.4537542448584
85.6280037794927
85.7509515265861
85.8078538096762
85.7861999288616
85.6899017623267
85.5307727471099
85.3208132319096
85.0720093206276
84.7962101486185
84.5050392191937
84.2098390866132
83.9216478521907
83.65120551104
83.4089881142602
83.2052229524173
83.0445946318833
82.9213281654688
82.8286199675765
82.7598034069404
82.7083050694385
82.6676120304103
82.6312496811698
82.592769838948
82.5457489827685
82.4837965030475
82.4005728318821
82.2902463543344
82.1536556124605
81.996795523509
81.8257447942653
81.6465031891987
81.4649757036766
81.2869655317684
81.1181754705579
80.9642173886749
80.8306294217189
80.7229006375159
80.646503036736
80.6065473422379
80.6040754502
80.6377047338637
80.7061114672231
80.8080550311204
80.9423670062343
81.1079410721972
81.3037235918995
81.528704775992
81.7819103363687
82.062393549387
82.3692276258167
82.7002556537647
83.0487184124649
83.4065963068936
83.765594846969
84.117131186659
84.4523376910024
84.7620840499044
85.037019366758
85.2676353796276
85.4443515029602
85.5576216972854
85.599829236718
85.5761988532051
85.4976804921425
85.3754075413654
85.2205478681423
85.0442052365579
84.8573500380937
84.6707790492084
84.4951033390882
84.3407631759571
84.218068802679
84.1370580577968
84.0999994693756
84.0993231253922
84.1269185441493
84.174723479155
84.2346773348392
84.2986900692527
84.3586265460699
84.4063064869052
84.4335202386856
84.4320605071699
84.3937701146305
84.3142052732814
84.2021458141413
84.0693376330798
83.9274260164822
83.7879149169918
83.6621583022175
83.5613825758062
83.4967391531297
83.4793867017337
83.5206033176419
83.6319300082363
83.82448910281
84.0949578745496
84.4274492882482
84.8054570911535
85.2120382718107
85.6296560240577
86.0400899764246
86.4244202354275
86.7630928362591
87.0360738560655
87.2230974752684
87.3049920942265
87.2802461331364
87.1626265273316
86.9668660429397
86.7079175269809
86.4007167738646
86.0599965255997
85.7001525962162
85.3351608450161
84.9785422197931
84.6433723163237
84.3423106933268
84.0824703355482
83.8588361004963
83.6649010214701
83.4943433680568
83.340986440374
83.1987683192832
83.0617209530131
82.9239581234187
82.7796719384584
82.6231375465947
82.4487257676647
82.251247542106
82.0320827148106
81.7985178943417
81.5579198164899
81.3174934486762
81.084277092667
80.8651499223021
80.6668512294076
80.4960107543853
80.3591896586101
80.2629319476404
80.2138264752485
80.2180822304263
80.2734165381594
80.3703350681171
80.4991661201796
80.6502053805347
80.8136497087062
80.9795542028067
81.1378131466915
81.278165766281
81.3902277973329
81.4635496751009
81.4877016808166
81.4537189225334
81.3633365086967
81.2234301705983
81.0410115263432
80.8231212195662
80.5767631974849
80.3088513228787
80.0261683818754
79.7353372132692
79.4428034413989
79.1548291401522
78.8774966835488
78.6165004500911
78.3740175294705
78.1495607856271
77.94260383598
77.7526504182837
77.5792324662691
77.4219083289594
77.2802611208741
77.1538971915844
77.0424447041977
76.9455523133413
76.8628879340998
76.7941381134769
76.7398278542193
76.702978125569
76.6870871814296
76.6956782326579
76.7323203835294
76.8006530767942
76.9044143229829
77.0474730980074
77.2338664230823
77.4678417977162
77.7539058469441
78.0968802774434
78.5005070678091
78.9584266632116
79.4595726020406
79.992402181705
80.5447918668378
81.1039467103099
81.6563461923672
82.1877322164721
82.6831456059657
83.1270174172889
83.5033205532837
83.7959613630168
83.998742822559
84.1208328386805
84.1732593051971
84.1674950588432
84.115283199373
84.028491441878
83.9189984012964
83.7986132094693
83.6790287233614
83.571807833093
83.4884020250569
83.439021940249
83.4263110087253
83.4499952834223
83.5098885190523
83.6058979132615
83.7380229612637
83.9063549058861
84.1110767731866
84.3524639908176
84.6308855932431
84.9468060248799
85.3005334195725
85.6879963290471
86.1012043147856
86.5317690259093
86.9709759554277
87.4097536262383
87.8386605438283
88.247891892377
88.6273080156835
88.9664865954421
89.2548000831655
89.4829732227007
89.6521416236631
89.7682031601751
89.8373448345427
89.8659553027487
89.8605623588451
89.8277787271153
89.7742569492415
89.7066538553817
89.6316048607583
89.5557070646647
89.4838141468595
89.4156118299541
89.349821979277
89.2851744757856
89.2204066973036
89.1542633602065
89.0854967159945
89.0128670971847
88.9351438065349
88.8511063427947
88.7595591942853
88.6605163752673
88.5561237030537
88.4487290929505
88.34065899361
88.2342174860648
88.1316865973944
88.0353277989262
87.9473846609768
87.8700866407461
87.8056539869817
87.7562815252795
87.7229300712816
87.7047086670248
87.700589587897
87.7095597727596
87.7306176844565
87.7627704278204
87.8050311125624
87.8564164511404
87.9159445841408
87.9826331278979
88.05547133034
88.1326212687872
88.2112627908195
88.2885002380776
88.3614177788102
88.4270812563793
88.482541988487
88.5248425411321
88.5510244879808
88.5581381469129
88.5432542610444
88.5036136698177
88.4385904651402
88.3492337273178
88.2366692740644
88.1020501876494
87.9465511609197
87.7713630649171
87.5776877711694
87.3667332563366
87.1397090115849
86.8978217739459
86.6423174100452
86.3753386488895
86.099821945732
85.8186701523354
85.5347166884991
85.2507233511639
84.9693799821133
84.693305874017
84.4250527974947
84.1671095391517
83.9219078515857
83.6918297537385
83.4793284997791
83.2871952760852
83.1182698729785
82.9753781145332
82.8613492876216
82.7790355064002
82.7313331386665
82.7212064813729
82.7517139419392
82.8260370619518
82.9475128131431
83.1193835900373
83.3385017752579
83.5951569126397
83.8792170735993
84.1803318808379
84.4878746616849
84.7909100290533
85.0781887490294
85.3381719805639
85.5590868917575
85.72901522713
85.8361216916406
85.8761467103364
85.8573116212892
85.7892180409738
85.6816004395919
85.5442262194573
85.3868176404116
85.218996075152
85.0502484423711
84.8899152446125
84.7471994277492
84.6311952692403
84.5487976336041
84.4975292559839
84.4724211007055
84.4685708957155
84.4811157127623
84.5052102807161
84.5360109384999
84.5686651537721
84.5983065975385
84.6200558020289
84.6290264394917
84.6207566097954
84.5964955083081
84.5616057558846
84.5215340880626
84.4817105954809
84.4475455725089
84.4244333169246
84.4177628265989
84.432935378119
84.4753890482386
84.5506303525609
84.6642229434355
84.817305547687
85.0029376774717
85.2132873570422
85.4404155997973
85.6762363883999
85.9124913091814
86.1407395710225
86.3523642885339
86.5385959327481
86.6905537361121
86.7993287840541
86.8599665477147
86.8759543068777
86.8519889170347
86.792876177754
86.7034894746331
86.5887333856483
86.4535126136466
86.3027064501274
86.1411488424044
85.9736140291434
85.8048075974588
85.6382303505432
85.4732196978356
85.3081915024718
85.1415859951378
84.9718679454004
84.797527387593
84.6170808771423
84.42907325194
84.2320798713705
84.0247093029684
83.8056064234871
83.5736856707551
83.3318820997336
83.0864378228992
82.8435599680407
82.6093121718643
82.3896237836157
82.1903075470022
82.0170853266079
81.8756215786801
81.7715644432936
81.7105945544979
81.6984819291916
81.7401481437551
81.8335927167636
81.973897141748
82.1562331890061
82.3758212136815
82.6278821460337
82.9075950340393
83.2100599160987
83.5302660003434
83.8630653011585
84.2031520343
84.5450231428688
84.8821999760746
85.207055288843
85.5116852417041
85.7879900456726
86.0277174609729
86.2225226082798
86.3640443220299
86.443997730983
86.4542820766509
86.3871019959377
86.2352064267948
85.9993621059092
85.6929343586972
85.3304405141931
84.9262030278849
84.4941937043187
84.0479270770405
83.600400328308
83.1640760518591
82.7509037200375
82.3723758183837
82.039615159187
81.7628104822554
81.5416731927473
81.3680396231105
81.2338436894675
81.1312507663407
81.0525894359286
80.9902990301647
80.9368919951786
80.884930470057
80.8270167130302
80.75579713739
80.6639797417259
80.545308883326
80.4037995559234
80.249625634981
80.0929160270093
79.943647224965
79.8116500575105
79.7066407481447
79.6382755419539
79.6162286014284
79.6502935524394
79.7505099855706
79.9273174167448
80.1902145512261
80.532844386325
80.9388634716192
81.3914254454557
81.8730795923432
82.3655946231585
82.8498566844613
83.3058509463217
83.712737474391
84.0490317178037
84.2928974535786
84.422753808342
84.4315229757088
84.3359000720604
84.1553931455875
83.9097816676572
83.6187708594731
83.3017388099978
82.9775767837106
82.6646191290755
82.3806570437663
82.1430299912861
81.9687895925261
81.8738634242338
81.858022389353
81.9086411343385
82.0130571692671
82.1587270627262
82.3330793710888
82.5234059626884
82.7167916239826
82.900083000336
83.0598985969462
83.1826817168307
83.2547988906548
83.2680391647545
83.2321737334646
83.1608134559588
83.0675946857667
82.9660857248821
82.869737943573
82.7918809826726
82.74576109008
82.7446218721955
82.8018275452806
82.9310301507832
83.1457570876822
83.4457572984204
83.8166164218988
84.2431371547103
84.7097203892073
85.2001751308244
85.6975842875873
86.1842322353053
86.6416019009384
87.0504499112685
87.3909678666863
87.643748277418
87.8036913006748
87.879382031259
87.880484808353
87.8170806308119
87.6995079582429
87.5382242599036
87.3436909496652
87.1262831184677
86.8962244611356
86.6635470247552
86.4379307222155
86.2243415974073
86.0223627461042
85.8312900581433
85.6504384308979
85.4791401159638
85.3167432016045
85.1626102219049
85.0161168846057
84.8766509105089
84.7436109781572
84.6164064622129
84.495551981914
84.3848668982313
84.2887579487519
84.2116036124154
84.1577717449239
84.1316417234663
84.1376311918262
84.1802276047275
84.2640249007778
84.393765790154
84.5743903315956
84.8100338902709
85.0958495078922
85.4222241360151
85.7793254441589
86.157053886388
86.544977641514
86.9322909588306
87.3077980486416
87.6599249931429
87.9767622145036
88.2461397732475
88.4576170137166
88.6117863903319
88.713480016843
88.7677836268989
88.7799731292849
88.7554611134697
88.699748792245
88.6183840804305
88.5169262840356
88.400917676046
88.2758620689655
88.1465985590095
88.0154728376292
87.8841953861336
87.7544564981116
87.627926619196
87.5062573243142
87.3910829135253
87.2840226096922
87.1866833443094
87.1006631217696
87.0275549571766
86.9685953789238
86.923464459136
86.8914281402732
86.8717666911498
86.8637726273553
86.8667487631822
86.8800063979908
86.9028636293318
86.9346437863773
86.9746739783342
87.022283753531
87.0769109056977
87.1385113109934
87.2072000153583
87.2830961149178
87.3663229068705
87.4570080804877
87.555283917076
87.6612874994674
87.7751609316412
87.8970515691193
88.0271122325141
88.1644809511676
88.3045591351689
88.4418392793189
88.5707457407179
88.6856415307821
88.7808422960792
88.8506376362761
88.8893198134198
88.8912197725204
88.8507502200533
88.7624768478103
88.6247813415046
88.4438815283747
88.2270075086325
87.9813550381394
87.7140344522756
87.4320315529828
87.1421802100384
86.851146208509
86.5654217362274
86.2913298421497
86.0350379714832
85.8014599448713
85.5917275138167
85.4062196860509
85.2453447686867
85.1095432257492
84.9992907069294
84.9151012731794
84.8575308474671
84.8271809221046
84.8247025576445
84.8508007124551
84.9059707187844
84.9884303130594
85.0952304582421
85.2234268853117
85.3700738440432
85.5322099661296
85.7068461250914
85.8909552946383
86.0814644401663
86.2752485055239
86.4691265789326
86.6598890315971
86.8446181216093
87.0205806699384
87.1850088165043
87.3351020963016
87.4680354636922
87.5809691870409
87.6710606176702
87.7354778079252
87.7714149189804
87.7761093203417
87.7472645118128
87.6865689360261
87.597959344788
87.4854240214615
87.3529552746072
87.2045297776606
87.0440925815028
86.8755447975881
86.7027348958692
86.5294535226218
86.3594317180478
86.1963417855138
86.0437931210583
85.9053420411128
85.7845095292606
85.6847947496957
85.6096911662159
85.5627054932874
85.5473795683022
85.5673153053583
85.6262029741212
85.7278531447622
85.8761059082101
86.0702205464777
86.3034503729651
86.5686112491473
86.8584147040594
87.1654179687979
87.4819858954508
87.8002654045286
88.1121733474873
88.4093988243608
88.6834210478484
88.9258740372924
89.1333636576648
89.3065164245505
89.4461624231621
89.5532231386571
89.628704138922
89.6736874972782
89.6893240494648
89.6768255757496
89.6374569942178
89.5725286453879
89.4835046049432
89.3725532637256
89.2421004600307
89.094573084774
88.9323890657281
88.7579490261423
88.5736292847155
88.3817761851538
88.1847017294696
87.9846804782351
87.78394767308
87.5846560204089
87.388715093393
87.1979393085081
87.0141122756113
86.8389894869116
86.6743016776051
86.5217588471509
86.3830549239262
86.2598730633803
86.1538915781626
86.0667905080283
86.0002042410523
85.9553559155967
85.9332927532128
85.9350936243534
85.9618761597488
86.0148031041929
86.0950891705115
86.2040084598821
86.3429025249851
86.513189164352
86.7163720500655
86.9533163422191
87.2178227406068
87.4995556036158
87.787889571907
88.0719221795977
88.3404688611835
88.5820859456883
88.7851233568859
88.9378083457653
89.0283608444521
89.0451399374569
88.980187357034
88.84221638575
88.6450853438973
88.4026919536508
88.1288122104765
87.8369841526665
87.5404349448969
87.2520494807812
86.984378066072
86.7496806226181
86.5600051960994
86.4250113520535
86.3397216836631
86.2935653594545
86.2761290832034
86.2770898302488
86.2861584448042
86.2930480125937
86.2874667920143
86.2591356811965
86.1978301463513
86.0934462403311
85.9372838839496
85.7337584858929
85.4951536372896
85.2337092742821
84.9614288114524
84.6900340560214
84.4309536462996
84.1953429957002
83.99413379212
83.8381115100486
83.73802010485
83.7046556385522
83.7425684893207
83.8428849653682
83.9951909014476
84.189139112327
84.4143317359088
84.6602278990297
84.9160766873359
85.1708762425031
85.4133603939033
85.6320145401619
85.8151225664786
85.953288313505
86.0460382412203
86.0950728738497
86.1022387334332
86.0695096576798
85.9989680341838
85.8927862331619
85.7532084939654
85.5825334902884
85.3830977665167
85.1572602042316
84.907581883658
84.638293623133
84.3544171107397
84.0608726881985
83.7624591752881
83.4638467297691
83.1695751497806
82.8840572458133
82.6115869180879
82.3563516056902
82.1224488232257
81.9139065343911
81.733553888445
81.5800334538734
81.4511086348461
81.3446152834599
81.2584494244776
81.1905563451328
81.1389209324958
81.1015591643233
81.0765106793066
81.0618323696918
81.0555929537083
81.0558753862359
81.0624891331511
81.0792291348111
81.1104639494684
81.1605884820571
81.2340420662774
81.3353315221071
81.469059445821
81.6399581113611
81.8529295138436
82.1130922738418
82.4258363529073
82.7963073864357
83.2198298400705
83.6829447399611
84.1714064004331
84.6703308909485
85.1641222094624
85.6364524127989
86.0703026106489
86.4480716974796
86.7517585816005
86.9632212903994
87.0654115366873
87.0598055883236
86.9651745654099
86.8013704363767
86.5883525432957
86.3459194268846
86.0935325986735
85.850230767367
85.6346305579483
85.465008998175
85.3594638450735
85.3360208115406
85.4013559691285
85.5417430174654
85.7415441042469
85.9851180800971
86.2566280960398
86.5399056946867
86.8183730006753
87.0750263149058
87.2924852046394
87.4531109526122
87.5393631952235
87.5455534434613
87.4854892646368
87.3750134385416
87.2300264767583
87.0663335058292
86.8995490405675
86.7450588524938
86.6180371365877
86.5335170309654
86.5065131993372
86.5521451408764
86.6771967277961
86.8703945569288
87.1182422577595
87.4071670371339
87.7233658198571
88.0526928938629
88.3805907335318
88.692066925093
88.9717207921232
89.2038233368101
89.3728288597775
89.4732663929476
89.5108568711487
89.4921722700115
89.4240033176511
89.3132795905177
89.1669989266054
88.9921671479704
88.7957486676394
88.5846282000413
88.3655835082851
88.1448863407424
87.9228469974734
87.6952241896322
87.4577457785957
87.2062388715762
86.936640655882
86.6450128351026
86.3275593304501
85.980646854266
85.6008278989872
85.1848656171458
84.7298173226291
84.2381310152594
83.7213183334354
83.1913555917304
82.6596709770778
82.1371327051326
81.6340672539821
81.1603039183878
80.7252423509823
80.3379404103828
80.0072204660412
79.7417932826186
79.5503671950703
79.4363637289745
79.3920046571823
79.4084617041778
79.477200448775
79.5898582485283
79.7381419409096
79.9137436470349
80.1082738430388
80.3132115338844
80.5198718824673
80.7193920175304
80.9027990458178
81.0645029278716
81.2041967181424
81.3220512616711
81.4182770402085
81.493122811567
81.5468741057579
81.5798515916844
81.5924093288064
81.5849329186526
81.5578375713381
81.511566102354
81.4466358488888
81.3644392558163
81.2671031754036
81.1567762396632
81.0355984944316
80.905695262383
80.7691721541662
80.6281112141113
80.4845681773964
80.3405708085627
80.1981182867321
80.0591816006946
79.9256012924471
79.7973939130198
79.6730526357613
79.5510421257273
79.4298461954358
79.3079671342982
79.1839256118992
79.0562611367954
78.9235330523389
78.7843220500248
78.637232179077
78.4808933284733
78.3140073822221
78.1383236001139
77.9604890145757
77.7874874537037
77.6261803453465
77.4833219596992
77.3655863403971
77.2796055830355
77.2320193594108
77.2295359050013
77.2790050904138
77.3875046957515
77.5624416200843
77.8089328783192
78.1192683789588
78.4817545622384
78.8844692992695
79.3151128445256
79.7608924805495
80.2084445149735
80.6437978522931
81.0523842500419
81.4191006587342
81.7284285960531
81.9646589032253
82.1196736641646
82.2017916881225
82.2218761122156
82.1911294183182
82.1209397108974
82.0227561493763
81.9079955384979
81.7879808238374
81.6739113384291
81.576864117423
81.5078254360139
81.4775093004388
81.4890516092373
81.5367111159749
81.6143093748641
81.7156963797061
81.83470967457
81.9651427179768
82.1007224809031
82.235096431682
82.3618291755149
82.4744090708228
82.5662651356593
82.632055188111
82.6754080585181
82.7038896749964
82.7251254152931
82.7467642674867
82.7764725231329
82.8219416492487
82.8909104609482
82.9912018342695
83.130774431083
83.3177902618743
83.5606003640793
83.8609528974719
84.2093058272685
84.5948807799991
85.0065955859721
85.4329747636615
85.8620882956041
86.2815215003702
86.6783793900298
87.0393291180353
87.3506838904336
87.5986746664814
87.7775237983677
87.8938405408659
87.9556081617192
87.9710822709779
87.9486958052183
87.8969783743627
87.8244912793926
87.7397789306006
87.6513369365053
87.5675968057506
87.4968104457989
87.4419106511032
87.3985199987042
87.3617520740795
87.3267418525592
87.2886410117191
87.2426186496801
87.1838673567591
87.1076145722814
87.0091391182508
86.8837927379099
86.7271060130212
86.540294831404
86.3336861784253
86.1182899373285
85.9049127576763
85.704150752439
85.5264087262878
85.3819446848505
85.2809387106032
85.2335858717045
85.2502136487759
85.341424426811
85.5133081928379
85.7559268193199
86.0560361548623
86.4002707769639
86.7749793485728
87.1661002775215
87.5590797420281
87.9388355830032
88.2897714431226
88.5958457565943
88.8407571427439
89.0150614177521
89.1230863436752
89.1710832220099
89.1655931223646
89.1133632225382
89.0212711484652
88.8962586533433
88.7452755383965
88.5752343281782
88.392975885003
88.2052049932513
88.0166745178421
87.8295090710411
87.6456104126539
87.4668487607989
87.2950647602292
87.132072210293
86.9796615240448
86.839603895669
86.7136561601691
86.6035663371647
86.5110662378529
86.4366608664547
86.3786806285397
86.3352580918417
86.3045491591701
86.2847272643857
86.2739783882908
86.2704968669051
86.2724819728306
86.2781352571589
86.2856586447313
86.2932558127697
86.300145785982
86.3081145007561
86.3193484060487
86.3360367484268
86.3603737843287
86.3945621106932
86.4408171271049
86.5013726509764
86.5784877182135
86.6744546154207
86.7916067843318
86.9300714391837
87.0831449205713
87.2427496741378
87.4006950628449
87.5486723063412
87.6782650546673
87.7809761331245
87.8482708477261
87.8716369584508
87.8426610087929
87.7531316039011
87.5997126397582
87.3908937806025
87.1370218893758
86.8483783281207
86.5350880815167
86.2070535868186
85.8739125226933
85.5450182981985
85.2294417080115
84.9359921579074
84.6732569885307
84.4485710566092
84.2615112182934
84.1084419336116
83.9858496840892
83.8903299135986
83.8185639800326
83.767299215946
83.7333318472015
83.7134925820096
83.7046347351094
83.7036247945904
83.7073693106923
83.7146680783387
83.7271739605441
83.7467797502272
83.7753848379052
83.8148988616833
83.8672462407563
83.9343716160271
84.0182462311622
84.1208752990901
84.2443064128148
84.3906390757223
84.5607926099701
84.7502528864693
84.9529394013223
85.1626689398285
85.3731400912623
85.5779267555503
85.7704811464746
85.9441467694475
86.092181804655
86.2077932116113
86.2841816849309
86.3158760287315
86.3057429664097
86.260027775091
86.1850565688394
86.0871809156897
85.9727397281024
85.8480305241338
85.7192900658408
85.5926842339232
85.474306908225
85.37018759074
85.2860641366566
85.2239236513728
85.1828583156087
85.1619179086332
85.1601833921664
85.1767626958315
85.2107867868366
85.2614059964563
85.3277865796446
85.4091074874866
85.5045573352368
85.6133371100042
85.7349044900444
85.8690734417994
86.0156918540488
86.1746153260671
86.3457066446472
86.5288352792193
86.7238768930894
86.9307128689397
87.1492298468431
87.3793192731381
87.620815470046
87.8712376107779
88.1250729773987
88.3764862058211
88.6195086257418
88.8480446507814
89.0558865763869
89.2367381765187
89.3842473815067
89.4920481557289
89.5538114739135
89.5640572676796
89.5255743962082
89.4462455085328
89.3340955964174
89.1971558755938
89.0434126260266
88.8807705410061
88.7170304373537
88.5598809603405
88.4169038060209
88.2955919752166
88.2025260534691
88.1382164141712
88.1006050220458
88.0876810646918
88.0974798292201
88.1280721470077
88.1775548386521
88.2440420861795
88.3256576768557
88.4205280781641
88.526776316913
88.6426804957838
88.7672290931123
88.8996028718321
89.0389766572058
89.1845178873604
89.3353853148125
89.4907278560199
89.6496835924824
89.8113789277961
89.9749279058448
90.139405508281
90.302031009149
90.4569541070539
90.5979655491203
90.7187894178459
90.8131063445648
90.8745856039281
90.8969260527276
90.873905664196
90.7994391484764
90.6676428483105
90.4736861294188
90.2205753552183
89.9156818718722
89.5664374967476
89.1802123475371
88.7642521166727
88.3256279090866
87.8711983416866
87.4075833161408
86.9411486773896
86.4780008518124
86.0237616004554
85.5803425607152
85.1468841840736
84.7224893088481
84.3062950706067
83.8974709441712
83.4952169967721
83.0987623351319
82.7073637308416
82.3203044097647
81.9368929923996
81.5564625731659
81.1787955348337
80.8066760606449
80.4440707001025
80.0948102858928
79.7625973497338
79.451022019076
79.1635808613264
78.9036984925385
78.6747518465588
78.4800970873739
78.3230992422961
78.2071647379475
78.1355208821743
78.1064042181715
78.1134896995555
78.1503849742635
78.2107526133586
78.2882667030264
78.3765797737463
78.4692999450071
78.5599783549549
78.6421070659764
78.7091276883856
78.7544509424767
78.7715514310877
78.7575189433882
78.7148986764978
78.6467358820681
78.5561089639994
78.4461109422137
78.3198332671953
78.1803520670439
78.0307168598904
77.8739417235564
77.7129988816445
77.550814640835
77.3902675978184
77.2338491758824
77.0823771589397
76.9361671100134
76.7955311220774
76.6607784066874
76.5322158030015
76.4101483083051
76.294879630228
76.1867127610339
76.0859505745507
75.9928964465164
75.907854899323
75.8311381979096
75.7635966297886
75.7070340170397
75.6633502034892
75.6344480069896
75.6222402327267
75.6286576792886
75.6556581827358
75.7052367625577
75.7794369548844
75.8803634431295
76.0101961249764
76.171205788093
76.3653527732097
76.5901699622893
76.8404108103007
77.1107002485592
77.3955401050491
77.6892826007137
77.9861114818409
78.2800313593269
78.5648659263837
78.8342657757366
79.0817265272341
79.300617898255
79.4845832032643
79.6327649196338
79.7487322885656
79.8363005029426
79.8993869448923
79.9419850722593
79.968141862277
79.981939085564
79.9874785982034
79.9888717691481
79.9902331062167
79.9956781075146
80.0090043398246
80.029091048645
80.0509614043723
80.0695260084713
80.0796866446575
80.0763437289592
80.0544102501887
80.0088321483259
79.934614987009
79.8268566523651
79.6807856567725
79.491804447672
79.2559394184811
78.9786691627973
78.6745974862482
78.3583697850851
78.044200081845
77.7458568233039
77.4766984984563
77.2497552382306
77.0778534599636
76.9737821244139
76.9505012411018
77.0213959151611
77.2005811949873
77.4963730807234
77.8951899113221
78.378871380067
78.9288960078004
79.525993421807
80.1498381976083
80.7788337623599
81.3900007252185
81.9589880954179
82.4602275304369
82.8672491867726
83.1540702412359
83.31570968494
83.3690118866996
83.3327602366357
83.2263388162479
83.0693630017112
82.8813977548292
82.6817681042425
82.4894617062081
82.3231205709767
82.2011180331607
82.1417177208562
82.1604804058061
82.2532207205423
82.4073723078785
82.6104579402147
82.8499539426161
83.113157477347
83.3870912729307
83.6584470592995
83.9135699796225
84.1384867550715
84.318980321119
84.4410758605071
84.5022881318481
84.5138444630999
84.4879617129278
84.4369514345277
84.3731289259989
84.3087580648372
84.2560319877052
84.2270892219443
84.2340648560369
84.2891767446455
84.4048465413702
84.588747785174
84.8319229583662
85.1219126902622
85.4460849637838
85.7915097827473
86.1448705092573
86.4924141447159
86.8199437601595
87.1128567082694
87.3562320872819
87.5349733742172
87.6392163215677
87.6751646009888
87.6523614282021
87.5805939489704
87.4697734610204
87.3298366258008
87.1706689107893
87.0020506783881
86.8336257204432
86.6748916367512
86.5352112676056
86.4215167064822
86.3314129294705
86.260245798251
86.203420546403
86.1563840575587
86.114612104586
86.073601421798
86.0288665283635
85.9759412457459
85.9103848557942
85.8277928295333
85.7247015713017
85.6040062893185
85.4713121921211
85.3321810298706
85.1921084338102
85.0565194368247
84.9307709935324
84.8201612728292
84.7299455283515
84.6653584194398
84.6316427555436
84.6339136881665
84.6727881515589
84.7439985670824
84.8430791055672
84.9655826197696
85.1070533344485
85.2630041792295
85.4288987286541
85.6001378045538
85.77205086677
85.939892368863
86.0988569963611
86.2450373254429
86.3760686436902
86.4897205855353
86.5837598396042
86.6559594763541
86.70410939966
86.7260278674865
86.7195740038639
86.6826611999618
86.6132712766823
86.5094831355943
86.3718112972562
86.2057759680084
86.0175046387637
85.8130631998921
85.5984296952075
85.379476737263
85.1619622835169
84.9515283980767
84.7537075972869
84.5739363953087
84.4175757239139
84.2889743257705
84.1862888596092
84.1052971829097
84.0418406378101
83.9918108352157
83.9511345269534
83.9157625497726
83.881662740611
83.8448167597006
83.8012207789827
83.7468899984168
83.6779540065443
83.5945166318512
83.5021452228274
83.406767737922
83.3142606726723
83.2304490935693
83.1611148563464
83.112012848752
83.0888951698777
83.0975432761976
83.143808288985
83.2336598712672
83.3715902694853
83.5516159913108
83.763531084134
83.9969957577074
84.2414788877259
84.4862153612105
84.7201899901662
84.9321495767532
85.1106447498968
85.2441029081524
85.3209329678841
85.3304589702155
85.2744971655401
85.1646945123136
85.0130691623485
84.8316217498291
84.6322358694091
84.4266126102657
84.2262383918887
84.0423847852146
83.8861388265844
83.7684625128315
83.7002732683009
83.6871992364777
83.7202196896808
83.7879138904081
83.8788951418217
83.9817315731307
84.0848978805729
84.1767583244451
84.2455816592658
84.2795886878015
84.2670327665449
84.1963128417907
84.0578455880179
83.8591098662199
83.6170082664211
83.3483435908627
83.0695783212692
82.7967655699497
82.5455441453676
82.3311936784244
82.1687461961034
82.0731518681812
82.0594988164888
82.1432896881295
82.3344909334786
82.6209645965999
82.9856344493031
83.4112934474064
83.8802995459536
84.3743400524939
84.8742684339926
85.3600212436649
85.8106253288532
86.204306429549
86.5187092951681
86.7358178507339
86.8600460825383
86.903182053713
86.8775680235019
86.7958859381522
86.6709760419985
86.5156912405858
86.34278922899
86.1648628394424
85.9943079673244
85.8433278145567
85.7226184884807
85.6310481629696
85.5615103464021
85.5069362831096
85.4603146323585
85.4146726285169
85.3630687391887
85.2985966572883
85.2144004750594
85.1037008235129
84.9598316223589
84.7765695600096
84.5567510118428
84.3136188828144
84.060768245205
83.8114919532473
83.5787730178813
83.3753178743323
83.2136282663802
83.1061101667004
83.0652193120163
83.1036445446928
83.2345322544974
83.4677474894686
83.7926241786165
84.1916312454043
84.6469762449705
85.1403176975961
85.6525452081207
86.1636374737345
86.6526073989024
87.097545648467
87.4757743068226
87.7641204437519
87.9447427890481
88.0241340632723
88.0161330899465
87.9351496603149
87.7959027172412
87.6132027475068
87.401782553468
87.1761780789611
86.950658944565
86.7392070355559
86.5555408713184
86.4108737322802
86.3028963617877
86.2245553138543
86.1689117766496
86.1291062720394
86.0983279762532
86.0697950351448
86.0367456603888
85.9924398883102
85.9301719069468
85.843292810893
85.7259423686239
85.5798956818947
85.4115319806141
85.2272405554638
85.0333270682449
84.8359953233613
84.6413383826829
84.4553386364524
84.2838764192597
84.1327467892541
84.0076841663113
83.9143696436562
83.8554747996368
83.827871377003
83.8278401610284
83.8517215366117
83.8958929910996
83.9567499466944
84.0306897786758
84.1140989400251
84.2033431654179
84.2947607686235
84.3846590773824
84.4693472056837
84.5452999167034
84.6090413468899
84.6570838792248
84.6859394646308
84.6921339116518
84.6722239861761
84.6228172057422
84.5405941508846
84.4223330469138
84.2649362954861
84.0656434096729
83.8267897370347
83.5560848204047
83.26140054339
82.9504506229201
82.6307556229009
82.3096224361633
81.9941373439077
81.6911716710839
81.4073990649158
81.1493235186736
80.923317431589
80.7352337218887
80.5842484270385
80.4644537846758
80.3699523070516
80.2949556763908
80.2337525119352
80.1806846596999
80.1301316802181
80.0765033277261
80.0142398830115
79.9378202237425
79.8417774920418
79.7211082697481
79.5776173985809
79.4188011745634
79.2522432966134
79.0854112704137
78.9256494556322
78.7801859620081
78.6561528261075
78.5606190088456
78.5006359597651
78.4832957936995
78.5158025199845
78.6054368994711
78.7530415193714
78.9495196878676
79.184942099737
79.4492686654155
79.7322592657981
80.0234094334606
80.3119122301988
80.5866481727613
80.8362053538826
81.0489318732743
81.213022287658
81.3171300953243
81.3598394441604
81.3490401094194
81.2931842100763
81.2008475937728
81.080644449653
80.9411597654011
80.7909000916001
80.6382625606301
80.4915217545272
80.358833825601
80.2482572380107
80.1674679863389
80.1185347442486
80.0988332888125
80.10566116765
80.1363705659351
80.1883516067526
80.2590175510058
80.3457917778023
80.4460964650506
80.5573429234006
80.6769235652188
80.8022055143463
80.9306919066772
81.0616518256328
81.1954451421736
81.3324525480928
81.4730603109398
81.6176606110214
81.7666519194437
81.9204394189577
82.079435469551
82.2440601209213
82.414741674192
82.5919172839805
82.7759769504247
82.9671308895364
83.1655562338118
83.3714359392067
83.5849590724096
83.8063211133314
84.0357242738034
84.2733778335551
84.519498494616
84.7743107553807
85.0380473056675
85.3109153827962
85.5928611376709
85.8837038835216
86.1832595215288
86.4913407346222
86.8077564381657
87.1323112300761
87.4648048400925
87.8050315780341
88.1527797809991
88.507831259588
88.8697243599528
89.2368314602688
89.6071204308495
89.9784902181724
90.3487691915466
90.7157144268208
91.0770120861769
91.4302789853315
91.7730654387585
92.1028594700127
92.4171888821737
92.7154700182193
92.9989220693057
93.2688826617583
93.5267381034966
93.7739196990829
94.0119003976315
94.2421918166395
94.4663416812536
94.6859317152725
94.9025201188191
95.1155909695607
95.3219196382857
95.5180516840166
95.7004823678123
95.865665064708
96.0100223627662
96.1299598893986
96.2218828666011
96.2822153495257
96.3075805250617
96.299652888146
96.2660438426487
96.2147301290566
96.1536813196095
96.0908371647522
96.034098126726
95.9913289696647
95.9703752553832
95.9790926634073
96.0251635155741
96.1092600669718
96.2237503231147
96.3605139297276
96.5113764401367
96.6680779895052
96.8222558126037
96.9654409911537
97.0890698938795
97.184510744648
97.2433385832778
97.2612227882865
97.2373724204089
97.171213564875
97.0622849366493
96.9102422859953
96.714862060442
96.4760442680274
96.1938144960349
95.8683250498274
95.4999716217524
95.0915747523394
94.6480904339419
94.174480416194
93.6756007945352
93.1561767003694
92.6207823125305
92.0738259210925
91.5195397075849
90.9619738614643
90.4049946287648
89.8517573401729
89.3024945498461
88.7565220653253
88.2131872144477
87.6718685180964
87.1319748763629
86.5929448489858
86.054246019304
85.5153744316222
84.9758540924788
84.4352365268544
83.8932457644422
83.3529258459631
82.8204277917422
82.3017310322996
81.8025169723554
81.3281972836937
80.883948687509
80.4747534579917
80.1054451034421
79.7807589227083
79.5053873919079
79.2840406112487
79.1214032488886
79.0173884733571
78.9653337039561
78.9583294094711
78.9896417363012
79.0526413540997
79.1407444186362
79.2473648966559
79.3658778781575
79.4895937988368
79.6117437155052
79.7254759213686
79.8239178125279
79.9031339638529
79.9636984944422
80.0065906494709
80.0328185363877
80.043414747285
80.0394321643919
80.0219399773704
79.9920199369492
79.9507628653687
79.8992654401825
79.8386272642532
79.7699490567279
79.6943872307721
79.6131880959268
79.5275995472866
79.4388607247321
79.3482008717527
79.2568385830452
79.1659814330293
79.0768259767224
78.9905581142209
78.9083538103011
78.8313801613752
78.7607960776874
78.6972296127676
78.6398593754001
78.5876240569192
78.539470193923
78.4943509287727
78.4512250559996
78.4090563496342
78.3668131673958
78.3234683282807
78.2779992603849
78.2293884157885
78.17662394903
78.119092109203
78.0586992192948
77.9983352537565
77.9408750459014
77.889176909712
77.8460858497942
77.8144388445373
77.7970721903053
77.7968309138836
77.8165802861394
77.8592195021801
77.9276976326673
78.0248974064213
78.1510956154174
78.3041429499951
78.4818184380291
78.6819063602695
78.9021822109832
79.1403998673955
79.3942799362585
79.6614992757622
79.9396817183672
80.2263900451098
80.5191192845017
80.8152240396539
81.1110585386693
81.4022004909311
81.6840875738277
81.9520385657579
82.2012654718158
82.4268913945549
82.6239743828971
82.7875373916163
82.9126043512516
82.9942421843269
83.0276088896682
83.0103552192283
82.9481002801399
82.8481978391085
82.7180489832595
82.5650422501377
82.3965069798361
82.2196799697946
82.041685216119
81.8695263290968
81.7100911118621
81.5701677839393
81.4564349548467
81.3721534447391
81.3145880096792
81.2804519091988
81.2665136111536
81.269579495905
81.2864792466666
81.3140538092607
81.3491458489085
81.3885926672075
81.4292215696592
81.4678476932587
81.5014504586508
81.531054735491
81.5617469162893
81.5988057463821
81.6475311718324
81.713256075711
81.8013650209738
81.9173202008656
82.0666949225938
82.2552151191649
82.4888096036243
82.7736700583583
83.1138993740475
83.5009455953719
83.9217519469108
84.3628040861082
84.8100375706406
85.2487860758404
85.66377793732
86.0391864231334
86.358738883601
86.6058887809382
86.764052446341
86.8196819393529
86.7776542435464
86.6505454379202
86.4513556850366
86.1932601815541
85.8894147103372
85.5528011700997
85.196113859521
84.8316856102296
84.4714517103225
84.126948917015
83.8091605129856
83.5218386104123
83.2598809295322
83.0177840273294
82.7901985565602
82.5719065383735
82.3578057094436
82.1429005012099
81.9222992781682
81.6912174964863
81.4449864471119
81.179067222288
80.8894056826029
80.5779243136636
80.2514349482085
79.9167177950545
79.5803447632771
79.2486735176675
78.9278520626415
78.6238329748486
78.3423964800596
78.0891817014827
77.8697255860674
77.6895092369062
77.5540045134208
77.4669644122177
77.4281714734606
77.4370101431213
77.4930415969898
77.5959982571563
77.7457799083625
77.9424513362385
78.1862414358191
78.4775437635157
78.8169185295979
79.2050960518426
79.6429776576122
80.128668391787
80.6519679413592
81.200762399662
81.7622925637008
82.3230811326312
82.8689006914253
83.3847887876623
83.8551166845955
84.2637178903996
84.5940811491914
84.8296100961004
84.956797991932
84.983007519438
84.9251305904093
84.8005739082164
84.6269173700298
84.4216769285986
84.2021402541288
83.9852750011686
83.7877072907592
83.6257670724311
83.5155972522974
83.47317431866
83.504138035366
83.5971763394806
83.7395774264677
83.9186620170545
84.1216510388471
84.3355714791564
84.5472010105207
84.7430529645155
84.9094037034116
85.0323643716596
85.0979984777711
85.0970292119658
85.0369930351539
84.9294045395395
84.7858513558084
84.6178814862905
84.4369222791212
84.2542309709307
84.0808759882427
83.9277478203176
83.8055982402083
83.7251069319244
83.6964736906696
83.7212910745784
83.7939127666375
83.9085934491824
84.0596624685008
84.2414697585986
84.4483395513062
84.6745315848031
84.9142097665454
85.1614184487055
85.4100666358764
85.6539369308444
85.8875881375069
86.1068571410503
86.3076264215794
86.4857258432033
86.6369518138308
86.7570906200207
86.8419458839709
86.8873699876075
86.8892991916511
86.843792048356
86.7471123905023
86.5995036898613
86.4080879385147
86.1807042795026
85.9251391279867
85.6490702153117
85.360024978323
85.0653528984879
84.7722111443779
84.4875627260435
84.218186321672
83.9706969748849
83.7505750655117
83.5568093016753
83.3859210702924
83.2345193479743
83.099289927686
82.9769812140548
82.864392792036
82.7583666214691
82.6557807440726
82.5535454143983
82.4486015829259
82.3379310146048
82.2208800377907
82.1021747476053
81.9872422403432
81.8814496670216
81.790112891086
81.7185120266617
81.6719137473301
81.655600358809
81.674905768817
81.7352586655352
81.8422334364782
82.0012925660139
82.2096367121514
82.4552771843013
82.7255840967391
83.0076478926853
83.2882194900403
83.5536911172341
83.7901206987036
83.9833026442571
84.118887261462
84.1825496845179
84.1602083217415
84.0439138963989
83.8449865273524
83.5789010610522
83.261135254356
82.9069569985001
82.531269621923
82.1485139723636
81.7726240972223
81.4170323370639
81.0947194281733
80.8183056620729
80.6001656563699
80.4468095539043
80.3503161345744
80.3008306397934
80.2887350974464
80.3045474053367
80.3388441697644
80.3822061748255
80.4251860154978
80.4582978572804
80.4720294954682
80.4568768781456
80.4034370748212
80.3085259614949
80.1819339459962
80.0350501079105
79.8791450237153
79.7253302980567
79.5845496315212
79.467600280227
79.3851838410399
79.347985714888
79.3667833439256
79.4525843879932
79.6167818303523
79.8650779547171
80.1877772761399
80.5727780382534
81.0078003176079
81.4802025930847
81.9768334507918
82.4839208424728
82.9870031350781
83.4709075507224
83.9197823833456
84.3171894311699
84.6480619111173
84.911392164656
85.1132495642675
85.2601657621567
85.3590043035312
85.4168766621914
85.441067561328
85.438971133733
85.418039005256
85.385740977092
85.3495386533404
85.3166543470493
85.2899476943059
85.2682739068596
85.2503432192531
85.2348692764754
85.22056819781
85.2061580293009
85.1903585828606
85.1718916604907
85.1494816620526
85.1218565744973
85.0877702402072
85.0485096974136
85.0102619598405
84.9797553735704
84.9637017952443
84.9688141491192
85.0018346061462
85.0695735489817
85.1789597117057
85.3371021859705
85.5513653764438
85.8294576719484
86.1755181722421
86.5806351225615
87.0329706797906
87.5203290506417
88.030030967488
88.5488208107173
89.062810012047
89.5574613954396
90.0176196846831
90.4275934108275
90.7716765603608
91.0443025935556
91.2513851017215
91.3998335822122
91.4969030204443
91.5501055068033
91.5671315434633
91.5557826436814
91.5239163370331
91.4794042687749
91.4301037373259
91.3827089868811
91.338910666732
91.2990285451614
91.2633821613861
91.2322911525579
91.2060755651074
91.1850561888103
91.1695549139595
91.1598951121233
91.1564020410875
91.1593131789395
91.1660326744303
91.1706254630265
91.1669630861309
91.1489221426599
91.1103994853887
91.0453355570286
90.9477456786808
90.8117589517292
90.631664242985
90.4019624982793
90.1192488956199
89.7932556320745
89.4391199269854
89.0716206293284
88.7050917982859
88.3534071722487
88.0300092514238
87.7479794226293
87.520146242152
87.3592301530248
87.2780245039811
87.2868677804003
87.3770731708586
87.5318828235625
87.7346063967498
87.9684369408359
88.2162964361619
88.4607455085085
88.6839600990745
88.8677788276366
88.9938246133194
89.0437028346962
89.0042437098081
88.8808574153101
88.683480070458
88.422282505463
88.1075171033783
87.7493870363763
87.3579393731437
86.9429824073158
86.514026660299
86.080248357189
85.6504737540798
85.232494434962
84.8289615301121
84.4403545535843
84.0671321464387
83.7097429806549
83.3686281275737
83.0442234338635
82.7369619102781
82.4472761396293
82.1756007115584
81.9223746928781
81.6880440657898
81.4726849664499
81.2751399873824
81.0940356832549
80.9280406514634
80.7758604461483
80.636233016838
80.507924631271
80.3897262481067
80.2804503105554
80.17892793655
80.0840064850214
79.9945476612362
79.9103075091808
79.8339670209173
79.7687944673292
79.7180443288317
79.6849678255796
79.6728260954115
79.6849060695443
79.7245391463338
79.795122824064
79.9001455260692
80.0432149375335
80.2280885500098
80.4559627887467
80.71981311023
81.0109386929459
81.3204428183808
81.6391796692283
81.9577203991285
82.2663399581211
82.5550264063161
82.8135144908769
83.031345065994
83.1979514713587
83.3033579004902
83.3479395155431
83.3410078944465
83.292359746123
83.2118931745781
83.1095207524771
82.9951059931547
82.8784234619541
82.7691422537214
82.6768322850057
82.6109928011747
82.5811026701624
82.5943607553623
82.6468263412794
82.7312554913545
82.8404303949956
82.9671100874358
83.1039930389514
83.2436923376569
83.3787237302794
83.5015069238278
83.6043805932876
83.6796314805528
83.7197987683608
83.7244549924862
83.700835641958
83.656607478499
83.5994443445036
83.5369964979329
83.4768740185716
83.4266441731833
83.3938425536116
83.385997834539
83.4106701342481
83.4755032018034
83.5861640153972
83.7391383548961
83.9284067804437
84.147941278228
84.3916559138035
84.6533658492405
84.9267548864228
85.2053518565371
85.4825163555633
85.7514344525518
86.0051250654803
86.2369129756725
86.4432601506696
86.6220191909179
86.7710681331492
86.8883181891804
86.9717278868691
87.0193179216221
87.0291865663833
86.9995254631855
86.9286355960558
86.8149432242355
86.657749729388
86.4628599165726
86.239347303378
85.9962023149724
85.7422563516834
85.4861520613717
85.2363317010649
85.0010425958496
84.7883586871823
84.6062172832813
84.4624703668543
84.3648310488594
84.315683403609
84.3100827010488
84.3426810962679
84.4082285072014
84.501528078321
84.6173984468965
84.7506424812715
84.8960223409999
85.0482408546971
85.2019293250825
85.3516446073067
85.4937991293823
85.6301137700083
85.7632545469641
85.8959224265837
86.030852311013
86.1708137453867
86.3186134028598
86.4770994101385
86.649167585885
86.8377696795196
87.0459222799982
87.2744295198275
87.5171630133652
87.7665504761801
88.0148500411968
88.254144175602
88.476347601624
88.6732300102985
88.8364542472178
88.9576304182251
89.0283860043888
89.0405400439336
88.9923070869069
88.8922760799418
88.7500976879685
88.5754419298429
88.3779181828028
88.1670163837681
87.9520692325511
87.7422347690511
87.5464984552577
87.373693832263
87.2324608434157
87.1257826522187
87.0475266954417
86.9908193166709
86.9488618605911
86.9149022937718
86.8822175131715
86.8441061444875
86.7938917140561
86.7249360914006
86.6306630462172
86.5046174681787
86.3448281576115
86.1585938470016
85.9543117524927
85.7402555869454
85.5245497990957
85.315159694033
85.1198966962386
84.9464380044094
84.8023599897578
84.695184896574
84.6324407088801
84.6197818679116
84.6516085839892
84.718320293787
84.8103542026075
84.91812258753
85.03196599274
85.1421280991335
85.238752700319
85.3119033539889
85.3516061987979
85.3479161233478
85.2917226819562
85.1838413086956
85.0322394369578
84.8450799566781
84.6304916707631
84.3965105190293
84.1510365930372
83.9018065836281
83.6563810293072
83.4221455836366
83.2063254839554
83.0160119564152
82.8556865384742
82.7214961965199
82.607970070675
82.5097322673408
82.4214784020492
82.3379592546103
82.2539712804756
82.1643537929619
82.0639926646648
81.9478303948425
81.8108823543816
81.6483313195498
81.4605298911894
81.256107682209
81.0443142479532
80.8342193428293
80.6347076818507
80.4544935390102
80.3021541904627
80.1861814377715
80.1150508348866
80.0973087854622
80.1416783789355
80.257046645498
80.4449625563744
80.6955718451314
80.9981000581842
81.3416579674495
81.7151101354646
82.1069715838202
82.5053340313626
82.8978242422303
83.2715977689667
83.6133717320369
83.9095001643529
84.148577001667
84.3323893465189
84.4673788615973
84.5602663668817
84.6179760630722
84.6475719303974
84.6562047812656
84.6510707856962
84.6393819611683
84.6283488680199
84.6251755848189
84.636781808657
84.6651318673451
84.7079839700938
84.7629691686433
84.8277179886995
84.8998542589308
84.9769902579956
85.0567231850396
85.1366329690364
85.2142814391857
85.2872128822606
85.3529753958797
85.4104653170388
85.460809695174
85.5053521392971
85.5454447154222
85.5824463285811
85.6177215290523
85.6526397489177
85.6885749737597
85.7269058535921
85.7690162569785
85.8162965726501
85.8703625692686
85.9334432118112
86.0078886462428
86.0960730243188
86.2004014291618
86.3233182039541
86.467316757704
86.6349509441815
86.8288481366973
87.0517241530756
87.3063966594395
87.5932073437395
87.9053309701724
88.2345398809726
88.5723767687076
88.9101274892209
89.2388102234087
89.5491823269827
89.8317662422779
90.0768957219228
90.2747833101521
90.4159570837694
90.4990338292986
90.5308581202418
90.5188340338153
90.4705007780305
90.3934660925858
90.2953518676583
90.1837524783833
90.0662059959856
89.9501781884961
89.8430590671612
89.7514150301868
89.6764066267215
89.6168856844775
89.5717173577795
89.5397857053357
89.5199902785926
89.5112430188783
89.5124654474605
89.5225861357793
89.5405384458932
89.5652580919601
89.5949817789827
89.6258235743415
89.6534876926698
89.6736682187356
89.6820542197339
89.6743390018629
89.6462334946724
89.5934837011007
89.511892089453
89.3973427268657
89.2459300634503
89.0594496021736
88.8480997195358
88.6226336021276
88.39361393793
88.1713931401859
87.9661183730105
87.7877601291475
87.6461632836075
87.5511199362727
87.5124639486228
87.5399468446945
87.6326753906891
87.7748101428633
87.9493854980028
88.1392647585977
88.3270455121743
88.4950322404723
88.6252789080167
88.6997041658927
88.7002804807263
88.6092959127857
88.4106045607291
88.1073088604906
87.7198721342127
87.2692708574491
86.7760229609836
86.2599539048251
85.7400605240828
85.2344647796281
84.7604479928383
84.334556220709
83.9727688203074
83.6907234105314
83.4977654633152
83.3829384889841
83.3316069559616
83.3295433469919
83.3627358145101
83.4172458417003
83.4791134142715
83.5343088943652
83.568731795759
83.5682570074016
83.5188286939671
83.4072651641682
83.2322949400881
83.0026946098493
82.7276051885538
82.4161125601332
82.0771614948824
81.7194901066398
81.3515842126184
80.9816505716745
80.6176076752136
80.2670926318757
79.9374827008306
79.6357804460811
79.3658483278346
79.1287830495675
78.9256216331289
78.7574553501147
78.6254406188664
78.5308106265254
78.4748878232855
78.4590974584869
78.4849823548089
78.5542191485058
78.668636261558
78.8301612989539
79.0368457150702
79.2806803372465
79.5530537158156
79.845180933558
80.1480473845269
80.4523716382131
80.7485887529911
81.0268556820515
81.2770804926907
81.4889769649168
81.652145717425
81.7568404718249
81.8035531491197
81.8009371283598
81.7580558274157
81.684073345055
81.5881748624887
81.4795074478554
81.3671415370097
81.2600529053519
81.1671246816526
81.0971688820236
81.0589670523752
81.0604774095948
81.1023339766688
81.1814608060216
81.2948344239472
81.4394882017614
81.6124877262738
81.8109084948683
82.0318157633639
82.2722464409513
82.529192985464
82.799589305042
83.0803029341494
83.3691822022325
83.6664871115067
83.9728371267553
84.2888718561618
84.615252489468
84.9526633694724
85.301813707831
85.6634394573645
86.0383053544734
86.4272071468435
86.8309721060173
87.2490599747634
87.6769975050077
88.1094573653609
88.5408983281537
88.9655604672547
89.3774676449973
89.7704380192765
90.1381032780504
90.4739372340591
90.7712942806778
91.0237660595644
91.2303320781551
91.3947005130615
91.5209115959374
91.6131573280906
91.6757480604787
91.7130823461713
91.7296204905997
91.7298621163737
91.7183279626124
91.6995457150222
91.6775003486528
91.654535541055
91.6326825505704
91.6139688347277
91.6004189929137
91.5940566037576
91.596906956471
91.6110006796249
91.6383782767644
91.6810955858836
91.740807062309
91.813439582354
91.8907539461904
91.9643679363116
92.0258466111883
92.0667167383029
92.0784968287491
92.0527427881195
91.9811089065712
91.855423502781
91.6677909348819
91.4158309447397
91.1104113806912
90.7643366983617
90.3901794917132
90.0001901374596
89.6062417509523
89.2198082704247
88.8519730887727
88.5134656182161
88.2147234505223
87.9659225229456
87.7704211452751
87.6186808814583
87.4999482880198
87.4036757482632
87.3194544769224
87.2369732079583
87.1460016727822
87.0363982691053
86.8981413677667
86.7213835178565
86.4965383297716
86.2187211660545
85.8942847984897
85.5312596388065
85.1375490222883
84.7208695511144
84.2887065870783
83.8482841736307
83.406548402433
82.9701630875613
82.5455165575643
82.1387384065174
81.7556096972904
81.3981141923959
81.0639890248037
80.7508329419286
80.4563409583571
80.1782930486924
79.9145443850245
79.6630169769513
79.4216925945983
79.188606873638
78.9618445164521
78.7395355157646
78.5198523366725
78.3010080003049
78.08125501761
77.8588851252079
77.63222977705
77.3996613459561
77.1595949881328
76.9104911216587
76.650858466839
76.3792575924347
