Value(μV)
28.2396363511687
1.22589275480635
-10.4904762368843
-11.5284706773015
-12.2666414839513
-17.5818248182246
-24.0047984315841
-26.2994540239093
-24.2251813441029
-21.982443096955
-22.6722708504019
-25.3744290629697
-27.7524165228732
-29.7202580315699
-33.1487956081109
-38.5741141488532
-43.8618914399369
-46.7355557252744
-47.6258279762816
-48.9197722715748
-51.6503687771172
-54.0830166609481
-53.9799234533739
-51.3390332084601
-47.8903690421052
-44.1903688233828
-38.5168741427675
-29.3369487100634
-18.1661386137118
-8.87713378438465
-4.06722908019964
-2.94285646303454
-3.19737752139345
-4.16077027022752
-6.97779163839931
-11.7117080227661
-15.511643167232
-14.644116656162
-8.06996830177046
1.79809472032301
11.7977827488855
20.4215086826633
27.0628347096783
30.087834050772
27.568817103467
20.4557476830856
13.4952261796341
11.0889971264374
11.9256721120234
8.94712946078194
-4.43373429131628
-28.5474288542022
-58.5941437038984
-90.8127017427867
-125.638131841009
-163.872700895895
-201.28493712144
-229.495120503107
-242.795171964815
-242.08684850067
-230.023641625767
-202.97833793912
-150.856858862161
-66.8695807387173
43.7451352176052
167.416700475999
295.18265413391
429.370757589399
574.678605030742
723.278160058042
852.688408438298
941.747466775705
988.257280033492
1007.65055239649
1012.17513471459
992.713076817166
924.167833635568
790.441996774843
603.675753271622
398.318141184585
206.951045370055
42.3857879101171
-98.8430821197193
-220.407939203116
-317.551181454358
-383.730243262199
-421.398095479056
-442.323040736378
-457.075885090608
-466.60897481495
-465.527764051041
-452.099232206876
-432.524741049721
-414.923618089133
-401.154826480943
-386.54359112925
-367.319254656749
-346.323259804312
-330.256374843205
-322.215128043225
-318.464303209681
-312.685636083394
-302.123345794961
-288.741701465124
-275.27272644051
-261.823962258188
-246.845894820994
-230.157345827475
-213.524975704512
-198.221531964064
-183.245956448088
-166.826053382483
-149.201337986135
-132.855108107373
-119.715265676485
-108.849230503558
-97.5747994562997
-84.5591251913829
-71.0554153468628
-58.9499748566912
-48.3520332444935
-37.8287069508164
-26.7745384783005
-16.6208349257384
-9.18802702694119
-4.25992136513614
0.511684021635351
7.22492039553534
15.7847819112422
24.609183993965
32.7864323313957
40.8163678193741
49.149944198945
56.7107205997407
61.5662112728592
63.0405743540723
62.6268534468879
62.5391293253019
63.6643781457693
65.2910153512506
66.6381955945862
68.0099174905478
70.119058274428
72.6695907614951
74.2692225857332
73.9474478113214
72.399477629125
71.3759862795483
71.9553044618103
73.757412730475
75.857467373011
78.012846720452
80.5986788528324
83.5113142199671
85.7099191895396
86.1846997950063
85.1891154174314
84.1467291098608
84.2884177824454
85.635264026288
87.4250906555414
89.2305690697871
91.260453859359
93.581404729866
95.5121025910217
96.1996780280729
95.7422721443894
95.3860067851984
96.4289391471053
99.0756404997619
102.514469340041
105.928807118755
109.055632097553
111.667100635267
112.902042498349
111.622253796835
107.571319709438
101.926054835811
96.4561021220907
92.1824802130143
89.0071241745804
86.537417104939
84.8729216130672
84.3160868011721
84.5062489363058
84.3091117223742
82.8187587598183
80.3204446231148
78.0034041346716
76.7139325101376
76.1947023898249
75.6091620411058
74.5547530418526
73.2628241361637
71.8570824703349
69.8176766702169
66.5078977911105
62.165360543487
58.0564367607158
55.4739366690444
54.6754385895549
54.9146131614581
55.3716141202545
55.7724040179809
56.048317593289
55.7171228216103
54.0083869201894
50.6977851087625
46.5840329255065
42.9062457496824
40.2916235586788
38.3812750783771
36.4194577255759
33.9541671170563
30.8289172820208
26.7163485811917
21.0789584109993
13.8003489947736
5.70398888145093
-1.82081889225949
-7.79115351460403
-12.1529043737535
-15.3645587277088
-17.7015935532738
-19.1882509917535
-20.1144451511519
-21.2361838046755
-23.1573815451258
-25.5453652239244
-27.2054058342101
-27.0773619557091
-25.1041084611692
-22.071243580938
-18.7495343482818
-15.4345224470285
-12.3394379387084
-10.1268791477159
-9.68896168187629
-11.3162845800305
-14.2750292444359
-17.3841956447984
-19.988178761254
-22.2714068122665
-24.7015046354046
-27.4133162345823
-30.2712316083078
-33.3510661010328
-37.0206709280151
-41.3974129318325
-45.8849134147152
-49.4796789548235
-51.5825902145141
-52.4010409477969
-52.5362858127901
-52.3491448669218
-51.8874137427391
-51.3251232588245
-51.1462439147411
-51.6736845779503
-52.5045580610775
-52.6587828637869
-51.4033787172698
-48.8548815052554
-45.7136370316756
-42.5359657893604
-39.4500604955354
-36.5439116258023
-34.2213597244376
-32.8859572657594
-32.2896139697778
-31.4554823564596
-29.441614685986
-26.1496403350087
-22.2868116824513
-18.6137271082914
-15.4458933778489
-12.9505335585747
-11.6641755217559
-12.3369675393311
-15.1326584500139
-19.1728253230336
-23.1105301661446
-26.1780238126611
-28.5482296350373
-30.6775664882613
-32.5270651130919
-33.6358676283956
-33.8666095892729
-33.7562046930379
-33.9334611540844
-34.317472725161
-34.1549789193861
-32.9260603948125
-31.0516304952316
-29.5685138665875
-29.1946816526035
-29.8933134991694
-31.3294407721219
-33.4693971755913
-36.4788297540414
-40.0978306612607
-43.425436952386
-45.5327360608758
-46.2318589735361
-46.0986799278208
-45.7722956958572
-45.41340632366
-44.8929255593003
-44.2646411546919
-43.7364272123741
-43.1364121170563
-41.6833746884594
-38.5637653190265
-33.7507048007623
-28.0968699718491
-22.5827537823237
-17.6328192451791
-13.2746861819868
-9.77751525678718
-7.76604779467615
-7.53446489468145
-8.43918293211878
-9.28299461337356
-9.39954539117165
-9.22725852613254
-9.73130265937542
-11.4001138144867
-13.9869989546395
-17.1491668135493
-20.9926088165649
-25.7335566865172
-30.9358774304293
-35.4162075022652
-38.0837486815788
-38.7766383248556
-38.1453178880947
-36.8206845621187
-34.9353859598445
-32.4831501505622
-29.829161233525
-27.512845920331
-25.5337306735755
-23.1350680498266
-19.5314909213208
-14.7770078968425
-9.71608384351872
-5.09957176950525
-1.00845505890288
2.70797222679702
5.66085330703006
6.9917596038744
6.34702808401942
4.53373205016878
2.91229697925682
2.15145630926368
1.82553749512176
1.31618551927226
0.846308640580681
1.32155577000328
3.20353527320815
5.90151752616825
8.50118242704266
10.8987597524629
13.848675007447
17.8150759583828
22.0750770179793
25.237861966011
26.5691292516763
26.5189766245036
25.9005713944236
24.8765491398811
23.0696439720415
20.5585759692707
18.3209333858028
17.4184109104081
17.9048823317227
18.8430582308783
19.4064582991362
19.6793165490259
20.2324270906691
21.1965555748619
22.1694674535633
23.0683593460084
24.6547101491268
27.8288361495618
32.4678008514988
37.3025313709421
41.0547903087305
43.4219640088619
44.7010624148584
44.6723439478959
42.3930585893357
37.3423740323679
30.4515109955838
23.5227843107151
17.5599406509186
12.0131210421635
5.87395007639681
-0.778492952625434
-6.76510548379607
-11.3247817087843
-15.1398365969979
-19.4504818918207
-24.3433961062197
-28.4497599073821
-30.5267425263934
-30.9572932935754
-31.2664723106927
-32.28370945501
-33.3104200723661
-33.3173698155612
-32.5296053685348
-32.2605511855644
-33.1992519964944
-34.4454460899449
-34.6279191641881
-33.6651778573441
-32.8314722552635
-33.0311338961967
-33.6140519759247
-33.3857001631665
-32.4849154818093
-32.5092081370694
-34.538907535786
-37.6341328086166
-39.9462777380529
-41.1175641076821
-42.6674869785956
-45.4702418619052
-47.3891353298919
-44.4433146164738
-34.7256920171388
-20.691571071473
-7.09025419692845
3.04666706347327
9.62443230343895
12.6590814228063
9.20286217687807
-5.82746932781158
-35.5192775596239
-78.0393761446995
-127.750380043143
-178.360014387213
-224.356334459455
-260.237396561152
-280.465135528072
-281.769393036826
-265.234375902278
-234.722860201737
-192.566764404801
-137.477476497191
-67.3332591116269
16.9091519871358
111.981146340922
217.512264116563
338.378592877516
478.649278569377
631.787734036782
778.438779220368
896.686727904482
975.76748894086
1018.86291982689
1031.50736343037
1008.26350583387
933.343985390021
796.298426435663
607.235651996577
395.74476092978
194.189349014375
21.3128590306857
-119.998419602235
-232.771476544354
-317.165120170113
-371.594175488628
-399.306204423541
-410.211406805566
-414.99230874319
-418.487900893867
-419.75768793376
-417.56228001551
-413.725589640704
-410.511448936567
-406.385742924278
-396.607654117332
-378.619681954006
-355.731548067611
-334.40233970737
-318.159677960369
-305.149095915547
-291.72940843475
-277.304928919287
-264.56222330067
-255.31170786774
-247.469780939599
-236.944085228156
-221.957969411872
-204.555797522906
-187.804763902766
-172.450632038481
-157.007330540717
-140.642200389281
-124.855678861855
-111.872508530617
-102.007592713919
-93.4100322253202
-84.3560948578364
-75.0651865844272
-66.8722298558262
-60.1013753428019
-53.499551115452
-45.838987578339
-37.4431811532612
-29.6370537491256
-22.9399052863096
-16.4003869298053
-8.84528551050789
-0.286058475115845
8.35428376570334
16.6959695976443
25.4866395173097
35.5124984304418
46.3210513946748
56.4803804969386
65.0206387366349
72.131428268933
78.2250816742817
82.7092667660553
84.2387855014245
82.2508893885179
77.8352488091847
72.7853944101337
68.001340100093
63.2267977329311
58.3438807665477
54.4104218568801
52.9638148287332
54.3888984813905
57.4089243626383
60.3823482463259
62.8477385523248
65.5062717392864
68.8355537282389
72.1964688374604
74.5456134505067
75.7523695496087
76.7765888494547
78.4716570718878
80.5269805831027
81.8306561696369
81.712985431781
80.5048809252493
78.8482032799855
76.8130685656729
74.0068436534333
70.4452152862963
66.9392064016199
64.4425111511329
63.2050168614758
62.8068548271409
62.9483467511211
63.8901098173205
65.9712254925028
68.9179207351045
71.9411139642304
74.5356152177608
76.9188080557989
79.5089550367542
82.1313000458813
84.0260449426106
84.6845660663721
84.4386721584313
84.0339626908688
83.7368087325838
83.1226318478251
81.7874327132155
80.0099212378238
78.4641890854521
77.3425789786013
76.0388825457794
73.8285628203029
70.7003845439844
67.310437932302
64.166381890052
61.114192884162
57.7521171542345
54.1559141969174
50.9027000090732
48.331140914208
46.0067429581298
43.1175077314124
39.333010732411
35.0759633303561
30.9236856169956
26.9584015899865
22.8945740112243
18.7523299556341
15.1248191978098
12.6351615891374
11.2546511277878
10.3470019224909
9.37809959791082
8.40211149344532
7.75938080375701
7.44084663912274
6.95799905911066
5.85030478849009
4.13131294184874
2.09972761208019
-0.188828216947272
-3.05070841478059
-6.71292237443808
-10.8554706833402
-14.7399552316265
-17.7492046087064
-19.6780619157697
-20.5139579479969
-20.1444321853917
-18.4776462242503
-15.8261010310659
-12.9782343871049
-10.758353504575
-9.5433041771191
-9.25974873365872
-9.75916747276288
-11.0104339590323
-12.8718231605596
-14.8456387928991
-16.2811857766301
-16.8720734568424
-16.8384281285093
-16.5437034855978
-16.0205128556205
-15.0011305204912
-13.3820199717011
-11.4737427191402
-9.67859233486718
-8.02541508283889
-6.21780017006634
-4.18377176933274
-2.41628282940621
-1.60824897161459
-1.97659971548956
-3.09237334735499
-4.42036066237222
-5.8914427664014
-7.81147775564666
-10.2770927327389
-12.9019507729589
-15.2392083910917
-17.3594331396981
-19.8092521365265
-22.9428936688247
-26.4096616198619
-29.3952242842082
-31.3044030432164
-32.0919390160986
-31.9640657721432
-30.9760346606175
-29.1086862260696
-26.698684762583
-24.5853863475532
-23.6837207577511
-24.4176339274451
-26.6066472936699
-29.8216308275575
-33.6989432049881
-37.8859045750037
-41.8685501922162
-45.0898454798483
-47.3089460486651
-48.744391115626
-49.7743130882622
-50.5335260556598
-50.8761688156329
-50.6818632078647
-50.0394007327653
-49.050066266056
-47.5626256257855
-45.2850311647164
-42.2034325578439
-38.7673832926487
-35.5408477945412
-32.6939658747201
-29.9326925019296
-26.9172472522653
-23.6101012571357
-20.1260710273663
-16.3573130816006
-11.9713716524768
-6.87240996432551
-1.53746083431978
3.28162225821212
7.21623964295481
10.5407779873196
13.7436953015562
16.9620181923332
19.9657996956994
22.6298111200486
25.1747682521035
27.7670251763343
29.9495206460512
30.6834204765305
29.0805938542955
25.067649984596
19.2991044456973
12.5257750015614
5.20488544710095
-2.28384697767128
-9.28060113122017
-14.9672215193882
-18.909470520863
-21.3666864230572
-22.9799329719383
-24.2029843218628
-25.1004525922793
-25.6114022554827
-25.804720566274
-25.7777445808709
-25.4342398239187
-24.5733525217088
-23.2542979543236
-21.944705314026
-21.1884920202671
-21.1641290345878
-21.6739982531138
-22.5449582249046
-23.8701783541517
-25.7455027772434
-27.8763035246195
-29.6691935564837
-30.8052941898424
-31.6060084442396
-32.6851998154676
-34.254029674956
-35.8943083265403
-37.0410874166731
-37.5383957369023
-37.5818267076418
-37.1955674008535
-36.0096737184264
-33.6901225433224
-30.4772891859421
-27.1021757801406
-24.1337144533086
-21.5384502546661
-18.9490635143674
-16.2240848711319
-13.5517662243466
-11.0288152570666
-8.39285960714773
-5.37233496901295
-2.21913520675343
0.351619040875234
1.85308970382974
2.52375018428286
2.99858225546423
3.57859324644676
4.05451116620338
4.30179927644457
4.79709606083814
6.25300085178928
8.74124520819326
11.4547012987267
13.5520557926673
15.1591900062171
17.324328491543
20.9588617298734
26.0182158211321
31.8351819227369
38.0397379829664
44.7752695608781
51.8828321818427
58.1341993765916
61.6268045911287
61.0486805748458
56.4592240242555
48.8401552080187
39.1371837030969
27.9709345915023
16.1455891610243
4.98156451160118
-4.20805871857054
-10.9444215938474
-15.6822280819523
-19.0698174264291
-21.3198819531724
-22.4126096475084
-22.6710546573018
-22.7528073110869
-22.9842983999126
-22.9927520298338
-22.2812337108891
-21.0862669400212
-20.3430469792883
-20.6729495354342
-21.632509201151
-22.2164095916153
-22.0065704419629
-21.4830398274055
-21.0853251115796
-20.296377451549
-18.0792619646081
-14.2579104799661
-10.1237962391934
-7.42713143176707
-6.90882117636519
-8.07947944867714
-10.3354922503977
-13.8259793992036
-18.9251414418061
-25.0880044838833
-30.6798858895733
-34.0110905765713
-34.1962990947631
-30.859510044682
-23.5490807249728
-12.2955228807899
1.01318472191013
12.4984486501168
18.4425523081544
17.8450436152143
12.4548629672366
3.98971482254925
-8.36478640656982
-27.2665388817005
-54.2021389707601
-87.712799328045
-124.578069716799
-161.698423937222
-195.737579892694
-221.350260034081
-231.868666909338
-223.753388616623
-200.394861292473
-169.627362344242
-135.642936920593
-93.216397533439
-31.0870403483643
58.0928747660663
171.216355196668
297.884505988322
428.631562471204
558.255753577102
681.175900263261
786.45548476821
861.068318349032
899.187362429353
905.922890967079
888.735896316939
844.62778863354
758.628212264547
618.579062657915
432.947657529412
232.916237532349
54.6809643172904
-82.2991585998707
-181.629070179566
-257.468436851908
-317.978084881843
-360.861714821567
-382.034109404671
-384.782136373922
-378.853948356464
-372.099817225417
-365.339294205408
-355.742545945473
-343.283403564746
-331.963076522323
-324.909067021507
-320.128709929569
-312.422839168104
-299.149747563999
-283.114728546409
-269.698171000008
-261.993088369785
-259.14580370891
-258.499183507502
-257.9486338787
-255.980473409178
-250.744219393728
-240.623530977008
-225.986115470108
-209.463014284979
-193.730542919473
-179.182977737844
-164.328400326431
-148.397165376535
-132.829689546645
-119.73742955095
-109.31001274842
-99.4803095643727
-88.2692093348362
-75.8714816136809
-63.99166618012
-53.496726119323
-43.4814883682276
-32.8296871932324
-22.0570167037758
-12.9414817083318
-6.42684666105571
-1.54446392968243
3.27868828910788
8.27471644488162
12.2568015291703
14.3983774721808
15.4483846073298
16.7961561160253
18.6957225035135
20.0607007445184
20.1280043727765
19.7919292282417
20.8236515944093
23.9457047633617
28.1983728900841
32.3221298297689
36.2762328277708
40.9276425244244
46.4304034848219
51.5594194137872
54.9788440811784
56.8399619060101
58.6357606960731
61.4932216832558
65.0856975808779
68.4831528868723
71.6970506943467
75.7981684666195
81.4233926067612
87.662910254464
92.8564394939284
96.3326489670987
98.8764196562631
101.345518464653
103.247078600224
103.119612664275
100.22128531866
95.3574295010763
89.8302135258628
83.9253132844046
76.9008041452712
68.4429553859713
59.642776949368
52.1910865311475
46.7962224159141
42.7854686988225
39.2764100097447
36.3173124899086
34.568492221158
34.1040489191714
34.0550854203104
33.6224830449009
33.1110227037103
33.589407557643
35.5966599875959
38.5558888406601
41.5869473400993
44.5551198428709
47.9344983029149
51.7217453651584
54.9616120750577
56.6463991033925
56.8880386166132
56.8321522259999
57.3874265416289
58.3707643842065
59.0981245665955
59.5388804337626
60.4327926500753
62.19304594898
64.0859532259141
64.8567850967233
64.0675039503296
62.4449343893407
60.8055083793897
58.970574651243
56.0803151191638
51.858540029859
47.1227338120582
42.8383065923752
38.9602849918334
34.6155409660736
29.4259555014193
24.2536257214286
20.3696248863177
18.0807867156905
16.5427808297777
14.9422562577775
13.473358984657
12.8543064979036
13.0824495903826
13.1337968011246
12.0600626357716
10.0851440296427
8.28878105001979
7.29408768988222
6.63819271358682
5.5628019837265
4.08940415687363
2.91938598255513
2.32242842315344
1.56222073890027
-0.296835777674914
-3.21483598015848
-6.17479648691423
-8.37623815368147
-10.082927481524
-12.0507929323944
-14.3457746184434
-16.1638845588059
-16.9139444598685
-17.1047988476265
-17.7876804870623
-19.1979419917202
-20.3338594139442
-20.0434812262
-18.2653865182087
-15.8932218681905
-13.5316861873342
-10.8288326831041
-7.26120397053126
-3.29364405366388
-0.310427953366357
0.693060082762429
0.049590540599354
-1.15023962028429
-2.35232236359068
-3.90771780411677
-6.1565662372991
-8.57144405627965
-10.1758735341295
-10.7043295007702
-10.9496979809609
-11.8054988697541
-13.2283076970921
-14.4357956038509
-15.014147400044
-15.4322339033208
-16.3044274173642
-17.4544240832568
-18.1020200544579
-17.9603293603097
-17.7628844050419
-18.465148564289
-20.1346320041662
-21.9836015851222
-23.4911309543716
-25.1048248615164
-27.5693763151401
-30.7819066419495
-33.7436773601084
-35.7294959855848
-37.1336438770804
-38.8198395406839
-40.7755711339522
-41.8495684647912
-40.9898224763464
-38.4394682247492
-35.3737980474464
-32.4829247054602
-29.3851126972941
-25.6553720639685
-22.083084764377
-20.3894426065078
-21.5954115074918
-25.0101245805445
-29.0744137770717
-32.9661716824086
-36.9598149876299
-41.210682995349
-44.712085644207
-45.9367699809377
-44.4378320239936
-41.3743603579069
-38.262204320542
-35.4970312500539
-32.4413720957604
-28.8167749804956
-25.4847243196058
-23.5740409241099
-23.1271939359076
-23.0720069332236
-22.5700093209293
-21.9839285106944
-22.2218236734268
-23.3514937285194
-24.3140398313312
-24.0937651407801
-22.7965368742801
-21.2599354643336
-19.7951506816844
-17.7904788381822
-14.7026693617285
-11.0651049358677
-8.10154596011918
-6.39938168123293
-5.36112806731026
-4.12215307051036
-2.68366151366637
-1.76708171468815
-1.66660296467732
-1.75634765113421
-1.40890953447941
-1.1006218260847
-2.11963014014404
-5.11121462434312
-9.28584869796467
-13.3043724429778
-16.6598283487367
-19.7238333523042
-22.443534075354
-23.5695727755974
-21.6815606384865
-16.8718359184626
-10.9266752807396
-5.65845575338641
-1.40424923059106
2.49049411709326
5.95589041659578
7.61821217889053
6.23628716773544
2.33726939837143
-2.13095935442426
-5.80779749957688
-9.11127018326462
-13.1546549420952
-17.837461042798
-21.5968463550423
-23.1288417750719
-22.8328416203706
-22.1190362294426
-21.5203456078414
-20.0922203167379
-16.8605252487167
-12.3739364473876
-8.28852997946632
-5.50833618676416
-3.29208708931693
-0.438665739676759
3.07355339656727
6.16211402118082
8.25319734979018
10.1743572806848
13.0507209828864
16.6605319471533
19.5087192063784
20.6244581496522
20.7620608058701
21.4244467415988
23.00577331361
24.5343387870947
25.3539164755212
26.4269774332048
29.3622536851558
34.3052547537328
39.4764712806032
43.1152514515074
45.448595250738
48.1890638499402
52.2207129530944
56.4780508330512
59.4559141410774
61.3076394423989
63.6605126700105
67.2501803266377
70.4022718372328
70.4126197401251
66.2060903965721
59.0398114267248
50.5573831355609
40.8786462739517
29.2242971201884
16.1131066541678
4.02301631773796
-4.58270604592095
-9.45843881086621
-12.2506600577441
-14.1634616301169
-14.7035120778052
-13.0543008815619
-10.0525541311201
-7.92141420348237
-7.97140215692406
-9.31052651777485
-10.3492262800161
-11.1457924733427
-13.4285570193052
-18.1769807166476
-23.9550449603857
-28.2947153438597
-30.3998955013769
-31.6214913023798
-33.069736938539
-33.5973948050924
-31.0124337515462
-25.1123934057845
-18.5808050839702
-14.4373724621857
-13.2041386307228
-13.3216300203625
-14.0446216868549
-16.7510831293842
-22.7699185101091
-30.649787040372
-36.7494059555221
-38.6685014355789
-37.1301684684387
-33.8840370548082
-28.6234773905339
-19.4575804608429
-6.70134477607201
5.18588385071489
10.8627861841846
9.16122073958901
3.61103320257313
-2.62390447260119
-11.3487366877242
-27.7475869990353
-54.5865814922383
-89.4630944932258
-128.135416351116
-168.677012989119
-210.096347573552
-247.202153078013
-270.078571495481
-271.647638066494
-255.401141184126
-232.480453618719
-208.696463733179
-175.182499501842
-114.319481555387
-15.8616325574827
113.962843535802
259.876282535037
411.672748492092
567.52186032256
722.92878439597
860.842423393244
958.415621439075
1005.36841846499
1012.31229480041
996.484245744314
958.619689769014
877.563183248124
731.729786320301
526.728880829418
299.916704553274
95.9080452992011
-62.9968329168038
-183.479891945856
-282.21424631304
-364.322209244352
-421.375042845815
-446.953589036175
-449.128575583556
-445.522930134581
-447.845611628214
-453.665542172395
-453.09120478213
-440.992194330509
-421.236748124677
-400.637916657328
-381.813317268285
-363.07955977689
-343.506368615731
-325.623607033266
-312.759299003537
-305.264513814836
-300.526944338672
-296.031242991385
-290.992026106431
-284.832626038224
-275.517559431177
-260.795644544054
-240.986998874442
-219.39518388713
-199.34788298275
-181.337539062865
-163.724851205339
-145.938462535627
-129.96825804872
-118.240073214092
-110.628230603036
-104.394033370312
-97.0566097356542
-88.5905485299189
-80.440230131181
-72.9903784204848
-64.9088038993728
-55.0833754743963
-44.4310749779526
-35.1266717488967
-28.2358986213625
-22.7565480330158
-17.1469665936775
-11.2297244548421
-6.05958807868359
-2.15029545508413
1.44093857486412
5.9628666800365
11.372497495475
16.4874665559867
20.7221003145555
25.1255214106226
31.3471041756905
39.8342125490141
49.4983584674874
59.1227567330248
68.5646365671877
78.2067252047023
87.5162466461031
94.7805502089445
98.5520522297692
99.0968397203982
98.0971297207331
97.0102298237187
96.049116362943
94.8069989376649
93.4383896555257
92.7525789540763
93.1531746200738
93.910996854194
93.8031922484891
92.3864192956644
90.4100087208293
89.0003601094588
88.7049557678429
89.4438663102987
91.1132928025072
93.823145625666
97.4376473192825
101.149516041962
103.787157153317
104.548659623285
103.303397760453
100.226719651067
95.4149971576666
89.0426854890503
81.7417152637706
74.4940199659256
68.0092102108441
62.3594239462223
57.3966176454683
53.4466800406993
51.3456877155761
51.6927949780097
54.2202738314154
58.0645774761342
62.5810356609657
67.656837509174
73.1514478968857
78.2645673378242
81.772313883829
82.9800030286783
82.3032867697481
80.7982960808382
79.1924568509071
77.4841869592188
75.3962060443876
72.9368629395765
70.3289449403661
67.497766520181
63.9065800996427
59.0499915555887
53.0502795813649
46.6761184442873
40.8181255636143
36.0409363910792
32.5835743807748
30.5393357739034
29.8082469231632
29.8975387544726
29.9937089361028
29.4149093508773
28.0105722237292
26.0822106382067
23.9761625002238
21.8700331570299
19.9360174980901
18.4896654663799
17.7348701888412
17.3239053070011
16.337744749864
13.8775203686713
9.7208190922145
4.38088091328541
-1.41155184258191
-7.14868687462541
-12.4500994780271
-16.7218086996887
-19.1874208980351
-19.4015273889012
-17.6807958637173
-14.9179632390904
-11.9444976122094
-9.10761545045423
-6.43377360717109
-4.06423448761034
-2.40718390797387
-1.88028829838049
-2.62019606003658
-4.50580369863749
-7.39856125048075
-11.2466049823168
-15.9145608219647
-20.9579859705454
-25.6167047816349
-29.0505509337217
-30.6311870451276
-30.1333060632612
-27.7951558359415
-24.2548320276597
-20.3558876243267
-16.881760048055
-14.3682728772399
-13.0843977684529
-13.0849139510294
-14.1794471717303
-15.8552264229714
-17.3833826176939
-18.2034128722597
-18.3104389567381
-18.2433076637387
-18.6352420792585
-19.7599904200727
-21.4991835323354
-23.6472232611894
-26.0840948945727
-28.580225403469
-30.5535340756007
-31.2379623199774
-30.2242888715101
-27.8166837946421
-24.7942561318345
-21.8288005683398
-19.1751726005196
-16.8737137304034
-15.0772496453749
-14.0300212549707
-13.7546117420245
-13.9251755484693
-14.1648369653367
-14.4320865733392
-15.0188339767728
-16.1569361421706
-17.6986195229601
-19.2061130635718
-20.2643325183938
-20.6155719414464
-20.0502760846991
-18.3634317870004
-15.5677657129397
-12.1228073086499
-8.8241332465856
-6.3915003321849
-5.17099938736879
-5.20508403757949
-6.44335599995095
-8.73320316888567
-11.6299954007549
-14.4269106884213
-16.5740302410441
-18.1012941154299
-19.5453686250809
-21.4269784179381
-23.8573947440292
-26.6681844696865
-29.7826275798661
-33.2678228103832
-36.9956169631632
-40.4362308087357
-42.984824112609
-44.5104709446089
-45.4645721685751
-46.3928463032401
-47.4223413021811
-48.2907093553804
-48.7590933561437
-48.7771052866573
-48.1834175864404
-46.4518305093417
-43.0053044357291
-37.8503477259776
-31.7598230583887
-25.7131445146371
-20.2151268858089
-15.2613240306104
-10.8742125776417
-7.39754641621637
-5.09628237885123
-3.60927222369342
-2.09717876540055
-0.0688566895338685
2.05347267048603
3.3248107943554
3.17202310042331
1.75290570406494
-0.535074338762046
-3.62619641859264
-7.64057923104106
-12.2656282994966
-16.6086855595222
-19.8645309615705
-22.030388864853
-23.7750980249579
-25.6264435405367
-27.4917585022032
-29.0391472047581
-30.2953568472995
-31.5473586049726
-32.6481073504324
-32.7480842147239
-31.001682006232
-27.4936166498847
-23.2360904915839
-19.2014710279696
-15.5677566156997
-12.0615061050736
-8.83477748701783
-6.60949411883972
-5.81972472175616
-5.88269083422876
-5.65490637123431
-4.61951450419016
-3.36567771209741
-2.78269391662962
-3.00933289424891
-3.44638585440294
-3.71003052025704
-4.16823094293966
-5.3027238329333
-6.77297729897097
-7.52450446354222
-6.91834567948785
-5.4609139176074
-4.17621541575129
-3.42009332136671
-2.66283385150156
-1.46495532868992
-0.253316435617332
0.243073498296908
0.197908098682728
0.857473143282853
3.27057354680257
7.0893413789429
10.9635559037939
14.0498182160156
16.7161085156583
19.5631748282085
22.1000313139292
22.9041864634874
21.1736923708818
17.718811196977
14.0984334789663
10.9711205318143
7.73971866207813
3.89470433061225
0.269934333357927
-1.44052265534685
-0.289960898735732
3.22800678061193
8.18443585944579
14.4655344477206
22.5660436378684
32.253327869831
41.9940435687379
50.0296822087714
55.7724643471918
59.7632293059924
62.3743415576869
63.1175669068268
61.5272395215479
58.323609567238
55.0490268632361
52.4165893638677
49.4918938782033
44.8979828730819
38.5873550691768
31.8900166883757
25.7688958082522
19.631570808245
12.380959430377
4.38436738248511
-2.33679496235234
-6.17917309510787
-7.75838054494266
-9.10267000258057
-11.2049496551112
-13.041558233337
-13.2727547387046
-12.3139264584748
-11.957952469552
-12.988754018181
-13.9812402342008
-13.0118536173655
-10.1505533272491
-7.47793615923414
-6.57384656948149
-6.7775969724518
-6.50854788371712
-5.80216389327157
-6.48999787290106
-9.59693974482315
-13.4451058876927
-15.2639327696336
-14.4620840253862
-13.26294262661
-13.6905888294244
-14.8235386738378
-14.1479227201171
-11.4501125651767
-9.95707191571202
-12.6450957500225
-18.0645397518486
-21.2446876119384
-19.1186773131749
-13.9710540015927
-10.5340108660205
-10.3278380565375
-10.5909930293967
-9.50922516641134
-11.2311041936292
-23.8866961834702
-52.2523814342983
-93.3898121423462
-139.997005217565
-186.785760556695
-231.915455865583
-272.499045627213
-301.245212437989
-309.746849579915
-294.754392179498
-259.301535646128
-207.156767811017
-138.191676993291
-51.2357648316546
49.6634279944829
155.707372886498
262.557133313968
377.158396469021
510.744710710858
662.412359615777
811.501728204471
930.133112015692
1004.7594207252
1043.28033187267
1058.60815561582
1046.30127422205
982.392458720828
846.426499435598
646.53792469898
419.878144988812
207.318779366959
27.8437739709599
-123.431807444591
-256.06948408801
-367.472428848365
-445.548157277155
-484.19013329205
-491.903972063735
-484.674069181414
-473.28333205826
-459.769610025223
-444.429531222365
-431.919037584232
-428.029730228287
-432.090289505631
-435.875419447124
-431.362553848227
-418.279378927641
-402.675728883063
-388.884825421547
-374.920028813536
-356.357212530573
-333.026464516997
-309.908658840077
-291.49561797411
-277.019892388207
-262.319461478338
-245.466601809247
-228.909462371663
-215.849579048852
-205.958979516447
-195.905741265502
-183.608627455093
-170.485722093625
-158.970490279952
-148.867711176114
-137.42126612946
-122.887179974306
-106.841284212365
-92.2655858680217
-80.0090450745444
-68.1836857502947
-55.0739997810974
-41.6048919291455
-30.1840053097756
-21.5702181014775
-13.9116075993453
-5.14008902724349
4.45097134080933
12.7195954045836
18.4582176674322
22.7884818598035
27.5013624928705
32.6921729588053
36.8105549450915
38.943669571896
40.2460256733713
42.6646003120481
46.6923007305502
51.0625709924205
54.6508051082979
57.9825402529347
62.3988747331703
68.0950543513578
73.6902564359822
77.8842137185251
80.9901079629587
84.3501352789339
88.4611110854259
92.2914313564266
94.6361654900281
95.6762093434728
96.7104344286882
98.4836367589231
100.341449056564
101.271238161684
101.376301129141
101.810916665158
103.283610393175
105.102466168373
105.960042939449
105.357011021493
103.813166028845
101.728024923878
98.564856224163
93.531177418462
86.8549436932073
79.9264733798975
74.0831872227279
69.6033483391012
66.147735350376
63.9142308224584
63.8218701713664
66.3901535410673
70.8011388581896
75.4618418426408
79.4253502061775
82.886875876428
86.1818618779614
88.6891505780513
89.1673622643919
87.1493045205599
83.591689282499
79.9122660546291
76.6260401805925
73.2941361841192
69.7683568018566
67.0163451054105
66.3607594355695
68.0389375251333
70.8899338139711
73.549901497521
75.6482585141327
77.5731386355171
79.2663060126333
79.7373740551726
77.9933735331884
74.2032419149683
69.5977076209456
65.2148070632323
61.0285595780649
56.4374431921974
51.3403308358037
46.3678668001548
42.042801852007
38.0624971129198
33.6881056072456
28.7366067546764
23.8923340150063
19.9651351221756
17.0715607574215
14.7427936528481
12.7053326271403
11.2390470702102
10.6635556107702
10.7097152644655
10.6764896342293
10.2008599453352
9.64095616907204
9.5816734476544
10.1123536273708
10.7850257596352
11.2371365799428
11.6147493530333
12.2644311109958
13.1744776729337
13.9616736751947
14.4252699576092
14.9030516856658
15.9250995121461
17.5934624733431
19.4554556041059
20.9541631861436
21.791803349379
21.7452012687365
20.3144981186712
16.8718636839448
11.2840537212948
4.25656803298136
-3.08392126305133
-9.90179510071583
-15.8279414309896
-20.5024333937344
-23.2557709260231
-23.5189083434822
-21.5274001544359
-18.3796244717439
-15.2475312238747
-12.6068646224065
-10.3577317486689
-8.60066786782826
-8.01878746921597
-9.34169936321751
-12.5622046902077
-16.907966156586
-21.6145080760853
-26.5339782627121
-31.8411681262473
-37.2631434143492
-41.8676904315838
-44.7351469514365
-45.7307495686873
-45.4881482876301
-44.7019349200818
-43.6275474867741
-42.31936829262
-41.1422772231196
-40.7688532946843
-41.5962332268304
-43.3036641016416
-45.1112966308897
-46.4387261781797
-47.2197215110897
-47.6267804690084
-47.6924038722105
-47.3395766192752
-46.6939105108005
-46.1459181462876
-45.9909279270123
-46.0771459367667
-45.9146295636304
-45.1183461355421
-43.657664312409
-41.679849231087
-39.2428148640828
-36.3638426519883
-33.2904636344585
-30.5308433896509
-28.4672672463785
-26.9527064075101
-25.386317924559
-23.2250051955615
-20.3859796863846
-17.1566646701801
-13.8342933549837
-10.6005102813855
-7.76496313183377
-5.98822143236753
-6.0865892468784
-8.52501466066651
-13.0874015703988
-19.0285346543133
-25.5145376874097
-31.9322317896164
-37.8847324036683
-43.0397460539445
-47.0676781210492
-49.7152449999023
-50.8989595826111
-50.7222947943683
-49.4107088396929
-47.1951349068156
-44.1894451570434
-40.3544754059656
-35.6359237413501
-30.2105353223827
-24.5982750867589
-19.4579568645543
-15.2068999380203
-11.8465099360384
-9.19968147492174
-7.31344979530394
-6.57260392295647
-7.38602670149438
-9.80017665512911
-13.4759860987091
-18.0277155040998
-23.2876200221616
-29.1542938531076
-35.1931848188412
-40.4754633539712
-43.8985083503065
-44.7245589366843
-42.8780364800985
-38.8284792830874
-33.2795012346664
-26.9618951460493
-20.5952610617503
-14.8717260853372
-10.343356292201
-7.25557353094042
-5.45234557575649
-4.43548161140317
-3.57789606493583
-2.41935174442298
-0.903191672830943
0.608758735720404
1.58584982369402
1.66639069614427
0.813668109925297
-0.796330413890292
-2.95695508879377
-5.44191749753354
-7.87658844786304
-9.7423221876544
-10.6534458434833
-10.6719113042323
-10.2942123838631
-10.0723899869555
-10.2392605382718
-10.6854846112651
-11.2060746992186
-11.6471750147003
-11.8029237685217
-11.3217768845974
-9.90214325944464
-7.63601897018317
-5.07086575841899
-2.83943606315894
-1.23062238775183
-0.152617953274198
0.555979219019246
0.938039912181171
1.10441010724599
1.46705843319639
2.55364387145073
4.48322218488081
6.71189030071163
8.42642133847392
9.20187270896837
9.20943166490983
8.81455844651744
8.15212332444612
7.2395149089927
6.42057331220967
6.43810129676574
7.88873495584356
10.6475995510324
13.9623156388444
17.1268428867811
19.9547519372089
22.5622139130676
24.8530471183633
26.4226631603951
26.9722560804657
26.6179838248121
25.6448820212055
24.0477634578147
21.521966169127
17.964822406673
13.8452817382195
9.96600690402164
6.95549921347329
5.15750812559747
4.96103147984049
6.91687976323811
11.2517347162119
17.3220672996159
23.8365107813446
29.7878737785704
35.0743231932719
40.092779351594
44.8747685247776
48.9359419321542
52.0515408769844
54.8484817537013
58.2186700747572
62.0910328646639
65.0904672867281
65.6610790956082
63.4340029025407
59.2759197817987
54.0810844319868
47.9233870136774
40.6447353411354
32.994308904268
26.6217764474469
22.6911626976697
20.7526285349713
19.3059349893988
17.3965249404127
15.2961843078086
13.5383208753839
11.7307425885421
8.81971784222659
4.47721188838974
-0.309307911556256
-4.37030204773762
-7.81188204091181
-11.8550263369305
-17.1757092467433
-22.8664039298817
-27.3833061536759
-30.2445260014832
-32.235188905947
-33.8708784737903
-34.2747508914397
-32.1752567401975
-27.894209529573
-23.7001986398784
-21.8549415495007
-22.6425575412993
-24.744006840932
-27.3131284174107
-30.934854790339
-36.199192260397
-41.8807357845764
-45.3204529361094
-44.7054700099374
-40.4223883228809
-33.9670643776658
-26.261789591998
-17.935533570343
-11.0096602997533
-8.83619407870261
-13.1319394635949
-21.3774963262779
-28.5672183441797
-32.4212448624537
-36.4086976171701
-46.7572638796302
-66.5286218462963
-93.4083710002464
-123.289569992191
-154.518556508334
-187.124517627522
-218.443876698276
-241.981507648682
-252.350316892472
-250.286376364325
-240.053748580731
-220.750933411487
-182.20527407487
-112.540666237063
-10.5846226787
111.272853320736
238.447832055787
367.413956467164
504.802428532559
652.20905413228
794.36698377006
906.160950962086
972.541343611298
999.191135368539
1000.88386167668
979.837931571292
918.950590957486
799.102835084127
622.777338151463
418.586148804806
221.790201113977
51.3214160146569
-94.1378004607485
-220.84468104159
-325.658622937947
-398.744262804693
-437.605431481667
-453.787960208657
-463.676804801598
-474.301859534179
-480.38002415458
-474.762586238858
-458.962624091653
-441.749660261026
-428.955017654165
-417.632221326878
-401.271778077198
-378.995035712827
-357.498115352647
-343.975289743219
-338.839632271961
-336.253666950712
-330.589384033943
-320.706394725411
-308.124106144535
-293.151334911271
-274.548206671649
-252.481488615845
-229.888704401431
-209.896926411403
-192.659271330512
-175.913481122384
-158.568355695493
-142.539517880344
-130.365265374829
-121.718950352636
-113.401071732296
-102.873843638035
-90.8678317044299
-79.8987221855592
-70.8315369591279
-61.980747211732
-51.727528427113
-41.0110543049561
-32.32720580997
-26.5271958167295
-21.5806928297355
-14.8848900959034
-6.15125980247203
2.70479397358193
10.2787740530937
17.336794814994
25.3592475850738
34.0953356931767
41.4942448563226
46.1573632983281
49.11267784448
52.6124407002333
57.5198115518391
62.5893942410069
66.3819536322347
69.1534490081436
72.2558041583603
75.9883136098417
78.8874704235735
79.4840205497491
78.2516337364918
77.1896273877096
77.5487668993439
78.5734267583534
78.7465512560058
77.7821929366743
76.762784631537
76.379319849913
75.7524355369109
73.4927627595798
69.6514356222883
66.004608831947
64.2611757660095
64.4290129216956
65.2872900113711
66.1552924971392
67.5716230450445
70.0939067771067
72.9880874089096
74.6987938578748
74.5762731170409
73.6273375181447
73.3084900784201
73.904859476008
74.5114387419069
74.4852838177644
74.3476279574707
74.9528804626234
76.1264150895408
76.7017875413023
76.0033358052959
74.8496313941637
74.7267134308338
76.1466794764
78.2496145773975
80.0680409249702
81.7277001096703
84.0196077508572
86.9938528853429
89.5434823308629
90.6274251109491
90.5787425879031
90.7730056473754
92.0260848865909
93.7134804908778
94.6501250572713
94.5113302780842
93.9587687412245
93.4169032998624
92.2412995563741
89.4720183888973
85.2249417133326
80.877036018377
77.7274266972994
75.7628969397346
73.993885695994
71.8022526454444
69.5122185712535
67.5258735451777
65.3111563793756
61.7179908054684
56.3068516467696
49.9877880327543
44.1143102158002
39.1406666037862
34.4719660584734
29.5684056488122
24.7833182833817
20.8617517556492
17.8528567717066
14.963008794635
11.5995932864751
8.24411881767049
5.98111337599195
5.2419069782336
5.32511149922613
5.23740679865692
4.71964315981793
4.17119127742981
3.7050298728143
2.71752907760248
0.631851487397803
-2.13805470245699
-4.31024349114375
-4.88217878264768
-3.94532844457972
-2.26372814325335
-0.287424026583665
2.0963748863976
4.85482864343584
7.23519179158484
8.21801927728479
7.48422597795523
5.66078230790442
3.52758484008488
1.19616701085473
-1.74077022305848
-5.39282637601259
-9.23742793120226
-12.7026411286002
-15.8256362270532
-19.0387430593151
-22.3405960809909
-24.9928643376344
-26.2302043341365
-26.1278534029025
-25.5278160977918
-25.1272214535615
-24.9037074715607
-24.5740868313847
-24.3849057573605
-25.0775486438597
-26.9827211564519
-29.4201631045649
-31.2719953685345
-32.1170077377393
-32.5719328827368
-33.4637794894952
-34.9072072993151
-36.4194681482503
-37.8148875168693
-39.6014097124795
-42.2796711078046
-45.4290834559212
-47.81235468271
-48.473573844255
-47.5571890069735
-45.9315198999376
-44.1851329272337
-42.2708160128847
-40.1357646332123
-38.3612957866723
-37.8532802700324
-38.915708886863
-40.8911132312708
-42.8533028246911
-44.5121057886953
-46.2551156274239
-48.3810659199794
-50.5815870325468
-52.3218747424191
-53.5410053030616
-54.6787979165303
-55.9653413130546
-56.9278488885424
-56.8188260468273
-55.4747244117932
-53.5423246898449
-51.8063398193393
-50.4739775113764
-49.2699852209967
-48.1025907040191
-47.3252166644577
-47.1940170461409
-47.2313727913772
-46.3843112413972
-43.8784802114585
-39.7962761629887
-34.7664826025635
-29.2528307335757
-23.3497321827303
-17.2403372311065
-11.579064411925
-7.1946629575067
-4.44988544191011
-3.069982427671
-2.64444883882066
-3.14037537532173
-4.78578473482129
-7.53391056931903
-10.8555450148263
-14.1306313576855
-17.0921163707564
-19.7264339915293
-21.8101685259662
-22.7950236425913
-22.3022348041789
-20.6449018361192
-18.7000267905773
-17.2542252710833
-16.5960245473033
-16.7640181132952
-17.9720899530052
-20.5148327710871
-24.2101784906145
-28.1494298291056
-31.2103533249661
-32.8207880851045
-33.1103731022291
-32.3457421275763
-30.4395610822165
-27.1814472525866
-22.8379146296994
-18.2334673113084
-14.0886404104779
-10.4022014807383
-6.67782262707408
-2.74475326891199
0.850650573958479
3.38029305501356
4.72149941696452
5.40696886149148
5.90482909462844
6.08778040165706
5.58761790938264
4.55158010053121
3.75971291873942
3.86993145798334
4.69536032827286
5.40783710625297
5.40390250788041
4.75704783931304
3.75926426545588
2.26103027064298
-0.231913497488411
-3.78454084944827
-7.61768258138064
-10.6817898799
-12.5767247182186
-13.6953880268787
-14.4376483473392
-14.5265664057683
-13.3187250297718
-10.6962493579907
-7.34748023383363
-4.02047183525417
-0.683109919928746
3.31176787435037
8.22787446145228
13.3742749981769
17.7137140064362
20.9201534018361
23.5867325387964
26.3629036901474
29.1469224919615
31.3536922865112
32.8646672109269
34.3750158143341
36.6357173533763
39.5322769619903
42.1788187752069
43.9273896492235
45.0447163960727
46.2615663325905
47.8471606647615
49.4217102902141
50.6891035317731
52.0278060193185
54.0668735084469
56.7455206260712
59.0902932196102
60.0524040077069
59.3852004899525
57.5028606221638
54.6077331776706
50.3281964748207
44.3922554666784
37.4102415044655
30.6038053862084
24.6753529085134
19.2042869063644
13.3663139133915
7.09345365267223
1.20089436954577
-3.67317401544144
-7.90996907169266
-12.3819682984622
-17.1944516220668
-21.3554516495243
-23.8970705020265
-25.0883522724049
-26.1906248658245
-28.0177669495266
-30.0842005152707
-31.3820572741991
-31.750288845537
-32.0547593199615
-32.9609894692899
-33.9319541124699
-33.8094409710467
-32.2799162566112
-30.363597680793
-29.3260047035918
-29.4490991835645
-30.2313547161901
-31.6335146729626
-34.550485206155
-39.7239246822514
-46.4751561309784
-53.0055278168581
-57.978235650915
-61.3202202284607
-63.1424809379034
-62.2750690331881
-56.7143710542901
-45.9851902688328
-32.7742047736529
-21.6433661839578
-15.8724442312319
-15.6537270930527
-19.3412205410145
-26.1229606688174
-37.2954282544925
-55.3244635377341
-82.1659470007437
-118.139753486732
-161.042725774121
-205.148587051652
-241.51900337669
-261.381717836025
-261.247418923359
-245.087569084513
-220.326753226486
-190.518912534356
-151.752417474266
-96.4084111367802
-19.9489983994326
76.7839009115101
191.369777964287
323.183824818808
470.005749502264
620.884332777567
755.458841122036
854.541884723971
913.191958975021
941.703188681355
950.94412790949
935.989151124126
876.235604837963
754.467729625579
577.208438542861
376.000643294577
187.710210345082
32.3767886201673
-91.7475473835651
-194.796319492665
-279.998605569633
-341.773594342365
-375.928371795263
-388.141603240055
-391.08827274267
-394.439210073545
-399.001195813273
-399.909840770845
-393.382814268333
-379.384416676492
-359.376248816364
-334.277443738866
-305.78370103558
-278.26947964367
-257.19684629213
-244.889811450706
-238.712920118803
-234.20473426163
-229.610373247692
-226.469074385623
-225.857698990075
-225.321445918326
-220.572993384962
-209.969912160187
-196.26780028535
-183.519370942443
-172.893460854684
-162.276272084078
-149.67795289166
-135.933983899421
-123.479557073826
-113.103300204194
-102.956904952494
-90.9638958277785
-77.4216721029101
-64.5530941095407
-53.7982777312171
-44.3957336696694
-34.887805137476
-25.3360190224562
-17.2799416320931
-11.5971913762555
-7.1812554146296
-2.19100978405156
3.782061725749
9.424684515326
13.566924443482
16.6979645537856
20.196848700567
24.3939438597629
28.0620438580524
29.9809250277555
30.4872220803038
30.9944109641964
32.1629998499848
33.1319090271671
32.769578817641
31.2575249528264
29.9550745026895
29.8025751454566
30.3995873839183
30.9083581274436
31.4729566395335
33.1931329864102
36.6621594395463
41.0074622560917
44.7096303163705
47.1378778090675
48.8392057009355
50.3151452798422
51.0256397697616
50.0121553423656
47.3206043031458
44.2878335494643
42.2236460665796
41.1319081159132
40.0780325324552
38.6718662267857
37.7048692038122
38.1250864605204
39.7328719803807
41.3453305947555
42.2435274366917
43.0304381557201
44.7912622821911
47.6478438154172
50.56372415865
52.6155177726355
54.062840846281
55.8590105226122
58.294322582743
60.5595485353846
61.7688417401881
62.0715880463411
62.4068576509712
63.2585761362918
64.0570936310942
63.9851637339832
63.101168094096
62.3176971211749
62.3095022802689
62.8071277650037
63.1618297903838
63.3564365286604
64.0719973652594
65.7174723476501
67.7297860070886
69.0950158264629
69.4268182075819
69.2194656049785
69.0040154347906
68.5772553150362
67.3335608128057
65.2227092343895
63.0059539501855
61.41737196979
60.3043930821856
58.868462405168
56.6940784271347
54.2372665323342
52.1738266978207
50.5032266972219
48.5940988157049
46.0853488965154
43.4241982432282
41.3171409510588
39.8140150532957
38.2252189015128
35.9753427170524
33.2898849786272
30.8699943122842
29.0479225491703
27.5472113103755
26.0990180138538
25.0019853450995
24.8167450188206
25.5823819816175
26.5985883860059
27.0607569103197
26.7092607270254
25.6820611801544
23.8811180159452
20.8313569954873
16.3068558028895
10.8882801925222
5.63973865803911
1.2575135461014
-2.22470526996993
-4.81965858445606
-5.95308131149761
-4.77856296664955
-1.14573557236538
4.01191600609903
9.42835553176654
14.4954357149286
19.2663212748148
23.5286796547904
26.2500964299818
26.2564284817305
23.4012075661428
18.7855403524323
13.7250581335326
8.69980717216028
3.49986204929944
-1.76638250096443
-6.21275383018238
-8.91866439749241
-9.94004058843779
-10.2852773196417
-10.8578095768623
-11.6448178090294
-12.0653380244068
-11.909498888751
-11.629619284176
-11.6867537982363
-11.9100211703068
-11.7532423454327
-11.0973946368905
-10.5232014987266
-10.7010069205204
-11.7093660004254
-13.1460720487348
-14.8068568071505
-16.9667013366302
-19.8884900290653
-23.2747795574517
-26.4753778038023
-29.2297215003619
-31.9617619524642
-35.2034890932928
-38.8738583626742
-42.344622275289
-45.1942746740989
-47.645439411604
-50.1055563474438
-52.4300839932404
-53.9128931634447
-54.0614268104833
-53.1766723935088
-51.9959387326579
-50.860428618821
-49.466481656934
-47.4811598783258
-45.1821328074927
-43.2786053363868
-42.1600371099601
-41.5556553865707
-41.0208404226106
-40.573285486636
-40.6274366726266
-41.3246227818224
-42.1558988768521
-42.3816964567074
-41.7143376826943
-40.4209545805826
-38.7987669430124
-36.7862034032819
-34.234430928907
-31.4333095010472
-29.1280064631063
-27.9417724989537
-27.9065003331098
-28.6482056751296
-29.9134494268874
-31.7213486281976
-33.9967706184204
-36.2741895076602
-37.9539263558967
-38.8090569358461
-39.0721081355486
-38.9885061630768
-38.4440622289526
-37.1655747493786
-35.2004663276045
-32.9907945071748
-30.9129187370597
-28.9018025215521
-26.6846647818546
-24.3186297345851
-22.2863455602847
-20.9750277624935
-20.2013741314199
-19.4155040336536
-18.3356901021695
-17.1989670467406
-16.3250954955743
-15.6069657650695
-14.6335689046975
-13.2903529274327
-12.0184523491076
-11.3480965371141
-11.2851782218312
-11.33710903426
-11.1304186998661
-10.8048904972878
-10.6890945859557
-10.7365024085608
-10.5191768543742
-9.80884218453414
-8.9572466077385
-8.52972798895075
-8.6365617364793
-8.82068025651332
-8.63525393906728
-8.14299756701412
-7.69359265430168
-7.31515535103974
-6.57261071536346
-5.10606467039446
-3.13016407754427
-1.21137109914277
0.399000049226538
2.00407985643435
3.97391349936679
6.19888941669857
8.21074160062721
9.77806209519597
11.1415362491609
12.5655822533461
13.8451452679011
14.4901507873938
14.380970620266
14.0119999708413
13.9652923062476
14.2949942260437
14.6378214673649
14.8820760847894
15.4507746743261
16.7663978322328
18.6058827712111
20.2680554480037
21.4178077661086
22.5322009360641
24.3420565827407
26.9632822188602
29.8236276419758
32.4422137605811
34.9922064147838
37.8825174954735
40.935305580726
43.310286158652
44.3429663586782
44.2300026115134
43.6774570283143
42.9946681907387
41.827044035941
39.8140949927362
37.1785029252484
34.3689491847595
31.2508172839297
27.0571028444554
21.3171458215753
14.5891019379453
7.98963581791724
2.11281597714676
-3.20172752265396
-7.93331909150445
-11.1421265461904
-11.6642698344148
-9.54400646948033
-6.32660158625528
-3.64870991265262
-1.79832025986666
-0.0812902068684327
1.48002068226073
1.43154600784488
-1.69561589413132
-7.51034758750586
-13.8946782401749
-19.1649831541825
-23.646998762094
-28.7033881119613
-34.485702019164
-39.3480756782424
-41.723576080925
-42.0335874130576
-42.1027723274724
-42.7798126753296
-42.8166333932269
-40.41774086331
-35.3748924768482
-28.9959593585411
-22.08966516183
-13.9779453230087
-4.13396495821254
5.66568232631889
11.7674326938393
11.4366930174918
4.5324070104619
-8.12070467268178
-27.4091851529729
-55.7458392801499
-93.7416693966031
-137.797294633872
-181.847015345004
-221.268407391978
-254.192823125381
-279.024327087712
-292.276183903119
-290.488101042231
-273.964013694834
-246.483947425983
-209.705486342707
-158.557673984804
-84.2505235941979
17.2489066372642
140.838865275496
277.411428905657
422.083267504253
574.402657124979
729.080431829938
868.987584568387
971.748373701702
1025.52483233363
1036.58218302789
1018.13848946576
971.20569696049
879.465514511021
726.740200584479
520.568390242524
296.724441906425
98.0601492499203
-52.7026441138149
-161.021729017814
-244.765274000618
-313.564793879969
-363.876162600167
-390.614578279188
-398.69894449804
-401.007241283396
-406.682303726939
-414.104930883931
-415.640422176489
-407.206462832679
-391.725362816521
-374.462648913627
-357.653590390088
-340.736618185685
-324.208674265958
-310.969347212103
-303.447131721961
-300.795132535966
-299.959780884311
-298.850498677409
-297.178161079356
-294.207245559961
-287.243780784566
-273.693944394792
-254.345119441511
-233.344692023491
-214.35792394033
-197.379742589082
-180.001812291003
-161.347457104277
-143.594725304596
-129.240790608088
-117.7802936845
-106.156022672331
-92.4233582871825
-77.9851553418165
-65.6930523637208
-56.4001713870131
-48.3297766216321
-39.7871038841594
-31.4510153391539
-25.2548754644593
-21.4652999250077
-17.8787376527394
-12.1832238249258
-4.41088732297003
3.57516273094407
10.6642012709332
17.6738148900956
25.7161866097686
34.1514329401381
40.9770635842572
45.1409866826419
47.6801274401296
50.1985558435408
52.7595864400742
53.9865876334089
53.1447603539433
51.3211869248421
50.0866061836406
49.4640911950559
47.994114604493
44.8683393190546
41.2890378320029
39.1938911348832
38.9889161576747
39.2893125186997
39.0380515668243
39.2113944497627
41.8213790850711
47.459627293535
54.5533873004013
61.2801674450198
67.6202117537547
74.8589592940047
83.2028875159241
90.6614391517003
94.7361607287838
94.8588006777871
92.5988477180492
89.5531957753659
85.7319273684555
80.4410677109391
74.3050125515593
69.5926974917532
68.2759559981094
70.2156556234582
73.6802302244941
77.4002669032653
81.520273110814
86.4399244470697
91.3586277527976
94.6165169453237
95.4121077069899
94.6031975375407
93.530749138129
92.421673091558
90.4174908323595
87.052046094975
83.0975528395918
79.6416613047544
76.7061132787614
73.3346388306009
69.0516483329642
64.6980054419949
61.4699658954742
59.4211388693151
57.4392853010033
54.743887022662
51.9026241409921
50.0031619002415
49.1027503063434
48.0683294268101
46.0542609898475
43.6268151944998
41.9617922502365
41.111628566473
39.6455454845435
36.2215579269306
31.1163456149955
25.7738106200916
21.0228281744519
16.3508480807852
11.1909490182974
6.45465092276316
4.13536574505435
5.30251155670644
8.95190825786107
13.1433117004285
16.963593496683
20.863569349375
25.1011349448135
28.5081286015787
29.3369670065429
27.1659001956577
23.4045978513249
19.7215989877982
16.371522087805
12.4737009384131
7.73271523159506
3.26713809332897
0.46906067320894
-0.566113000250384
-0.97463686916271
-1.55819532217678
-1.81986755255915
-0.858265569953673
1.11349959887231
2.67226840568905
2.65668052693617
1.29155990149403
-0.442656864019792
-2.25481008086762
-4.82519715285211
-8.57903200184122
-12.6822853383239
-15.7173353266218
-17.2399027677076
-18.2057325131867
-19.7157156096358
-21.7227294234869
-23.3569154318234
-24.3523388603755
-25.5991174748714
-28.0387752510546
-31.3641839509069
-34.280566239864
-36.0313522436822
-37.2177860385701
-38.8648053735218
-40.9786499510271
-42.47235856597
-42.4974578002953
-41.3788316568336
-39.9393461651298
-38.1944370315968
-35.2418917403234
-30.546413554969
-24.9159737049314
-19.8443455130239
-16.0472189988104
-13.0661802854231
-10.3620861448956
-8.32717724063381
-7.79431338739256
-8.70992798835964
-9.84132328193817
-10.053548622069
-9.57409920756394
-9.60875253130723
-10.7975007263333
-12.5046429812944
-13.8167560446717
-14.853497797969
-16.593986667497
-19.4274502311187
-22.3816514686593
-24.1270226644783
-24.5113883042917
-24.6538697359037
-25.4922885061996
-26.6775754178345
-27.2058028636594
-26.8582013238583
-26.4727202744712
-26.6802689702139
-26.8403849921065
-25.6815496042308
-22.8806039696308
-19.5308913759645
-16.8798835203639
-14.9779302852188
-12.9680846563955
-10.5459752047397
-8.56386997202314
-7.92356273176189
-8.23859019310447
-8.11482814143342
-6.77621740027265
-4.95761048473408
-3.91457988311766
-3.85424700376739
-3.82586188663503
-3.15105942194496
-2.42658164424673
-2.72377634269126
-4.05215874615823
-5.18204545676643
-5.13828275764208
-4.43859311769491
-4.44512808659125
-5.66290377877697
-7.19544019104184
-8.02459984415322
-8.36215108171099
-9.24296863145304
-10.9043279812767
-12.1603222262519
-11.6973801814418
-9.66456667028292
-7.49777899630492
-6.19880242024852
-5.28663868404743
-3.71807501984621
-1.46725272226245
0.380307460715928
1.13221172500042
1.53182329800219
2.8731775783062
5.29825363009182
7.50460154299433
8.24823849070727
7.67142538169972
6.75666455585394
5.73840448483094
3.69640304861788
-0.0711360099056852
-4.7646463392048
-8.72759438040762
-11.3047932075338
-13.5210976379576
-16.6675251415638
-20.6150634224985
-24.0383804380597
-26.2051526488015
-27.9014484980215
-30.206088660256
-32.7155353374815
-33.6251749575897
-31.6850555648927
-27.58675633221
-23.0497387515539
-18.8368029299238
-14.2528732222115
-8.65392276546821
-2.82783639456129
1.66457959417709
4.32277754091571
6.25189194950692
8.67288999877028
11.3623506563227
13.0541863640464
13.1804290865774
12.5437455222497
12.0189123487153
11.1310295414494
8.58623019865504
4.16302439093906
-0.586574571610086
-3.88550219759444
-5.55739687805224
-6.69024007737234
-7.55508795586762
-6.62056008652834
-2.16162958448244
5.50149997005124
14.0850796215158
21.7555803913683
28.8020949623516
36.3886116690967
44.033018610376
49.2196920763829
49.8423901372675
46.4555606656157
41.4699295016616
36.3317409185565
30.3028759055465
22.3181635056632
13.3257785576037
5.87435367736826
1.36427418052536
-1.48151082427414
-4.9156716900405
-9.43624865925658
-13.5464818942496
-16.189216811109
-18.4820692897306
-22.3472915229908
-27.8516575900588
-32.8900799655559
-35.7614059429613
-37.2697051258503
-39.5218553936124
-42.9718011546432
-45.6644764185538
-45.7557815422993
-43.9709201395477
-42.6429078040735
-42.5191721429345
-41.6355856879323
-37.9570587919504
-32.4498698722055
-28.4684315471567
-28.0351987829851
-29.7032196467016
-30.7327311507431
-30.7120110722498
-31.8282379028606
-35.3573981831959
-38.9438968839902
-38.3205831194202
-31.4706837610413
-20.257974226081
-8.04706957439384
3.05004043538821
11.8512798024372
16.270857154357
14.073052845924
6.34442251137673
-1.34460854623335
-3.63286437334738
-2.02858679110274
-5.69070418835372
-24.1353024473064
-58.9491358512583
-103.087518371956
-147.733059455858
-188.355172576626
-223.762701102231
-251.479739831697
-267.078559446563
-268.545259274023
-258.460501412744
-238.786505383846
-203.731066147182
-141.153814464757
-43.8580569347398
81.0755119315511
216.718053427
350.899640767325
484.501621480441
623.305391364231
762.807354844811
884.735949477216
970.640933860384
1016.91475068096
1032.65445718156
1021.8702558306
971.43944980002
861.381602111762
688.63088789917
478.628352552566
270.91872758228
92.6392476974014
-53.8871348640179
-179.63621592576
-289.276616641968
-375.378000476618
-429.921840553956
-456.718581577303
-469.527026198567
-479.196256699183
-485.669969555072
-483.249174305332
-470.993381809282
-455.091754491536
-441.329798167277
-428.221824881498
-409.754553995178
-384.119659166778
-357.467717623027
-338.159681734757
-328.458229656453
-323.02526760735
-314.975609917348
-301.861986097357
-285.508453406574
-267.772029481476
-248.407962504834
-227.052853099981
-205.478579477106
-186.444423800601
-170.674411346587
-156.228290335886
-141.240744877724
-126.410630775003
-113.97540372881
-104.601055095979
-96.3140168760098
-86.819696187801
-76.1226544241227
-66.1115802341891
-57.8403057126189
-50.1540028802599
-41.3595814586043
-31.5950819628392
-22.7624042340202
-16.2059005456619
-11.2259534802423
-6.26170347283968
-1.01605174494053
3.31365498081065
5.88388039106773
7.57354343081767
10.0789932342108
14.026923389546
18.6209435476141
23.1695382291294
28.3099887119081
35.233411201483
43.9693741072853
53.0508448079605
61.0009754496822
67.6558777599201
73.6252498094907
78.7516643318931
81.779587329661
81.7825583165697
79.4824995031829
76.6790845130075
74.4757029052699
72.5486601078853
70.2975137286774
68.2306262072024
67.6741765914582
69.1647760697551
71.660490313654
73.6445359301922
74.7282625243671
75.7397823673588
77.2878638314921
78.7481358874026
78.98582485282
77.8097343542236
76.2237639157655
75.1719147303825
74.4473651744835
73.1621115554775
71.0851726661851
69.0515678766351
67.9357559506655
67.5908277154068
67.1472850085838
66.2193568849147
65.3841576445886
65.3259145189674
65.8442746817973
66.0836735845274
65.6752601830766
65.2552501221321
65.6691602108374
66.9312764992783
68.3210837050313
69.4641712829311
70.9308711348971
73.5391116977957
77.2783228519051
81.2694994145307
84.7979787986789
88.0488953945166
91.596888295249
95.3622240046882
98.4342559775371
99.9963334510806
100.142144944015
99.5542247863972
98.5334844968419
96.6858165412113
93.6371523809271
89.7577167093258
85.8894143599638
82.4290675994647
78.9777241052213
74.990998812867
70.5314783244631
66.1258934650471
61.9677416575109
57.5885473565497
52.4665157309969
46.7561341189329
41.1501565360436
36.0508367799156
31.1506992804531
25.9646151460704
20.57803834045
15.6019441498403
11.4092821835254
7.69645344954004
3.96247489428853
0.248669465236738
-2.87238697339362
-5.05186473796069
-6.64633041432868
-8.27324135246403
-10.0351763866256
-11.4530170588747
-12.1883837613279
-12.5662934711894
-13.1783120356803
-14.097884695805
-14.7838156760415
-14.836554202883
-14.6161811897779
-14.8868139902136
-15.929637913736
-17.2699452893374
-18.3514776043324
-19.2402641259678
-20.4142813033544
-21.9290402036156
-23.0994398475941
-23.1707581107872
-22.148713507666
-20.7431792229871
-19.5299677728307
-18.426118691314
-17.1126909189985
-15.7662567821677
-15.0733602501265
-15.4908732747607
-16.7353236099902
-18.176519165284
-19.6089217808363
-21.3952632663759
-23.8427477048761
-26.6956395672376
-29.4338023964977
-31.9425850647315
-34.6068198975654
-37.6778237639319
-40.7770968416032
-43.2400421803653
-44.8686747832591
-46.0898912850455
-47.2987299409134
-48.2652253151664
-48.4122573345731
-47.6047018576755
-46.3858323273883
-45.3155483984363
-44.265971837799
-42.6103234090867
-40.0761812300014
-37.1587753428327
-34.5639728468245
-32.4168207160965
-30.2604385144619
-27.8139148741101
-25.4665963569365
-23.8628762898304
-23.1495712798487
-22.8872242239771
-22.7160106836542
-22.8580600764831
-23.7787422303677
-25.4714825509274
-27.3253982604786
-28.7327432377633
-29.6032922917013
-30.1195200602028
-30.1418702711488
-29.1681304823247
-26.976715575551
-24.1016948529666
-21.4612651606354
-19.5802798930924
-18.3903392736559
-17.798968091407
-18.1589267208872
-19.903269895295
-22.791286352652
-25.8288341927914
-28.0906637281726
-29.4614161939947
-30.3709396727061
-30.905926359867
-30.5106413275696
-28.7050786954829
-25.860622361481
-22.9434376034922
-20.4845703133843
-18.092784593926
-15.1575573359457
-11.835899503413
-9.0255709358914
-7.34326286634036
-6.43359678102035
-5.50408193724114
-4.36977066008255
-3.62715819648819
-3.74301811533344
-4.2949382865348
-4.40471761394852
-3.81737693765913
-3.20975125979826
-3.3247087142292
-4.07517901769583
-4.78269228606657
-5.1838632182923
-5.81071347291905
-7.21139799045792
-9.07217378531417
-10.4708769816159
-10.9805287294811
-11.1696882896697
-11.8144531406265
-12.8516816201012
-13.4683566393518
-13.2161436117036
-12.6560096663665
-12.6458203384472
-13.2071559009487
-13.512255813488
-13.0687880263434
-12.5618768127849
-13.2062342752228
-15.3898327733723
-18.322776744946
-21.0968673201355
-23.7273224799075
-26.8097742930956
-30.2983052365354
-33.1029338817152
-34.125570085288
-33.4326961089573
-32.0570048882874
-30.7055690645575
-29.0549411263533
-26.4783974174618
-23.118421788351
-19.790372010783
-16.8440638037694
-13.5813558144478
-9.11141782884431
-3.56797118060959
1.92616458537075
6.51169610082746
10.3940098445305
14.1391824078867
17.4799954239419
19.3613542772702
19.2840474099131
18.1674497960228
17.4798282660548
17.6679845781825
17.9134808021954
17.5367479624243
17.1682276850375
18.071424172322
20.4644201060214
23.0880743353679
24.6741977367638
25.4245422448129
26.5242014705486
28.28854514846
29.4056957767113
28.3578170602919
25.2305932451522
21.5557143582154
18.3906058387994
15.1738970625732
10.8754969810321
5.88163759014894
2.00861568096711
0.486372654222755
0.49620087769852
0.20505827775742
-1.0174412299266
-2.08492061761086
-2.01515151573082
-1.58731200572372
-2.52359300872629
-5.21165786975338
-8.03142296686714
-9.29838453159346
-9.32997606592702
-9.88064518037077
-11.6429118513855
-13.1382875989313
-12.544828503852
-10.0777608725765
-7.70080927655981
-6.45614194630293
-4.97786002335837
-1.3378954805621
4.0445736931902
8.29955137424046
9.17115447597473
7.45494642366871
5.70360734859437
4.8918800179565
3.42248428618833
-0.154844008206718
-4.21774748509063
-4.84352499450588
0.451274422378432
10.3984426123594
21.5113429629448
31.0563322738224
37.8088964825741
40.6620700287744
38.3626292367799
31.625619917529
24.4219139232227
21.0705616467334
21.0704790232189
17.6233696862279
2.5271757897699
-27.1649040266098
-67.5491841123929
-112.21062669135
-156.627993846717
-197.846334530356
-231.800926445376
-253.923119569501
-263.140625828201
-262.757801937095
-254.314996890083
-230.593036694786
-178.028995058282
-89.1378923765959
27.8289448438771
154.381168107868
278.337854585009
403.16277523868
538.367426679547
681.081545207263
810.660222746802
904.340571175893
957.062537034096
982.06241968224
990.100614902407
970.653496757693
897.997341089229
757.862286422836
566.725928458243
362.939579444137
178.905276641637
22.7219041736008
-114.583882475988
-238.490853238475
-341.38210847859
-412.314247293238
-451.496137237923
-471.424550220382
-484.473563464386
-492.68352696632
-491.057470682433
-478.321344226705
-460.934355122421
-446.076286482983
-433.573107577872
-417.393874612689
-394.664380652349
-370.712962921748
-353.934711178592
-346.855063506276
-343.899499657863
-337.728174515499
-326.051563268755
-311.540414197609
-296.646639693059
-280.703178967818
-262.350475779161
-242.890543716866
-225.471155676897
-211.229117862721
-197.823085591496
-182.499651002321
-165.682665093997
-150.374373192999
-138.206528449264
-127.315312049337
-114.704180481961
-99.8942120729937
-85.1636564060441
-72.3007442700753
-60.2895984267133
-46.9065901139021
-31.9643851782717
-17.875979810769
-6.86538767123641
1.47360556886627
9.19252317031945
17.0856797791954
23.7758022653008
27.8725237264534
30.1737481063249
32.9323765505125
37.2044398152662
41.8190544308976
45.2714181865248
47.9355917829149
51.6368893919642
57.1983967610349
63.2563601050749
67.8962584031538
70.898939012581
73.6299377059583
76.8000139721788
79.1651154069346
78.9554111007628
76.1725685690394
72.7317134286682
70.2568065004549
68.3868257784554
65.7134266814665
61.9889402348215
58.6359766307507
56.9183920160209
56.2500138801007
54.9088914999577
52.2328309560701
49.4467595551088
48.1074330148895
48.2538008692097
48.6352061278805
48.5745164368964
48.9013390282418
50.7304972666817
53.7886771088277
56.5812979740642
58.2051298386035
59.411407968003
61.532955213014
64.7214099229285
67.8116482825315
69.9168662603646
71.5508137992878
73.7480755763156
76.3779858925697
77.9661079544012
77.3547389317979
75.0893502468768
72.753681500312
71.1398580581503
69.6130188102389
67.4001799603009
64.992256787055
63.7488059398235
64.2211293552728
65.4202094911889
66.0080299858006
65.8725593478458
66.0845736323745
67.3868525003455
69.2483810945811
70.6730026611397
71.5800733553243
72.8546945545597
75.0084673474701
77.281976800683
78.4257388479564
78.1428117551306
77.2963718443823
76.6432761993693
75.8119052881904
73.8820790166108
70.7499088777352
67.3985387327731
64.6693161927286
62.1591513466188
58.7350585977375
54.0259684928383
48.956279413153
44.6434111261397
41.1201062917361
37.5353602301069
33.5069798607769
29.7888187157577
27.362687304645
26.1761798157701
25.208096968879
23.7670669575554
22.305264894799
21.7075504556101
22.054677255145
22.5221057330786
22.5061024048318
22.4074472798727
22.988031369339
24.1749737873526
24.9593309418586
24.5659221745789
23.3367724847422
22.1275553458307
21.0123320670978
19.0496348227938
15.467772800738
10.7186696004834
5.98971546244515
1.80252511587622
-2.43611244004638
-7.3063108609003
-12.1543301018311
-15.4460993418519
-16.3389129224486
-15.5206664194227
-14.295133032267
-13.1374000074767
-11.5757836015238
-9.46701922669189
-7.88249259840038
-8.33388035951993
-11.2484275528679
-15.5950085529772
-20.0907490040385
-24.4343691134164
-29.0843549227702
-34.0574685271944
-38.4557748542
-41.3667573602613
-42.9102667872856
-44.0246008535971
-45.2766557044311
-46.2477313223706
-46.2237581048585
-45.1718563096006
-43.6760319628363
-41.9979571132218
-39.6462461403548
-36.1151524748337
-31.7999335449493
-27.8006518735814
-24.8215036655329
-22.6245074468001
-20.7665407291433
-19.5909518719087
-20.0538472991539
-22.5262714526873
-26.1514549264037
-29.6740347658409
-32.7159807282482
-35.8404731753035
-39.3226372322366
-42.2828917698771
-43.4089392900975
-42.4101212927454
-40.3448936894135
-38.3902511778855
-36.6313393647153
-34.3992632664052
-31.6332634120803
-29.391691916451
-28.7706883138367
-29.6135389741348
-30.6985502130026
-31.1723763388297
-31.3851649126056
-32.1047529381316
-33.2378023026029
-33.8094589019913
-33.2343262728888
-32.1561985703478
-31.6942818907339
-32.0673684980965
-32.4199711421604
-32.0877630742637
-31.6149842829901
-32.1485805270488
-33.9895558751197
-36.2168864337775
-37.8830664971465
-39.1779031303303
-40.9760118611987
-43.3343750658332
-44.9513619926794
-44.3948661520858
-41.6033077838356
-37.7862033548512
-33.9139902887991
-29.7926112261048
-24.9004179866172
-19.8053270387045
-16.187534153582
-15.3109518284141
-16.8252582976419
-19.3692031516233
-22.1388092495751
-25.4069086675403
-29.4388128729544
-33.3779626894618
-35.6726779663985
-35.5355273724957
-33.5573660362972
-30.7321541578081
-27.2350105428213
-22.5534933240625
-16.7020058292648
-10.7901469501261
-6.11310768965029
-2.94394453274063
-0.608003206717854
1.3198039540305
2.36520267602787
1.9506693465619
0.526062565354039
-0.586202450380828
-0.536868464955411
0.245117481169137
0.843585904363882
1.17777361900553
2.07525632400938
3.99617535164199
6.15518769516898
7.29733138978463
7.17266211161869
6.77609439083918
7.02049512170175
7.58794139924506
7.47686653571948
6.50649576009434
5.75650485182464
6.33801007911552
8.12833287010938
10.1540583651441
12.0848118582465
14.7832885334458
19.110845352245
24.5573769350082
29.5540349483461
33.1036553283962
35.5931785071059
37.7449682922782
39.1900604086988
38.6935262043265
35.8291992546858
31.8588517805694
28.5248419369937
26.2288053521662
23.9488922885237
20.9821325960744
18.1506401955693
16.790340334512
16.8286405339629
16.5756418048925
14.6482343062008
11.572004717065
8.92911297830183
7.12939220858784
4.75899638126706
0.432677731638537
-5.2640246469693
-10.3629093441183
-13.9436106061821
-17.2222601101981
-21.8062766692623
-27.3699988177105
-31.8524522807669
-34.0015376915994
-34.9458827730137
-36.6693364779956
-39.3222535385868
-40.8939838337409
-39.7153607442492
-36.5222076369289
-33.3532555167866
-30.7411121875349
-26.9719631730102
-20.5048446304243
-12.4335461826893
-5.72543779103306
-2.15287998137082
-0.844985341504696
-0.214045123539165
-0.51709259296824
-3.50297831772384
-9.57961061939522
-16.3573492046881
-20.6191191150699
-21.1468770817625
-18.744624297925
-13.8456702315981
-5.68221662588113
5.17155886306927
14.4086336500759
16.2430829408337
9.13126732281063
-1.62407893351377
-8.50585891239388
-9.48020760801234
-10.4964693172016
-20.1141956527695
-42.3407814201595
-75.0173299772421
-113.61869133476
-154.068747202516
-191.218421539741
-217.347473114907
-226.039041052
-218.619511317423
-204.055555139021
-189.082879248243
-168.027745015836
-124.999374060674
-48.3779480235526
57.4500661772535
176.516073277748
296.999496046316
419.656070348435
548.652485491044
676.259728640906
781.720227234284
848.25479531139
878.972122969245
891.025251193837
891.816231946482
863.85591972546
778.128923415792
624.899968773481
430.113313405063
239.143756954551
83.4880729793679
-36.9585206164138
-141.139693093358
-240.575816611189
-327.739571326743
-387.802529756055
-416.706695422882
-424.862136048848
-425.101763796879
-421.165290289538
-409.447457791939
-389.190360503962
-367.040701706509
-350.695822273541
-340.514501170222
-329.869952499016
-313.628299394214
-294.420419208823
-279.758852794311
-274.163315212609
-275.405826091428
-277.88192256895
-277.74979002103
-273.984334980564
-265.955170280656
-252.315518844667
-232.977712636765
-210.830649826395
-189.94512385819
-171.974050803848
-155.2516786905
-137.790694964619
-120.348762260236
-105.667795213665
-94.9652196949415
-86.2639516761409
-76.6980172703067
-65.8197571717611
-55.7720271991069
-48.3081009849293
-42.5905286042932
-36.476586180811
-29.4113192170938
-23.101868328109
-19.1831974388616
-16.9799933112661
-14.2109367996691
-9.61334024701307
-4.1084485871429
0.801869488851708
5.1158387331843
10.1611989374299
16.5456150500968
23.0454722253906
27.9119947729109
30.8687563856888
33.2409123938921
36.1637831485072
39.2697966008146
41.4844672885657
42.7286515596957
44.2030962028817
46.9018215160803
50.3577369375371
53.2700772985687
55.1593448396321
56.8853927438483
59.4124514621479
62.4927135783589
64.9678917240604
66.2125774307968
66.7849575602949
67.4797102111211
68.1169898684987
67.7120147792944
65.8047565080708
63.1989189596507
61.1552330750646
60.0968387791843
59.4573884330305
58.7481384839378
58.3447704868632
58.9491649320465
60.4890036040163
61.9591311065926
62.4464039948308
62.0324908124978
61.4680240173222
61.1330564419173
60.674047699306
59.7301913735207
58.697133269148
58.4735056626795
59.5387276152832
61.6006153999183
64.2517969984617
67.6968955476375
72.5229681602825
78.7927629628156
85.6740740348779
92.1200406059751
97.7212773880842
102.631732263097
106.725620797562
109.196812084344
109.242955791299
107.014928964929
103.589006359717
99.921096136136
96.0278036292231
91.3455597757683
85.7274552534448
79.7690034153912
74.0752943631702
68.473677766218
62.240088171027
55.0881357037303
47.6870961579345
41.0745167590687
35.7055260479755
31.2706972699871
27.3779824355995
24.1202332248252
21.8008982049757
20.2623292703016
18.7857082423586
16.7526626124428
14.242308080268
11.8204044424643
9.81982897739168
8.03188766188695
6.1415391159192
4.25690174481645
2.79880759521121
1.90527907820081
1.16750473281036
0.0790014834085109
-1.36195720260378
-2.66416848216071
-3.45220342896175
-3.9101147857504
-4.54333315701582
-5.62064424822513
-7.01882378698379
-8.60495036512224
-10.5693241951556
-13.2133567911896
-16.4475357823589
-19.655454622985
-22.1165746051335
-23.4837790593121
-23.7893166925735
-23.0945419750445
-21.3319191270852
-18.5580604549392
-15.2246699619002
-12.0192935202869
-9.39891248228029
-7.36192682384426
-5.70982061232034
-4.43141520777793
-3.71666300896605
-3.62435436087008
-3.88781565913077
-4.13840749856401
-4.24971723663612
-4.33958449868293
-4.43377411364359
-4.26236787990858
-3.4957574943265
-2.14703657349811
-0.644574957682585
0.492498554545412
0.93961008579636
0.473035399650531
-1.28239890522904
-4.78998535828243
-10.1689019088224
-16.8883962633172
-24.0084634238787
-30.742115162448
-36.7219965814532
-41.7387780277339
-45.3998323531015
-47.2489837572885
-47.2546362349822
-46.0292217254243
-44.4157893327265
-42.853749409134
-41.2337714090907
-39.3719456567328
-37.4859513712332
-36.0759525733112
-35.3747383960417
-35.0753522265963
-34.6878910793892
-34.0776809206523
-33.5094990083658
-33.1531820005741
-32.6937457042294
-31.5638143593988
-29.5374710299804
-26.9732310071831
-24.4296633967259
-22.1420244462526
-19.9839988779717
-17.8962981838416
-16.1733712965906
-15.2045204936975
-14.9883324548951
-15.0513253572882
-14.9093547090186
-14.5415815328966
-14.3400864527771
-14.6437505655079
-15.440348872259
-16.5486174711235
-17.9568473253605
-19.8201882356623
-22.1056578520703
-24.3648160181432
-25.9668378803899
-26.541524548842
-26.127227964693
-24.9129202281854
-22.9733791082773
-20.3504662670682
-17.3123361066057
-14.3458217071675
-11.7959574231474
-9.5845271278668
-7.39706029529551
-5.1378791165791
-3.08350210769725
-1.53562336922384
-0.435159598131643
0.524696648238885
1.39966112554323
1.7736470030492
1.17642237158795
-0.321802347138445
-2.08586580121501
-3.53597160101954
-4.66870808884175
-5.82607908868089
-6.99591846561177
-7.54264721290516
-6.75464936343515
-4.56583941874837
-1.5658508155125
1.7061299257276
5.28049489391306
9.41589553377264
13.8291837825194
17.5128814458501
19.4555857545377
19.4575805308049
18.1073468015484
16.0225297420458
13.3477045479451
10.114130388992
6.90902193460126
4.86960859380844
4.87427231038578
6.84952597234527
9.99802232777881
13.6227055787308
17.5266005318005
21.5852404999377
25.1917654226216
27.4190009475795
27.7578358072777
26.4945285119195
24.2418651796876
21.2388979547993
17.3157237492434
12.5074544998331
7.42022214275089
2.79436286818428
-1.17758350030235
-4.85202785546284
-8.43766755664907
-11.5601615827396
-13.7342912367872
-15.1486573448526
-16.6663342481924
-18.9300604608792
-21.6776128582581
-24.1685943301602
-26.186351507726
-28.2895340232457
-30.9542000158304
-33.7506566923878
-35.722017041858
-36.5573091280001
-37.0313273965989
-38.0687215309324
-39.5975566532033
-40.6912287210347
-40.8281990809053
-40.5865107491269
-40.7964145851358
-41.2524631711949
-40.768841429009
-38.627129658229
-35.5436695372121
-32.8082179820385
-30.6669217458037
-28.1389196170798
-24.6239911142281
-21.177872537743
-19.5903126851439
-20.2902953167245
-21.8568410717073
-22.9708109347912
-24.303384012649
-27.5876694690272
-32.6913966509742
-36.4619895720753
-35.3302428761584
-28.958134123093
-20.5469123685989
-13.3187201064775
-7.56010573567477
-2.15647866737419
1.1249275298515
-3.72019113177049
-22.7594936803657
-56.5347070004429
-99.259715170293
-143.60001736553
-185.372972434693
-222.979423145991
-253.204986846117
-269.613968455323
-266.270973741604
-242.427144748586
-202.284473125855
-150.076469175203
-86.5637392441299
-10.8993130404178
75.5882545079702
169.814924127952
271.53820975278
385.067502281261
513.254302821137
648.998409630221
774.780946412345
872.970488581674
936.707109476726
968.957880831209
970.279744793124
929.803421900281
831.919303706509
673.854806120036
475.902422344443
272.358464323123
91.0279494637152
-59.3399929619405
-183.588888969818
-285.679773345744
-361.844430083496
-406.934814555109
-423.947857508826
-424.50752635761
-420.165403952137
-415.121267083079
-407.971412241168
-398.473674597246
-389.975190661651
-384.952199554634
-380.502693015896
-370.560881183522
-352.65387717343
-330.959904937639
-311.89748750693
-297.60152102371
-284.936021169439
-270.598016747712
-255.53654371888
-243.322513561687
-234.981500503027
-227.044290569256
-215.186646629394
-198.793821057082
-180.958968341369
-164.392845244836
-148.61619360857
-131.660200494512
-113.552912555344
-96.8654582414144
-83.7448560917008
-73.4455901946182
-63.5107479582937
-52.8959094127719
-42.9490377653532
-35.170022251562
-28.8917858434671
-21.9427484450793
-13.3041861951707
-4.21457317027807
3.64496581005064
10.3803651276424
17.5879279258629
26.0173834243375
34.3468914452951
40.6694038253891
44.6992487682542
47.8446095135223
51.1843440084736
54.1126324083714
55.4042251426703
55.1650142397228
54.9808783233194
56.0339253824337
57.6833977339804
58.382978669055
57.7096665770239
56.8485725463767
56.9757812861543
57.7715275192817
58.068971261997
57.7404367254377
58.2335090481328
60.9430782052641
65.4834373420867
70.0921944362381
73.6341908250844
76.6209591235932
80.0026668037835
83.4305901713791
85.3553190326165
84.8700959969211
82.8864429838645
81.0883509809431
80.0007400119768
78.6340965941419
76.0868766554607
72.9574062001053
70.7307609064606
69.9903932788609
69.8101631163377
69.0769400531385
67.9489568547347
67.5223165135222
68.1801875026411
68.8351074011331
68.0793300741885
65.7525220127289
62.926703360491
60.4179871609344
57.8391748839717
54.4123527163128
50.3748407096854
47.0210094891656
45.2543196901079
44.523177187533
43.5297838255087
41.7881384845685
40.0254994188802
38.9762784942169
38.229746909481
36.6803379780441
33.9749997667705
31.0239889508198
28.8830276621095
27.4653351358414
25.7641309811534
23.2877199576824
20.8438433309925
19.6879136604105
20.1737838539469
21.6238289380505
23.4667822711635
26.0314943459587
29.9110200634637
34.7677989855079
39.2146033878715
41.9901896925675
42.9661425730343
42.7921879935544
41.7967251555312
39.670026561733
36.2921632471559
32.4505787867701
29.3248837266344
27.3114869174044
25.7123887939339
23.7144352203491
21.3950774072591
19.4743267647273
18.2180521670889
17.027229129893
15.3009686162523
13.4034033534502
12.3669555653316
12.6271129334841
13.4076714713487
13.5778297530468
12.9047884691988
12.1223444693078
11.7940725831492
11.5152082616105
10.5084361509993
8.78490057187128
7.26980207329324
6.66281904927166
6.5026827348771
5.67439098209936
3.7281610624361
1.33109285286849
-0.67799419192599
-2.33763899811387
-4.33312286736195
-6.84690912096561
-9.10159531799853
-10.292794927896
-10.7346223922577
-11.6944765575759
-14.0575924001608
-17.4647081642444
-20.9425414496795
-24.1207958658222
-27.4234977087548
-31.0388611571535
-34.122275459596
-35.3943307696395
-34.4547195395665
-32.169570970848
-29.6620150060439
-27.1989609043815
-24.3303187858545
-20.9646808163678
-17.8782883179037
-15.9780364589704
-15.3269293055736
-15.2418631773237
-15.322653118644
-16.0276185374762
-18.0239268513851
-21.171346041803
-24.4726033280396
-27.0360113225732
-28.7842815398506
-30.0434788149173
-30.6847839715587
-30.085714393599
-28.0348919522433
-25.3729455154299
-23.4415111477666
-22.9442781679294
-23.5779464095641
-24.7769117956895
-26.4919701803728
-28.9690631349564
-31.9077946085291
-34.2440655173066
-34.9645824237523
-33.9638600665926
-31.8767060661246
-29.1561070734359
-25.6214406824964
-21.0157264901652
-15.7403658427339
-10.73539756289
-6.6804735604801
-3.62695065236361
-1.5448670598743
-0.950152831725834
-2.61000636787685
-6.58375232645407
-11.8330621723923
-16.9524034459911
-21.1055621875815
-24.0020633382606
-25.0989043861647
-23.346867405378
-18.1077003132045
-10.1939475944611
-1.59615588969585
5.98566405101519
12.1530659939983
17.2444048476022
21.0722391787913
22.7172159008453
21.7007565080928
18.9545427469198
16.1516006702428
14.0487582484582
11.8336678745753
8.28473640942368
3.31008527939718
-2.00147217095029
-6.75819373406716
-11.2175193388854
-16.0948157859388
-21.2085230695358
-25.314977491342
-27.4121384903503
-27.855070842496
-27.8633343788973
-28.0769813973579
-28.0019020869303
-26.9580253134575
-25.1711773060018
-23.5380327901985
-22.4382860508049
-21.2660043570263
-19.3649214641495
-17.1213437750744
-15.7037534089593
-15.7161516047358
-16.4840577013413
-16.8720615936203
-16.5273630581468
-15.9290440792212
-15.2785936247292
-13.8592599713614
-10.8613947540739
-6.64587947571314
-2.7281019683738
-0.382731266586621
0.429451182697017
0.533244783131965
0.230881098564161
-0.982580968696758
-3.32984377036422
-5.86852280149295
-7.17582043657956
-6.83978867284303
-5.81966069173263
-5.14947754909729
-4.63697660468161
-3.23938451246727
-0.583808211376819
2.43171668221562
4.79266730008779
6.72319496519535
9.34544653669098
12.9885839179081
16.373426344148
17.8564194570818
17.2370068295064
15.8402844567226
14.78998314727
13.7310516369814
11.6435685767571
8.59136920886198
5.97146503649912
4.81263954484745
4.32533600666877
2.68406899880343
-0.855869524673002
-5.17329522578557
-8.78325030069585
-11.6123905082815
-14.7272516514674
-18.4722153094926
-21.6396149056339
-22.9230940920369
-22.7843156497966
-23.1822410057518
-25.3724165039256
-28.5614770353577
-31.1236017448227
-32.712681047771
-34.4286837036516
-36.8559394864843
-38.7619152184886
-38.4588359509609
-36.1945103615102
-34.3131637256703
-34.68093244654
-36.5248822929965
-37.4816965448793
-36.5333063749552
-34.9592371596012
-33.9667798783054
-32.1380722538581
-26.348987932541
-15.4435005472641
-2.21568591500545
8.90290752839184
15.8123550031585
19.7539607047053
22.5602945918494
24.0005857908502
22.5617058379793
18.1517023554838
12.5937402136391
6.9303578094053
-0.834878201804727
-14.283300931572
-35.1565195571948
-62.499193650727
-95.3256060200085
-134.481907045892
-180.00242459867
-226.721081819261
-264.578036886053
-284.982513729597
-286.366445930105
-271.77478898144
-240.886480365122
-186.840160528958
-103.462634081063
4.77769914493538
123.170765598926
239.568178361858
355.858799934651
483.46806088473
625.64431915313
765.897947469774
877.251615080685
944.200826758715
973.789760323299
982.790027120505
974.182697438753
928.873346605649
822.929012269572
653.346471444246
446.228943081026
239.74733011042
59.587006654154
-90.2471161954594
-216.767971280807
-322.94803549182
-404.283845474102
-456.844707052039
-484.178352530189
-494.682562669716
-494.138097644023
-483.261637633398
-462.453031211503
-436.515301716236
-412.840521545798
-395.455835722182
-382.535584147906
-370.267862721475
-357.941788724469
-348.024331396191
-341.697168764442
-335.967114412612
-326.139747112558
-310.581255284782
-292.045182392585
-274.315817268758
-258.488748469284
-243.0573860041
-226.908210502803
-211.045810538531
-197.137924263998
-185.280365435012
-174.073597658177
-162.697022199469
-151.976703338838
-142.947741507896
-134.874032634193
-125.43855293808
-112.970273126921
-97.9682924117485
-82.1693065462989
-66.544804797519
-50.789495121979
-34.7063926736714
-19.3891642595971
-6.49636745595082
3.47398443191182
11.6758479245822
19.559674376087
27.3943593383776
34.4137317995902
40.1586827496485
45.1418361398205
50.0479967456421
54.7082852965806
58.3312993019379
60.7067520183514
62.7498597217745
65.6131737073837
69.4685397177346
73.4642244505841
76.8125827268738
79.551121401034
82.0718500971978
84.213379131228
85.2659782838615
84.9506192982348
84.0625418581117
83.852405686851
84.8377449637764
86.4591621365268
87.9014022408496
88.9554508955572
89.8732142604881
90.5850567171983
90.4909555307164
89.2053737961274
87.2825348311412
85.8941568066413
85.7546240225257
86.5498177474719
87.4792000979719
88.1321854296281
88.5940022631734
88.7865582226917
88.0909687075797
85.8983978671403
82.4466240906691
78.8383571246002
76.1228634404273
74.4841567452463
73.4306614257427
72.637770797453
72.3531426529637
72.9343763491923
74.2358820700119
75.7105826377427
77.1042464760562
78.8193420969673
81.4390118899113
84.9628107753338
88.6493066047897
91.595950913727
93.3339095592045
93.825990886209
93.0846455490263
91.049456513866
87.8846913862404
84.1994898811986
80.761303722552
77.9500152283395
75.5579628095088
73.1139534853432
70.290285335948
66.9545494893237
62.9916641532058
58.3334539054268
53.2631932777615
48.5494526293435
45.0637254159274
43.1700722022676
42.5087643613609
42.3597330574179
42.1092089775957
41.3073735744391
39.4263054660131
35.8637834276316
30.3900140800883
23.5534308897155
16.4733939363831
10.1263432379316
4.84154287799551
0.480606010426669
-3.03003407992481
-5.50899749852154
-6.8526136881091
-7.35975101742048
-7.53265485737213
-7.55254527647861
-7.10833128850498
-5.8609574079999
-4.03628783683548
-2.45000058131411
-1.92364308984292
-2.74158450030372
-4.68562187169495
-7.44670357152372
-10.796667334229
-14.3115260057905
-17.1132186714033
-18.1495252749764
-16.877155537339
-13.6712161608105
-9.53986164693433
-5.46961624125218
-2.063568127771
0.310114602754663
1.27437282854853
0.552864385812487
-1.68069516059541
-4.73016385112075
-7.80987150816612
-10.5906352144162
-13.2975038745607
-16.2967487336096
-19.6647382429701
-23.178231059533
-26.6098674448554
-29.8713737420953
-32.831293838169
-35.1399101927788
-36.4357575081921
-36.8065746126903
-36.972128424153
-37.8951690261102
-40.1563612487499
-43.688907704418
-48.0362599162469
-52.7017293948301
-57.1353105673391
-60.4701406692487
-61.5464795951877
-59.4699764025006
-54.2634395968874
-46.9376376090437
-38.8631853515993
-31.052825736768
-24.0116405980978
-18.1283784343166
-13.9799774838279
-12.1071121285891
-12.5365163053028
-14.6831287110544
-17.8235229822428
-21.63621725523
-26.2065210917644
-31.5129132608791
-37.0030924211979
-41.7394455666596
-44.9338554652844
-46.3007171063085
-45.9555771855183
-44.1413763771172
-41.1803691779968
-37.6424535177365
-34.3681389706877
-32.1490343635283
-31.3160211477375
-31.6265651596316
-32.5115086073444
-33.3817367412783
-33.7473039448632
-33.2324814696169
-31.6922143316152
-29.391239386744
-26.9770183308763
-25.1359747429465
-24.1977010388656
-24.0424753779387
-24.3300066148961
-24.7310000832798
-24.9391781790848
-24.6134933212886
-23.5130523878838
-21.7688622143515
-19.9372307176662
-18.6616886623046
-18.2427274371117
-18.5499970441523
-19.2970494694334
-20.2667637849385
-21.2114369823817
-21.6760055285232
-21.1617042127814
-19.5677253463639
-17.3467803395873
-15.038807005215
-12.6193290037021
-9.42692312369976
-4.80330745810404
1.28387214651396
8.34596317521029
15.9773161532954
24.060401212592
32.1972758153227
39.1028520192002
42.9387394920408
42.5095418698348
38.1351624905313
31.2754815557028
23.3760176295704
15.2370041056028
7.44815451533039
1.03669461441793
-2.77713153372209
-3.60193023550975
-2.42818577632957
-0.90717043559755
-0.0539989921075055
0.239467489852302
0.486841938044819
0.706151751677787
0.437948614931418
-0.499133994307932
-1.64795432744675
-2.49230748710299
-3.22073543285993
-4.63855080908921
-7.28705696783414
-10.8428157570223
-14.4827026141425
-17.6624168302801
-20.3146614300582
-22.3600573102122
-23.3753722408425
-22.9712627420281
-21.3350423370805
-19.0678635818967
-16.4045646215844
-12.839347356822
-7.73433791710868
-1.18197755381605
5.99265536887115
13.0591604903634
19.8434475644988
26.0998203191198
30.6555300031724
31.7321290693704
28.4328235212219
21.7438472631143
13.7672315704748
6.00002160348582
-1.33697965274112
-8.26092248774112
-13.8518716192519
-16.718162569464
-16.6803903940739
-15.4646941606039
-15.2500323594022
-16.6003084029547
-18.1939116439852
-18.6073462924336
-17.8995403115024
-17.0980699187188
-16.4638498259601
-14.998015230294
-11.9592348461806
-8.39405829582608
-6.52511851669979
-7.58084041010991
-10.7175599741231
-14.3160016808452
-17.8783823026804
-22.0459292964768
-26.8671990079871
-30.8910181750352
-32.5796613379988
-32.2839343066611
-32.002655216488
-32.9462205839147
-33.9541109608816
-32.9218350730934
-29.4958125898584
-25.4811384853497
-22.2894240900059
-18.7593884651886
-12.4707894612801
-3.21567908200183
5.74628113054388
10.5089085690042
10.1987691309485
7.1527643791898
3.61829503658657
-0.68664753569972
-7.18771364699717
-15.5292908966664
-23.5198885943164
-30.397231681725
-39.0577331583377
-53.8738713014974
-76.4842335909738
-104.803721966986
-136.305541658356
-170.75119369497
-208.136484508626
-244.410025951023
-271.388220897431
-282.225880652615
-275.829896507755
-253.852399866683
-213.529411327782
-146.584808133133
-48.1716328514912
73.6483615997864
200.91091838295
320.906124866334
437.302622865661
562.944791507614
700.26306849839
831.168597334299
929.606853369912
984.32825165296
1006.16617943538
1010.30434546473
992.825233928273
929.133147312588
798.593823857723
610.150242413212
401.276046912336
210.694155047774
52.7131736893427
-82.2566816413003
-205.576842145204
-312.973766325184
-389.555338791522
-428.230097027612
-438.956166419781
-439.382353418002
-439.401672390797
-437.070841489057
-427.851198013401
-413.737388900592
-401.464912730006
-394.092490846114
-388.004707022198
-379.058124388127
-369.186489884429
-364.386288257636
-366.470731948991
-369.16148083254
-363.697780820583
-347.381907633128
-325.164324497649
-303.148067183007
-282.364812862585
-259.861110467788
-234.557793414933
-209.900787425656
-190.249138257528
-176.138915192268
-164.495439584657
-153.025347463428
-142.745814344124
-135.527615909563
-130.310101371192
-123.26649989162
-111.82079220028
-97.356373811633
-83.2619544795651
-71.0003864112106
-59.1877001142475
-46.4646634230984
-33.9985899710751
-24.2112701944097
-17.5257149805901
-11.5660071422085
-3.94810350191813
4.93049593290517
12.6247266266219
17.7872560701731
21.5941440782048
25.7818555867523
30.1457898553371
32.9286804392767
33.5316868259571
33.8235046899996
36.1836026302421
40.7607102707168
45.4786520451902
48.727244091187
51.218274406311
54.6915852619543
59.3498136332932
63.5121422144372
65.9303537664296
67.6041843294524
70.562123198275
75.0977707115237
79.0484884316759
80.1060515897638
78.2645212886269
75.4041635170458
72.7653651687614
69.7335651155377
65.4820350489424
61.1390978156263
59.3916865092433
61.7910232961689
67.0786486104533
72.612698037387
77.0738041614402
81.1278821625521
85.4930287794226
89.2140471059674
90.5344028949813
89.2125883839695
87.1596208962372
86.4397937245748
87.1028692495196
87.5279523503455
86.7296646508389
85.6384076415778
85.8280537286964
87.5128273805344
89.4787134399259
90.9482811210752
92.7965697690532
96.4271333333836
101.741611944912
106.852598197071
109.934748467351
110.885111217745
110.814509841806
110.263339497511
108.603205888993
105.3467689092
101.44349983543
98.6330730223512
97.5435480227335
96.9554972463019
95.1963948454145
91.9087381897598
88.027170228728
84.1978222818649
79.8766641569935
74.3257155588799
68.0925621220804
62.8439473975066
59.5904858762582
57.5148061639547
54.9094824929712
51.0552923351096
46.7222185314204
42.8261538027641
39.157114023219
34.8877609913774
30.1044098592209
26.181574662715
24.3358809368853
24.1362712525104
23.8809999267912
22.39025558913
19.995563777699
17.6203219998839
15.3360197262963
12.3693707999945
8.49888983134828
4.85745678991593
2.90924488442511
2.79712880194733
3.14715379543157
2.58873436230641
1.09338763138405
-0.452380647770557
-1.70315936284163
-3.33769696271727
-5.97196941773878
-9.05676900417404
-11.3445599410397
-12.4021693562704
-13.2157864512752
-15.0781520652837
-18.1468242094908
-21.4285306593715
-24.04353143947
-26.0080111706123
-27.5585338972127
-28.1134204152285
-26.5023761790687
-22.3631650963349
-16.9342259162949
-12.138390826143
-9.01617658907539
-7.37319622035781
-6.88407553410275
-7.99763836807989
-11.3389740904552
-16.4315141283663
-21.6049598264945
-25.4653094176359
-28.208410561119
-31.1457896279191
-35.0327744604349
-39.2770706053737
-42.9221698848829
-45.991761742255
-49.3663745233688
-53.3697103123842
-57.0104209984888
-59.0045594023938
-59.3523285640054
-59.4499752822448
-60.5502138822892
-62.4745571514576
-64.1180803761256
-64.9616907122318
-65.5600204074719
-66.4114187932483
-66.8188380819844
-65.4012814833686
-61.734390971353
-57.0452144588892
-53.013762959542
-50.1042725377531
-47.40992501952
-44.0490303132428
-40.2344007441148
-36.6969552163203
-33.3783097026384
-29.2701159803342
-23.7416980473039
-17.706668355862
-13.1289352974976
-11.4297585351039
-12.6466852090192
-16.1142541522211
-21.4959553872371
-28.735528167386
-37.1362514900946
-45.0351498599234
-50.7358935664401
-53.6371928344689
-54.1992393434026
-52.9134762857163
-49.7061986904276
-44.5133395606245
-38.0871834503711
-31.7500935776759
-26.2884664586583
-21.455481430563
-16.8196521710937
-12.8718167101067
-10.856440501795
-11.4215584364347
-13.7829009539344
-16.5095862288018
-18.958052210964
-21.5297848865131
-24.4747999606186
-26.9124064332187
-27.5041587194036
-26.0362036149201
-23.8805669382763
-22.6421726191695
-22.5840629347235
-22.7051335548379
-22.2417424511379
-21.5915679093655
-21.5021017287231
-21.7010118159688
-20.9011663847711
-18.2943534192376
-14.6427755421354
-11.5300931266146
-9.67323837884961
-8.37796212710922
-6.71421257640486
-4.77703200582206
-3.37351483077089
-2.63543638239905
-1.52313799549339
0.992438524470884
4.5509154967769
7.65161957500119
9.28506477608202
9.91802514627211
10.650979306039
11.736616322354
12.4286164561505
12.304440047848
12.2005863580348
13.3857040022943
15.9544445423072
18.535472872038
19.7663278920628
19.7148762578934
19.5002954595163
19.7012540285065
19.679040876439
18.6731912674794
17.1328498537445
16.4048488537432
17.0819702183432
18.1458081573066
18.0741811313944
16.5531174820842
14.6514919457393
13.3199815675314
12.2396745503514
10.5243587792571
8.26863035102017
6.76851653112946
6.99565076878549
8.27919308810369
8.97558578770903
8.35276810627176
7.31761339803493
7.10220532590168
7.67776169767711
7.99721954407835
7.71656779765887
8.03088460883865
10.3759640847023
14.5765863659313
18.8468225103413
21.7206665775799
23.5044919780795
25.4517817847706
27.8042990825323
29.2938942358142
28.7549317411483
26.6993103095008
24.7319921009649
23.5201916059888
21.9569690302621
18.6285711420645
13.6918233563859
8.73466119948043
4.83986134720378
1.41830096083311
-2.67447904620117
-7.28458391462017
-10.9122838878646
-12.5926301990967
-13.1917362468992
-14.309845119975
-16.1620776998458
-17.2436574417134
-16.2865381925878
-13.9592425689747
-12.0451596208461
-11.1849201584455
-10.2597676301902
-8.36041021843863
-6.73397572390996
-7.8996281000683
-12.7603722014148
-19.3356673049067
-24.8685629498418
-28.7354879950859
-32.4343458831203
-36.660940723914
-39.4056815549836
-37.8965003757568
-32.2375624609051
-26.0925427579789
-23.1865206909036
-23.6366316091544
-24.5027526144069
-23.8044607645995
-22.9800405667406
-24.8019517320969
-29.5763678293136
-34.6569381686239
-38.0765150051148
-41.8426601082779
-50.8494466924844
-68.80069934633
-95.936390404308
-130.461070292899
-170.535828140971
-213.445243697793
-253.368571687613
-282.125682288992
-293.629436303407
-287.073285172899
-264.382179847359
-224.711408899304
-163.601771045528
-79.3115645197063
21.0578338481881
124.890590188074
225.546770858576
329.338856428452
447.983041269584
582.514871640379
716.143430558496
825.577511711851
899.970347840499
946.704533735701
976.586572854585
984.144608567293
945.685793106175
839.605276618645
669.311441244262
465.505225751304
265.555799054914
90.5173569981491
-59.2411209223967
-189.752575231
-298.939697170106
-377.126338945589
-419.028470663165
-431.556456427788
-428.67810978734
-420.327394650927
-408.057568616199
-390.658083500966
-371.114407208878
-356.099493060913
-349.4254437045
-348.201631383143
-346.408262882834
-341.212769751704
-334.478225040997
-328.429457987011
-321.607129066798
-310.276928883565
-293.226320386351
-273.733538701117
-256.287554001952
-242.15471107031
-228.986390726001
-214.434405239253
-199.039394453369
-185.105571030709
-173.515345161734
-162.710800399889
-150.89280824509
-138.332011461138
-126.826360620028
-117.223726693353
-108.339979579904
-98.5875843663281
-88.0603354936309
-78.3555947131595
-70.4648227377893
-63.5243050676778
-55.9724724992432
-47.5001583129726
-39.2541920408282
-32.1381059660785
-25.5229780206281
-18.052363046329
-9.43921148818148
-0.889543697101537
6.37686376950138
12.5761621217273
18.94733898033
26.0871219182424
33.2128053544676
39.2480166495555
44.2431308200874
49.2629293580757
54.9177056506781
60.4709195498358
64.6751352867983
67.2490174038016
69.1254196646433
71.2235563393354
73.3660880751069
74.6844546291563
74.8823956972388
74.6608750841725
74.7788604366619
75.0308359480189
74.5013422712781
72.763657730504
70.474263815155
68.6356127240712
67.5278109989712
66.6767235051877
65.8039156166335
65.4084874420653
66.1599798643592
67.9001531935572
69.6031100486215
70.4022720257521
70.3988324147523
70.2502987268446
70.1218430842581
69.3926868138783
67.4957016982944
64.768066226906
62.1669103774986
60.1840316784592
58.3467010497137
55.9478516313949
53.0729744351121
50.616884122022
49.2812939083295
48.8328944255121
48.5379608496
48.1734424164218
48.3069813968405
49.519141628815
51.6084471918856
53.8123090441819
55.7428711702795
57.8239177195846
60.6817739561728
64.2889124875087
67.9403244370156
71.0384292549047
73.6413141150615
76.1004925064553
78.3421295530727
79.8002386148614
80.1176252782209
79.6925486307495
79.3343241478582
79.4418353258353
79.7191467296081
79.7220432255049
79.4568458259317
79.2361522050811
79.0297935047198
78.2446152271
76.2994754671489
73.288639064483
69.8755276377754
66.5392248997999
63.1230288874631
59.2227568540732
54.8475475862791
50.4447513018138
46.2522050545001
41.8709479284651
36.6969487007914
30.7233162931459
24.6983130228934
19.4105338002
14.9753331024542
10.9923549303721
7.32899583579615
4.48950643713037
3.07544366565872
3.02477491405528
3.61308172166728
4.23250084079787
4.9751696692448
6.29833732346307
8.20718916943554
9.98242651007731
10.7768006620687
10.3315064176535
8.97318308755261
7.00356398130218
4.33091551837487
0.798082588042784
-3.29139819050368
-7.20171311983792
-10.3593741704856
-12.7931520001218
-14.9196765601549
-17.0138378960551
-19.0396906638036
-20.950921122796
-22.9144808828333
-25.062936478577
-27.1075305254549
-28.4185139877317
-28.5928703046984
-27.861554192878
-26.8588273889635
-26.0857958278878
-25.7696389306651
-26.2373349236488
-28.1623736694729
-32.1576211984842
-38.0807517564451
-44.9158377037229
-51.4770705534787
-57.1810913018676
-62.0386454291986
-65.9879755048316
-68.5113243514655
-69.0838962705362
-67.8881324247145
-65.8240075502662
-63.7043577470729
-61.568731761504
-58.9392996751499
-55.6909805710057
-52.4565967534809
-50.0794816892835
-48.8076308071322
-48.209075480273
-47.8458548756933
-47.796625398593
-48.362911787545
-49.3832387102927
-50.0971632589055
-49.7941131835605
-48.4768404702576
-46.7533411203133
-45.1383146070999
-43.6388373747106
-42.0555393138996
-40.4746089443155
-39.217527024601
-38.298943594635
-37.1544234672276
-35.0853765336158
-31.9374157934062
-28.2043198272767
-24.4607398100278
-20.8490692004674
-17.2197949912375
-13.6376668254628
-10.4940193174749
-8.02384499190897
-5.86664201949426
-3.31075080082338
-0.00254163529021723
3.70465134113738
7.1522485255957
10.0032626795898
12.3450433958735
14.2471074544095
15.4588620430958
15.6965387218006
15.1292396700188
14.3620121648606
13.8539008816778
13.4594650972923
12.6497277947964
11.1202673015781
9.03738523547217
6.69344436617628
4.13270129590808
1.31118774583349
-1.43086572919231
-3.31101717900525
-3.69961524399566
-2.73494141051826
-1.22630537257477
0.0430279888537815
0.785290657051013
0.96398280612387
0.306432052213729
-1.64384314574643
-4.91041936036248
-8.71679605626075
-11.9670509889192
-14.1262618551174
-15.5098042033675
-16.680997969908
-17.7325438278417
-18.3244069958877
-18.3443605345022
-18.2428051395891
-18.5291258793825
-19.048610634144
-19.0146739438664
-17.8559794829152
-15.8952496613742
-14.0424684496877
-12.8751437851566
-12.204547795037
-11.5843121889823
-11.0324833229273
-11.0111370934822
-11.7054388657338
-12.5734436550528
-12.8080880999513
-12.1894544045641
-11.2911055861572
-10.7840006736016
-10.662037327952
-10.2530755010132
-8.88419435801308
-6.33226210802749
-2.60299583397054
2.47363269228868
9.12781449031978
17.0707733365562
25.1992996956906
32.028525175221
36.4144392275704
37.8326810297736
36.1285023303704
31.3307893086451
23.9034573786082
15.0185553360524
6.22068556559116
-1.40561483328955
-7.71555807084766
-13.0967239168957
-17.6957744760254
-21.2413879127035
-23.6267665391571
-25.3756635835999
-27.220820837104
-29.2088458792459
-30.4887758651068
-30.1986846670168
-28.4890603501202
-26.4611505292878
-25.0616073299515
-24.2311545153175
-23.274133281422
-21.8916762281808
-20.5192321692404
-19.5471822705071
-18.4853998312195
-16.253290060021
-12.3601499659813
-7.58575296799523
-3.35692194000421
-0.597962667510046
0.604018427843073
0.319678885707668
-1.79376181021877
-6.06754898983004
-11.961651855786
-18.0189962696765
-22.8312038041433
-25.8107899248598
-26.7691143628435
-24.9690573129344
-19.2410162845698
-9.50097106381554
1.99540555690368
11.4504621209724
15.9446028049964
15.0447812560357
9.90392886390623
0.919196448847714
-13.4128602324652
-35.2543692661532
-65.2611904863436
-101.661183932145
-140.933572157037
-178.714940388473
-210.109970636864
-230.299957051986
-236.366730537617
-229.118565552865
-212.369057849465
-189.124917676025
-157.766322886362
-112.102189810918
-45.5498886052447
44.528699045071
156.0898289024
284.530228713837
423.742078811671
564.499885701038
693.537679685573
797.353790966245
869.090939095132
911.23249104592
929.266239055422
921.084933961482
873.440073222768
771.582961672757
615.05421800337
424.91733168468
234.490674836145
70.8085899801075
-57.5596622610261
-157.419647872013
-238.20776905656
-302.73674819241
-348.546743895477
-375.219264407367
-388.144296979313
-394.988680845334
-399.646809641471
-400.34464879943
-393.10273333048
-376.200507282317
-351.506737092588
-322.862974717087
-294.331057263157
-269.659318246772
-251.885619406764
-242.161175641459
-238.926295873316
-239.011092472063
-240.018313839415
-241.438959852329
-243.239269562296
-243.80621789423
-240.104446671346
-230.218419261371
-215.35883604999
-198.842075265658
-183.103497196226
-168.126136399812
-152.883016129531
-137.725457782605
-124.629877925744
-115.01915518415
-107.927712259365
-100.805861639964
-91.9728491481498
-81.7990981251054
-71.4406671892813
-61.0122199591993
-49.5858280906664
-36.8621074647441
-24.1601200678857
-13.3161372233073
-4.84595461723205
2.30894971764031
9.17388316982244
15.3559077107442
19.6074876877165
21.5146817722204
22.0758314841741
22.4548315775121
22.6081088892697
21.6395243240281
19.4508751513913
17.5182430296869
17.6962163284856
20.4496741112512
24.6280876397993
28.941582240012
33.2085470844803
37.8758407397362
42.6343773375954
46.1264791207251
47.2730504341218
46.5825651941138
45.7573898973849
46.0330428587701
47.2346384990878
48.5560286172121
49.8791713552291
51.8787230190277
54.8664629231019
58.0293385225762
60.1862056504164
61.1607664962137
62.0148078305879
63.8179923635662
66.4768281038123
69.0230220787115
70.8700110714517
72.3631413536319
73.9757051454899
75.3382078594029
75.5055226432764
74.1973829063042
72.4042607360877
71.50753689083
71.9406480055257
72.9819820043601
73.8109831330667
74.3909259285159
75.0812619507524
75.6295674528045
75.0276808673968
72.5532104694529
68.7059337905093
64.815070153484
61.755044853583
59.3035794190581
56.8078848641457
54.1609931023469
51.7980446320974
49.8245266802208
47.5829145611767
44.3655552265339
40.4070288067209
36.8498694841579
34.6710451003388
33.8805600206923
33.9168834040454
34.5909946744913
36.2591441631847
39.0123146297169
42.0612288741813
44.2875947216067
45.3708980140342
46.0578507785065
47.1784387524744
48.612315810959
49.480536522002
49.2648330049364
48.3786840625444
47.4673622282977
46.4112836062489
44.417469862857
41.1535322378789
37.4693103667395
34.7178162330847
33.4497285851977
33.0445751520915
32.6464247258401
32.1478919335593
32.0005368869325
32.23062886083
32.0851455387738
30.8633940582158
28.8736092170394
27.232479014201
26.6951818050629
26.9390878058082
27.1189811206792
26.879962053212
26.4993763057082
26.0738216154189
24.9834470008377
22.4880047016532
18.7416289286217
14.8616660099708
11.8569827477874
9.69656991887661
7.63074527483165
5.26771566704304
2.96704514136485
1.07786891976245
-0.858544160257292
-3.73312123993143
-7.68019301447695
-11.6035905443316
-14.1317706999935
-14.9227260088138
-14.7834295716204
-14.5616291391047
-14.2932723761756
-13.6788157879013
-13.1609160599502
-14.0416998928171
-17.3122655153906
-22.575768902888
-28.4037914141002
-33.7079006866235
-38.4826337155194
-43.1331109403681
-47.4043650023554
-50.358955390625
-51.4056391127238
-50.9895532934891
-50.017684685632
-48.7616086628942
-46.6502276197789
-43.1869304393773
-38.7762334132708
-34.4149018507594
-30.71514556188
-27.5565756936088
-24.7440102640945
-22.6628060493938
-21.9507176381368
-22.5955476419748
-23.7209885910167
-24.4539177064991
-24.8164877046882
-25.5108277314732
-26.9016373309948
-28.5523004552572
-29.9146137043003
-31.1944192853205
-33.1321290257383
-35.8779262205107
-38.423799252585
-39.4396672476675
-38.5819260842855
-36.7023189560527
-34.750000172476
-32.7901510270001
-30.3519669599905
-27.5454933128807
-25.3673496582149
-24.6868724609211
-25.1711034300813
-25.5559727897162
-24.990366001415
-23.8376508506737
-23.0376192984417
-22.9541392545088
-23.1965315950895
-23.5250499004331
-24.4909476632322
-26.843025655714
-30.4198424562107
-33.9850739758616
-36.273991166665
-36.9791417865648
-36.5369554711532
-35.1738866790086
-32.5911692218911
-28.706587021242
-24.3578677890169
-20.8700844608677
-18.9181211992517
-18.111553898446
-17.8196311282179
-18.1259750356921
-19.6407602979873
-22.4460406085713
-25.6423052732652
-28.1745638848872
-29.871041607927
-31.2837237322476
-32.5035206292155
-32.5538267072093
-30.2862621972447
-25.7298464846566
-20.1762575433228
-14.8669023144472
-9.95174626340674
-5.02402150847567
-0.430438817518723
2.52195558628054
2.9140985973251
1.45726511246203
-0.0317208914083551
-0.383753633621563
0.0567451001425479
0.442987159822176
0.896100834126043
2.45679341800293
5.5786495173693
9.20366071888618
11.7621927270791
12.9298101145974
13.9247600588261
15.9529046621677
18.7667291099377
21.1346253518354
22.5282573595745
23.7712344559605
25.7947949954561
28.1732906391882
29.4356099523619
28.8247928543144
27.2516251891497
26.2036845733244
26.0159418362681
25.7172305075365
24.577575371468
23.2489740246318
22.964507478605
23.8775111761762
24.8023276631953
24.7671185079548
24.3461784391236
24.9724783848706
27.0831101750983
29.5207190213969
30.9811011839263
31.5830097664715
32.4544802966976
33.8792215384329
34.5319985086827
32.9553256491618
29.4316050506194
25.7613887385653
23.1236207594511
20.7285199699162
17.0023159817801
11.7534516550739
6.46249439290077
2.29221809585957
-1.54203991403685
-6.80344638484218
-13.8321432884773
-20.8372851523115
-25.8805207660691
-29.0466019385956
-32.0210390720642
-35.6710736852268
-38.8482101656637
-40.0083999498077
-39.4692122297532
-39.2024012014794
-40.3052949216882
-41.4624270839657
-40.5288094894611
-37.2698382022806
-33.6832123774689
-31.4591744998309
-29.9630947593956
-27.5062678343954
-24.254052037119
-22.7298857472577
-24.8900029974501
-29.4005364004319
-32.8204928188147
-33.4571698494931
-33.0218338722982
-33.8518782336646
-35.2677904233998
-34.0401150825041
-28.7541556488512
-22.5218664315167
-20.1060060683766
-22.5044347239126
-25.6342789362982
-25.037858403041
-21.0540657987997
-18.0794725505169
-18.7590341261398
-20.4138933232495
-18.5532822054823
-13.6882799836654
-13.3628898579372
-26.6362419230373
-56.7615219430224
-99.4023232103416
-147.016024647488
-193.579609866341
-235.057543667628
-267.207006206363
-285.019218186912
-284.492076615488
-263.536811207857
-220.532217886392
-153.577134644355
-63.33161016422
43.5106175719198
156.376569630162
269.080655568343
385.522875205897
514.116772845652
654.320723236796
789.741538887948
897.554573492217
966.146564462477
1001.83142751358
1015.82955464932
1004.87387922356
947.843270144983
824.816978391309
640.274542873058
426.247476795948
221.40569465228
46.6248110651607
-100.062582731972
-227.770832496285
-335.95836286143
-414.231419519386
-455.947986037464
-468.02251802998
-465.86106491548
-460.4198695247
-452.315032954595
-437.971591862162
-418.539264498719
-400.65647892147
-389.411190779599
-383.169910050739
-376.497296799333
-366.81136279161
-356.332417508548
-347.611919691923
-339.128130013563
-326.794720954915
-309.254444152354
-290.037636924727
-273.850607239232
-261.643904496949
-250.334017499021
-237.028419448162
-222.268114087689
-208.618984913256
-197.026351456073
-185.791529836642
-173.155149980382
-159.740769559984
-147.60393252451
-137.308010009094
-126.990180637353
-114.622825121658
-100.472087908714
-86.621238220143
-74.341906868881
-62.8103024590057
-50.7245338420528
-38.5074874689465
-28.0889861493707
-20.5350614972995
-14.6364857496774
-8.29013749170353
-0.874923972105165
6.39577331226629
12.4659983528818
18.0771192588068
24.919068970349
33.4556719546438
42.2827892404459
49.8273499228288
56.1485599379425
62.5161287021499
69.3519194455649
75.2177141111039
78.1539161355402
77.6819344344718
75.0278178520275
71.4691985665215
67.0451876543811
61.2395760998349
54.5974086079098
49.0389149653404
46.3586199177601
46.7217871227574
48.9188382562504
51.8954315714576
55.5916941205862
60.2152111766898
65.1718370117077
69.229640030389
71.7494810270113
73.3615388435969
75.1917077308186
77.6192867166095
80.095662996114
82.118726085918
83.9852341656489
86.3417301536915
89.2138328865249
91.8809040557847
93.8012628742274
95.365289533308
97.4554515130396
100.339679338887
103.279502547953
105.304844776627
106.139478738281
106.153793523751
105.549457978353
103.964402585205
101.064794549927
97.3346252935239
93.9790892656839
91.9832886195637
91.4211937671821
91.7477871666042
92.5610880525875
93.8258344179874
95.3834678267966
96.5609829220105
96.5267905664284
94.9978557340765
92.4030307341552
89.3051512078416
85.82666045851
81.7656070319221
77.1473997698617
72.410350025038
67.9772379488301
63.8348133394676
59.7382933453369
55.790165560479
52.595016437683
50.7188754679586
50.0940598507597
50.0980083592761
50.1781052396681
50.2219356938768
50.2592719143732
49.9970128049969
48.9087089925746
46.8358080302932
44.3284908454136
42.2348881247732
40.9813803907594
40.3605224706242
39.9837077538217
39.7372164495291
39.6599936265304
39.495744816769
38.6310197166096
36.6053977719331
33.5789750135319
30.142941340384
26.6767734351139
23.0249677966943
18.8451053694979
14.1211807268108
9.15920959597715
4.10300664608326
-1.33252620425995
-7.48743091429559
-14.1721568017586
-20.620663839506
-26.088848146792
-30.4180641209752
-33.9414494031885
-36.9216257006796
-39.2386803398941
-40.6588861772167
-41.251352953577
-41.3654228482372
-41.1939919178739
-40.5026168112477
-38.8937183787248
-36.3016395155264
-33.1491875427093
-30.0409018782898
-27.4104205536196
-25.4973691435267
-24.5271333877633
-24.7104769899798
-25.9923796931026
-27.8981715593443
-29.7595540154713
-31.1343598811177
-31.9888160375973
-32.5112547803295
-32.8659952139125
-33.1994277434444
-33.8004073495356
-35.0694367261353
-37.2102891523949
-39.975031944644
-42.797251530297
-45.209397078518
-47.1135309054144
-48.6711191066763
-50.0329404926248
-51.2639571841375
-52.4903737034707
-53.9689663639144
-55.8889937833746
-58.1058765373216
-60.1466614120364
-61.5271001639243
-62.0634674918952
-61.8950447202879
-61.2876335562783
-60.4981465027947
-59.804773352493
-59.526742972482
-59.8689863943499
-60.7057256408431
-61.566175435295
-61.8844629210858
-61.2797700203474
-59.6259701235265
-56.949878964019
-53.3833581866567
-49.2455135997831
-45.0695755655861
-41.3977297332984
-38.4648928439925
-36.0918181742913
-33.9210909237567
-31.7588079901232
-29.6804848809183
-27.8511838105461
-26.3383121059098
-25.1628638643356
-24.4965383642631
-24.698610142672
-26.0650943716681
-28.516476266716
-31.5536966107502
-34.5436226572886
-37.0633406362107
-38.9979481466979
-40.3589519587964
-41.0568303527632
-40.8581474951629
-39.5335737028631
-37.015439521369
-33.4063063467913
-28.8563245524956
-23.467164568279
-17.3529554451856
-10.8232620885736
-4.50216304533749
0.78936395827062
4.36912103380767
6.01896404432431
6.05156002703885
5.0855567841399
3.74540770452556
2.52763180120837
1.85051134934368
2.08740624593654
3.43242449766423
5.70608272104089
8.35912460064375
10.7707312984595
12.6305436803608
14.0917191339516
15.6005702785338
17.5966983520821
20.3279704023749
23.8312004422771
27.9579946554704
32.361674173422
36.5015271382731
39.7506988896282
41.5834558474818
41.7311964336103
40.2411910618493
37.4565270917756
33.9340471379308
30.2719675812154
26.8679257121255
23.7568911420105
20.69045968094
17.4168189306631
13.9057694806273
10.3192762315254
6.82570493611699
3.53288624561053
0.628021706082546
-1.51076165383807
-2.48424057058585
-2.22014550195213
-1.10899990301501
0.276216006608049
1.60839802713654
2.94092128716813
4.46612105030625
6.26043266263996
8.33911781743003
10.8758661297447
14.1793544115867
18.3377349457553
22.9391004260465
27.2706143647001
30.8440704894903
33.683877901945
36.0917078048037
38.2339534843224
40.0732393614501
