Value(μV)
6.96203470230103
-2.76573991775513
-4.00555419921875
0.47685170173645
-6.58055353164673
-9.72777462005615
-1.33518481254578
8.96481227874756
19.6462898254395
23.1749935150146
24.891658782959
28.6111011505127
22.2212886810303
12.3981437683105
6.96203470230103
7.15277528762817
13.8286991119385
15.6407356262207
13.0657367706299
14.4962921142578
10.6814785003662
5.91296100616455
10.5861072540283
4.7685170173645
-20.5999927520752
-41.2953567504883
-45.9685020446777
-53.121280670166
-55.6962776184082
-49.6879463195801
-54.4564628601074
-62.6583137512207
-73.4351654052734
-67.903678894043
-40.8185043334961
-17.1666603088379
49.1157264709473
160.985137939453
282.391571044922
424.302642822266
567.548889160156
663.491455078125
706.694213867188
756.286804199219
779.652526855469
674.745178222656
446.142456054688
199.514755249023
51.404613494873
1.14444410800934
-67.1407165527344
-206.476791381836
-343.523956298828
-418.866546630859
-437.463745117188
-402.748931884766
-351.344329833984
-322.923980712891
-307.283233642578
-308.523040771484
-327.311004638672
-334.082305908203
-325.880462646484
-306.901763916016
-265.606384277344
-214.869369506836
-169.091613769531
-132.660140991211
-119.68977355957
-122.741630554199
-132.374038696289
-138.95458984375
-137.619400024414
-137.428665161133
-122.93236541748
-90.3157119750977
-63.4212760925293
-45.7777633666992
-31.1861019134521
-29.0879535675049
-48.6388740539551
-68.7620162963867
-68.1897964477539
-64.3749771118164
-61.7999801635742
-50.1647987365723
-35.8592491149902
-19.074068069458
-4.57777643203735
-1.14444410800934
-4.67314672470093
-8.96481227874756
-11.2537002563477
-9.63240432739258
-4.95925760269165
-2.67036962509155
-4.57777643203735
1.33518481254578
16.4036979675293
22.7935104370117
22.8888816833496
20.9814739227295
14.5916624069214
13.8286991119385
18.1203651428223
29.4694347381592
42.4398002624512
45.7777633666992
50.832389831543
60.8462753295898
66.1870193481445
69.0481262207031
69.4296035766602
62.7536849975586
57.5083160400391
52.6444282531738
42.4398002624512
42.9166526794434
49.8786888122559
52.6444282531738
54.170352935791
51.0231323242188
53.3120193481445
61.0370178222656
57.2222023010254
46.5407257080078
52.2629470825195
70.2879409790039
69.0481262207031
61.1323890686035
64.1842422485352
61.6092376708984
53.0259094238281
49.8786888122559
54.6472053527832
61.323127746582
57.6990547180176
45.1101722717285
46.0638732910156
46.4453544616699
36.3360977172852
42.3444290161133
48.6388740539551
52.3583183288574
61.5138702392578
56.0777587890625
51.3092422485352
47.4944305419922
35.382396697998
35.1916542053223
38.0527648925781
37.9573936462402
45.3962821960449
53.8842430114746
55.219425201416
52.453685760498
53.7888717651367
54.5518341064453
52.1675758361816
52.8351669311523
48.5435028076172
42.630542755127
46.6360969543457
54.4564628601074
55.9823913574219
56.4592399597168
57.4129447937012
49.6879463195801
42.3444290161133
43.2027626037598
41.0092468261719
42.1536903381348
54.170352935791
63.5166473388672
70.1925735473633
71.1462707519531
63.039794921875
55.6009063720703
47.7805404663086
43.1073951721191
41.8675804138184
38.5296173095703
33.1888771057129
33.0935096740723
41.7722091674805
49.6879463195801
45.6823921203613
32.2351760864258
21.1722145080566
13.256477355957
10.204626083374
6.1037015914917
3.33796191215515
9.25092315673828
9.44166374206543
9.82314491271973
10.3953666687012
3.05185079574585
0
-3.5287024974823
-9.82314491271973
-12.302773475647
-14.3055505752563
-13.256477355957
-11.3490705490112
-16.2129573822021
-24.891658782959
-27.4666576385498
-26.1314735412598
-29.5648059844971
-33.3796195983887
-32.8073959350586
-39.1018409729004
-48.9249839782715
-49.4018363952637
-36.7175827026367
-21.4583263397217
-27.1805477142334
-43.7749862670898
-50.832389831543
-54.8379440307617
-61.6092376708984
-72.3860855102539
-69.5249786376953
-49.2110939025879
-37.0036926269531
-32.3305435180664
-30.8999900817871
-39.864803314209
-49.3064651489258
-48.6388740539551
-45.6823921203613
-49.8786888122559
-51.9768333435059
-47.8759117126465
-47.4944305419922
-46.1592445373535
-44.0610961914063
-54.6472053527832
-59.1296119689941
-48.5435028076172
-51.4999847412109
-60.4647941589355
-56.0777587890625
-48.3527641296387
-45.8731346130371
-50.5462799072266
-56.5546112060547
-52.7397994995117
-42.0583190917969
-28.4203605651855
-16.9759197235107
-16.022216796875
-21.4583263397217
-28.1342506408691
-28.8018417358398
-23.6518440246582
-26.1314735412598
-28.6111011505127
-27.3712882995605
-35.2870254516602
-41.1046180725098
-40.0555419921875
-32.7120246887207
-18.8833274841309
-24.4148063659668
-36.3360977172852
-27.7527694702148
-14.4009208679199
-8.96481227874756
-13.256477355957
-23.7472152709961
-29.7555465698242
-26.8944358825684
-21.6490669250488
-17.357400894165
-19.7416610717773
-34.5240631103516
-35.7638778686523
-26.226842880249
-31.7583236694336
-22.5074005126953
-0.858333051204681
-0.858333051204681
1.04907369613647
11.635181427002
9.9185152053833
-0.0953703373670578
-9.82314491271973
-11.2537002563477
-5.34073925018311
0
0
1.81203651428223
5.91296100616455
-0.381481349468231
-5.7222204208374
-4.86388731002808
-5.53147983551025
-1.81203651428223
-4.1962947845459
-13.0657367706299
-8.20184898376465
-4.48240613937378
-14.1148099899292
-15.5453653335571
-10.3953666687012
-10.9675893783569
-6.38981294631958
4.1962947845459
13.0657367706299
12.4935140609741
2.5749990940094
2.47962880134583
2.38425850868225
-9.15555286407471
-12.588885307312
-13.0657367706299
-11.9212923049927
-4.7685170173645
-4.1962947845459
1.62129580974579
7.6296272277832
4.10092449188232
13.9240694046021
24.9870281219482
18.1203651428223
13.6379585266113
10.5861072540283
7.15277528762817
10.0138854980469
7.34351634979248
8.86944198608398
17.2620315551758
17.357400894165
14.4962921142578
12.2074031829834
5.53147983551025
-2.67036962509155
-8.96481227874756
-12.6842555999756
-9.72777462005615
-9.44166374206543
-12.588885307312
-15.4499950408936
-27.5620288848877
-32.6166572570801
-36.0499877929688
-49.4018363952637
-57.8897972106934
-42.9166526794434
9.25092315673828
55.0286865234375
91.3647842407227
171.380493164063
294.026763916016
434.793365478516
577.848876953125
694.963684082031
744.079406738281
777.458984375
823.904357910156
740.741455078125
496.688720703125
233.466598510742
52.9305381774902
-27.1805477142334
-75.6286773681641
-173.478652954102
-315.389709472656
-430.978576660156
-467.028564453125
-438.989685058594
-393.021179199219
-351.725799560547
-320.921203613281
-318.823059082031
-358.020263671875
-394.260986328125
-404.751708984375
-401.699859619141
-371.085998535156
-323.782318115234
-268.372131347656
-211.62678527832
-164.990692138672
-133.995330810547
-143.15087890625
-177.865676879883
-193.220306396484
-189.310119628906
-180.536056518555
-157.170318603516
-118.068481445313
-84.6888580322266
-64.756462097168
-53.4073905944824
-56.2685012817383
-72.2907180786133
-89.3620071411133
-93.9397811889648
-82.1138610839844
-68.9527587890625
-55.6962776184082
-26.226842880249
-5.53147983551025
-12.6842555999756
-17.357400894165
-21.5536975860596
-29.8509159088135
-30.4231376647949
-26.5129547119141
-11.9212923049927
14.3055505752563
32.7120246887207
35.382396697998
45.6823921203613
50.6416511535645
39.1018409729004
46.8268356323242
53.3120193481445
46.7314682006836
49.8786888122559
43.679615020752
36.2407302856445
40.2462844848633
51.5953521728516
68.5712738037109
66.1870193481445
55.4101676940918
63.4212760925293
63.3259048461914
55.219425201416
68.8573837280273
85.1657104492188
86.5009002685547
87.8360824584961
88.9805297851563
83.4490509033203
86.4055252075195
91.6508941650391
87.3592300415039
89.0758972167969
83.3536758422852
64.5657196044922
65.3286819458008
74.2934951782227
78.7759017944336
92.5092315673828
94.416633605957
81.4462738037109
73.2444229125977
76.0101623535156
92.7953414916992
91.8416366577148
66.4731292724609
54.8379440307617
50.832389831543
45.9685020446777
53.9796104431152
61.323127746582
50.2601699829102
46.7314682006836
51.6907234191895
34.4286918640137
29.0879535675049
40.1509132385254
31.1861019134521
23.8425846099854
42.1536903381348
75.3425674438477
87.6453399658203
82.876823425293
86.3101577758789
77.1546020507813
58.9388694763184
47.8759117126465
38.2435073852539
36.6222114562988
39.6740608215332
53.3120193481445
69.2388687133789
67.2360916137695
70.9555358886719
73.1490478515625
52.9305381774902
41.7722091674805
53.0259094238281
46.1592445373535
45.4916534423828
65.0425720214844
48.5435028076172
49.783317565918
72.8629379272461
64.1842422485352
63.8027572631836
56.4592399597168
36.3360977172852
29.0879535675049
21.7444381713867
15.7361059188843
15.5453653335571
25.4638805389404
38.6249885559082
41.6768379211426
14.0194396972656
-17.1666603088379
-12.588885307312
-8.58333015441895
-7.72499752044678
3.05185079574585
11.9212923049927
15.8314762115479
8.0111083984375
0.572222054004669
-6.1037015914917
-17.5481433868408
-28.8018417358398
-43.8703575134277
-48.5435028076172
-34.0472106933594
-25.7499923706055
-29.9462871551514
-33.2842483520508
-35.0962867736816
-36.9083213806152
-44.6333198547363
-45.2055397033691
-38.3388748168945
-37.7666549682617
-34.1425819396973
-41.5814666748047
-57.6036834716797
-57.2222023010254
-54.8379440307617
-54.6472053527832
-48.5435028076172
-47.7805404663086
-53.9796104431152
-59.4157218933105
-61.8953514099121
-58.3666496276855
-47.017578125
-40.1509132385254
-35.6685066223145
-23.1749935150146
-26.6083240509033
-44.9194297790527
-50.355541229248
-51.4999847412109
-53.2166481018066
-47.3990592956543
-40.1509132385254
-38.0527648925781
-31.8536930084229
-26.5129547119141
-34.5240631103516
-45.6823921203613
-54.5518341064453
-54.0749816894531
-34.1425819396973
-17.0712909698486
-19.5509204864502
-22.125919342041
-7.24814605712891
1.23981440067291
-14.2101802825928
-23.4611034393311
-14.9731435775757
-11.1583299636841
-11.1583299636841
-11.0629596710205
-19.5509204864502
-33.761100769043
-40.913875579834
-20.8861045837402
4.38703584671021
0
-16.7851791381836
-20.8861045837402
-13.3518476486206
-7.53425693511963
-1.81203651428223
2.00277709960938
-13.1611070632935
-25.5592517852783
-18.5018463134766
-22.4120292663574
-26.7990646362305
-2.76573991775513
17.6435127258301
11.8259220123291
8.29721927642822
3.71944332122803
-1.52592539787292
9.25092315673828
-9.15555286407471
-36.8129501342773
-24.4148063659668
1.43055510520935
23.5564746856689
14.0194396972656
-19.9324016571045
-21.839807510376
-2.95648050308228
-4.1962947845459
-16.5944385528564
-25.177770614624
-21.1722145080566
-18.2157344818115
-27.2759170532227
-21.3629570007324
-4.67314672470093
-0.762962698936462
-16.9759197235107
-24.7009181976318
-8.48795986175537
-5.24536848068237
-17.357400894165
-27.4666576385498
-31.6629524230957
-20.5999927520752
-15.9268465042114
-34.6194343566895
-45.9685020446777
-48.1620216369629
-35.6685066223145
-11.635181427002
-15.8314762115479
-21.0768451690674
-14.8777732849121
-26.3222141265869
-29.5648059844971
-15.6407356262207
-11.3490705490112
-9.15555286407471
-8.96481227874756
-11.7305517196655
-1.14444410800934
9.82314491271973
2.09814739227295
-23.1749935150146
-31.8536930084229
-30.8999900817871
-52.1675758361816
-50.4509086608887
-31.0907306671143
-40.2462844848633
-44.6333198547363
-42.5351715087891
-46.6360969543457
-33.8564720153809
-21.7444381713867
1.43055510520935
55.3147964477539
92.0323791503906
114.635147094727
211.436050415039
392.639678955078
565.069274902344
681.32568359375
758.003479003906
811.506225585938
847.460815429688
827.051574707031
645.275695800781
365.554504394531
194.269378662109
106.242561340332
20.9814739227295
-79.06201171875
-231.749923706055
-362.693389892578
-424.207275390625
-446.619293212891
-440.515594482422
-413.811889648438
-384.723937988281
-367.271179199219
-374.137847900391
-409.520233154297
-432.027648925781
-430.024871826172
-416.57763671875
-369.083221435547
-303.086944580078
-254.543441772461
-222.880477905273
-214.774002075195
-221.449935913086
-228.507339477539
-223.071228027344
-167.470321655273
-135.330505371094
-169.282348632813
-156.693466186523
-117.114776611328
-97.6592254638672
-50.355541229248
-20.0277709960938
-35.2870254516602
-70.2879409790039
-92.6045989990234
-80.3971939086914
-67.2360916137695
-58.652759552002
-36.3360977172852
4.7685170173645
32.5212860107422
28.0388793945313
35.1916542053223
44.7286911010742
28.3249912261963
8.58333015441895
11.8259220123291
44.7286911010742
77.8221969604492
81.9231185913086
71.5277557373047
71.4323883056641
65.6147918701172
40.4370231628418
20.409252166748
20.8861045837402
31.2814712524414
33.3796195983887
48.6388740539551
72.6721954345703
72.0999755859375
70.4786834716797
75.4379425048828
70.1925735473633
66.5684967041016
72.2907180786133
67.2360916137695
53.5981292724609
57.2222023010254
79.9203414916992
105.288856506348
111.583297729492
106.719413757324
94.9888610839844
72.2907180786133
74.1027526855469
96.8962631225586
99.4712677001953
88.9805297851563
84.0212707519531
60.1786842346191
29.0879535675049
55.5055389404297
83.1629333496094
66.854606628418
84.8796005249023
95.8471908569336
82.3046035766602
91.4601593017578
88.7897872924805
71.1462707519531
56.1731300354004
68.5712738037109
93.2721939086914
88.7897872924805
85.5471954345703
78.394416809082
59.701831817627
51.0231323242188
36.0499877929688
47.8759117126465
74.0073852539063
57.8897972106934
61.6092376708984
95.3703384399414
89.8388595581055
82.3046035766602
111.774040222168
115.398109436035
91.269416809082
72.8629379272461
48.4481315612793
38.8157272338867
50.1647987365723
51.404613494873
48.066650390625
62.9444236755371
77.4407196044922
86.6916351318359
82.7814559936523
44.251838684082
23.6518440246582
28.8018417358398
9.63240432739258
-7.0574049949646
3.91018390655518
16.022216796875
13.5425882339478
15.5453653335571
32.4259147644043
28.0388793945313
-3.05185079574585
-11.0629596710205
-13.3518476486206
-27.8481388092041
-14.5916624069214
-5.1499981880188
-24.7009181976318
-24.2240657806396
-13.4472179412842
-33.2842483520508
-41.962947845459
-21.3629570007324
-26.3222141265869
-47.8759117126465
-47.3990592956543
-32.1398048400879
-32.9981384277344
-44.251838684082
-28.8018417358398
-3.33796191215515
-6.96203470230103
-28.4203605651855
-40.4370231628418
-51.8814659118652
-61.7046089172363
-59.3203506469727
-52.5490570068359
-36.9083213806152
-38.148136138916
-62.3722038269043
-70.0018310546875
-74.5796051025391
-63.2305335998535
-37.2898025512695
-48.1620216369629
-52.0722045898438
-23.6518440246582
-6.00833129882813
-9.63240432739258
-34.0472106933594
-55.5055389404297
-56.4592399597168
-47.3036880493164
-38.2435073852539
-33.2842483520508
-29.3740653991699
-27.8481388092041
-25.5592517852783
-20.6953639984131
-17.1666603088379
-18.787956237793
-32.7120246887207
-45.8731346130371
-42.0583190917969
-32.8073959350586
-29.6601753234863
-29.7555465698242
-26.5129547119141
-27.4666576385498
-27.943510055542
-28.3249912261963
-30.0416564941406
-13.256477355957
-10.1092557907104
-25.6546211242676
-22.7935104370117
-21.6490669250488
-23.0796222686768
-17.738883972168
-31.2814712524414
-42.5351715087891
-28.1342506408691
-18.787956237793
-17.5481433868408
-15.35462474823
-30.0416564941406
-37.4805450439453
-21.2675857543945
-14.4962921142578
-31.0907306671143
-44.9194297790527
-35.7638778686523
-36.1453590393066
-41.4860992431641
-30.5185089111328
-30.70924949646
-28.0388793945313
-13.7333288192749
-11.9212923049927
-7.34351634979248
5.53147983551025
5.24536848068237
10.3953666687012
12.6842555999756
-1.52592539787292
6.38981294631958
20.409252166748
24.7962875366211
33.4749908447266
14.687032699585
-16.30832862854
-13.9240694046021
-4.1962947845459
-21.6490669250488
-43.7749862670898
-37.7666549682617
-24.1286964416504
-29.8509159088135
-34.3333206176758
-36.5268402099609
-37.4805450439453
-18.2157344818115
-4.48240613937378
-16.6898097991943
-20.2185115814209
-16.1175880432129
-40.8185043334961
-60.5601654052734
-40.1509132385254
-17.6435127258301
-11.0629596710205
-1.33518481254578
-0.190740674734116
-20.9814739227295
-33.761100769043
-23.1749935150146
-13.7333288192749
-6.29444265365601
5.05462789535522
-0.381481349468231
-12.588885307312
-16.8805503845215
-6.96203470230103
8.20184898376465
3.24259161949158
6.86666440963745
8.48795986175537
-12.7796258926392
-30.1370277404785
-42.630542755127
-31.9490642547607
-26.5129547119141
-45.7777633666992
-48.9249839782715
-49.783317565918
-42.0583190917969
-21.6490669250488
-21.7444381713867
-46.4453544616699
-63.6120147705078
-33.8564720153809
23.6518440246582
65.6147918701172
112.441627502441
235.755477905273
420.201721191406
583.284973144531
703.16552734375
774.884033203125
817.991394042969
856.234924316406
827.14697265625
623.149780273438
344.477661132813
193.220306396484
118.545333862305
30.1370277404785
-83.8305282592773
-235.278625488281
-354.5869140625
-424.111907958984
-461.210968017578
-438.894317626953
-389.397094726563
-347.815643310547
-320.921203613281
-334.463775634766
-370.418395996094
-396.168395996094
-423.539672851563
-434.793365478516
-393.879516601563
-338.373962402344
-296.029541015625
-247.104553222656
-202.661972045898
-179.296234130859
-176.339752197266
-175.672164916992
-177.48420715332
-188.165679931641
-179.773086547852
-152.401809692383
-118.44995880127
-64.756462097168
-31.0907306671143
-46.7314682006836
-59.1296119689941
-57.6990547180176
-56.2685012817383
-47.7805404663086
-54.0749816894531
-50.1647987365723
-11.1583299636841
12.4935140609741
17.6435127258301
15.6407356262207
-2.95648050308228
-5.91296100616455
-10.204626083374
-23.9379558563232
-9.63240432739258
-14.2101802825928
-17.0712909698486
25.8453617095947
44.251838684082
52.3583183288574
69.4296035766602
56.8407211303711
31.8536930084229
12.302773475647
29.3740653991699
86.5962677001953
121.597183227539
126.07958984375
117.305519104004
83.3536758422852
59.0342407226563
56.4592399597168
54.8379440307617
69.2388687133789
86.2147903442383
79.4434967041016
68.3805313110352
66.5684967041016
74.0073852539063
95.751823425293
107.196258544922
94.6073760986328
73.9120101928711
54.0749816894531
54.5518341064453
89.0758972167969
108.626815795898
88.0268249511719
72.6721954345703
77.1546020507813
75.9147872924805
56.3638725280762
45.9685020446777
58.3666496276855
66.4731292724609
74.2934951782227
88.9805297851563
84.4027481079102
64.4703521728516
66.9499816894531
62.7536849975586
32.1398048400879
35.382396697998
58.1759071350098
73.3397903442383
98.5175628662109
89.3620071411133
58.4620170593262
61.7046089172363
68.9527587890625
58.5573883056641
47.9712791442871
46.5407257080078
66.854606628418
86.5962677001953
82.4953460693359
77.1546020507813
70.5740509033203
52.7397994995117
36.0499877929688
35.8592491149902
33.6657295227051
20.8861045837402
40.913875579834
55.5055389404297
34.3333206176758
41.5814666748047
62.6583137512207
48.8296127319336
33.0935096740723
38.5296173095703
33.2842483520508
18.8833274841309
26.8944358825684
50.355541229248
61.2277565002441
45.7777633666992
19.6462898254395
12.9703664779663
22.5074005126953
15.4499950408936
-3.71944332122803
-6.1037015914917
-0.858333051204681
5.24536848068237
10.2999963760376
9.9185152053833
23.4611034393311
14.7824029922485
-30.70924949646
-45.2055397033691
-36.0499877929688
-43.3935050964355
-44.1564674377441
-39.0064697265625
-38.2435073852539
-26.6083240509033
-12.8749961853027
-17.5481433868408
-35.0009155273438
-40.0555419921875
-36.431468963623
-41.6768379211426
-27.657398223877
-12.0166625976563
-21.839807510376
-17.738883972168
-13.0657367706299
-31.1861019134521
-32.7120246887207
-18.5972156524658
-21.839807510376
-22.125919342041
-8.86944198608398
-10.7768487930298
-21.1722145080566
-23.9379558563232
-21.9351787567139
-19.7416610717773
-29.4694347381592
-43.679615020752
-51.3092422485352
-57.3175735473633
-50.7370223999023
-37.099063873291
-32.8073959350586
-19.9324016571045
2.09814739227295
-5.43610954284668
-34.2379531860352
-38.8157272338867
-38.2435073852539
-42.9166526794434
-20.409252166748
5.43610954284668
3.24259161949158
-3.71944332122803
-9.06018257141113
-28.7064723968506
-52.8351669311523
-58.4620170593262
-42.9166526794434
-29.4694347381592
-22.9842510223389
-12.3981437683105
-10.2999963760376
-18.5018463134766
-26.9898052215576
-33.1888771057129
-31.5675830841064
-37.9573936462402
-67.1407165527344
-77.5360870361328
-41.7722091674805
-16.30832862854
-37.1944313049316
-63.7073860168457
-74.5796051025391
-68.1897964477539
-33.761100769043
-8.0111083984375
-9.06018257141113
-2.76573991775513
3.43333220481873
1.71666610240936
7.15277528762817
16.4036979675293
19.2648086547852
12.0166625976563
-5.34073925018311
-15.9268465042114
-7.0574049949646
6.29444265365601
15.6407356262207
5.34073925018311
-15.8314762115479
-21.3629570007324
-35.5731353759766
-58.2712783813477
-45.7777633666992
-25.2731399536133
-32.6166572570801
-34.3333206176758
-23.0796222686768
-22.6027698516846
-17.5481433868408
-11.4444408416748
-24.891658782959
-40.5323944091797
-43.1073951721191
-44.6333198547363
-48.6388740539551
-43.0120239257813
-43.679615020752
-50.0694274902344
-36.431468963623
-19.4555492401123
-9.15555286407471
-2.5749990940094
-6.48518323898315
-16.2129573822021
-22.0305480957031
-16.1175880432129
-13.0657367706299
-23.4611034393311
-33.3796195983887
-40.4370231628418
-49.6879463195801
-45.3962821960449
-22.125919342041
-10.4907369613647
-10.0138854980469
-6.48518323898315
-10.4907369613647
-17.357400894165
-20.1231422424316
-18.3111057281494
-17.1666603088379
-19.7416610717773
-18.787956237793
-24.9870281219482
-42.0583190917969
-45.4916534423828
-42.1536903381348
-44.7286911010742
-49.5925750732422
-64.3749771118164
-49.3064651489258
7.53425693511963
63.7073860168457
131.134216308594
241.859176635742
398.838775634766
558.870178222656
675.698852539063
746.559020996094
784.611755371094
834.395080566406
875.022888183594
764.393249511719
496.021148681641
259.788818359375
139.240692138672
47.7805404663086
-71.9092330932617
-204.950866699219
-321.302673339844
-394.928588867188
-419.724853515625
-418.198944091797
-397.217468261719
-356.112854003906
-320.921203613281
-317.869354248047
-345.622100830078
-367.557281494141
-379.097106933594
-395.405426025391
-379.478576660156
-326.357299804688
-265.701751708984
-207.43049621582
-167.756423950195
-155.453659057617
-158.410140991211
-185.113830566406
-226.50456237793
-225.074005126953
-187.593460083008
-165.849014282227
-144.104583740234
-109.866630554199
-87.1684875488281
-70.8601608276367
-65.0425720214844
-84.4027481079102
-93.5583038330078
-65.3286819458008
-44.8240585327148
-50.6416511535645
-51.2138710021973
-39.6740608215332
-38.6249885559082
-52.7397994995117
-55.5055389404297
-40.6277656555176
-32.1398048400879
-29.7555465698242
-22.8888816833496
-10.6814785003662
7.0574049949646
6.86666440963745
-1.33518481254578
20.1231422424316
42.8212814331055
40.913875579834
41.3907279968262
53.8842430114746
63.8981285095215
73.0536804199219
87.3592300415039
94.2258987426758
86.8823776245117
73.3397903442383
63.1351661682129
64.756462097168
82.7814559936523
95.3703384399414
78.4897918701172
51.0231323242188
22.0305480957031
8.58333015441895
34.4286918640137
54.170352935791
47.8759117126465
49.6879463195801
62.3722038269043
72.1953506469727
77.2499771118164
70.1925735473633
56.936092376709
60.1786842346191
72.0046081542969
71.6231231689453
79.06201171875
104.812004089355
123.027740478516
119.499038696289
102.046264648438
77.7268295288086
56.7453536987305
49.2110939025879
41.2953567504883
20.1231422424316
5.53147983551025
8.0111083984375
11.0629596710205
16.9759197235107
38.8157272338867
63.5166473388672
75.3425674438477
80.0157165527344
82.5907135009766
77.7268295288086
66.854606628418
51.2138710021973
37.9573936462402
42.4398002624512
47.9712791442871
39.2925796508789
38.2435073852539
47.4944305419922
55.7916488647461
59.701831817627
58.9388694763184
66.6638641357422
78.2990493774414
84.3073806762695
86.6916351318359
84.9749755859375
82.9721984863281
84.5934906005859
89.2666397094727
95.084228515625
95.6564483642578
89.9342269897461
83.5444183349609
82.1138610839844
86.5009002685547
86.1194152832031
73.9120101928711
61.6092376708984
55.5055389404297
52.1675758361816
47.6851692199707
42.8212814331055
51.9768333435059
72.0046081542969
83.1629333496094
79.3481216430664
67.2360916137695
61.99072265625
51.1185035705566
22.9842510223389
5.7222204208374
-9.537034034729
-36.2407302856445
-48.734245300293
-55.7916488647461
-65.7101669311523
-59.701831817627
-48.734245300293
-49.783317565918
-49.8786888122559
-36.5268402099609
-18.787956237793
-5.24536848068237
3.71944332122803
8.3925895690918
5.43610954284668
-3.71944332122803
-9.537034034729
-15.7361059188843
-19.2648086547852
-16.4036979675293
-20.6953639984131
-30.0416564941406
-37.1944313049316
-38.7203598022461
-22.0305480957031
-6.38981294631958
-16.022216796875
-32.7120246887207
-40.7231369018555
-43.1073951721191
-49.0203552246094
-58.7481307983398
-54.6472053527832
-35.4777679443359
-25.6546211242676
-34.810173034668
-50.355541229248
-54.170352935791
-46.3499870300293
-36.7175827026367
-23.3657341003418
-18.2157344818115
-24.7962875366211
-26.7990646362305
-27.1805477142334
-21.839807510376
-12.588885307312
-13.3518476486206
-19.5509204864502
-25.3685111999512
-25.6546211242676
-36.3360977172852
-56.5546112060547
-58.7481307983398
-54.3610954284668
-53.4073905944824
-60.274055480957
-72.8629379272461
-68.8573837280273
-54.5518341064453
-48.3527641296387
-48.8296127319336
-47.9712791442871
-57.8897972106934
-70.1925735473633
-49.3064651489258
-21.2675857543945
-24.9870281219482
-38.3388748168945
-44.5379486083984
-47.017578125
-37.099063873291
-26.0361022949219
-27.2759170532227
-27.4666576385498
-21.1722145080566
-19.1694374084473
-24.6055469512939
-37.9573936462402
-56.4592399597168
-59.8925743103027
-36.8129501342773
-9.63240432739258
-3.8148136138916
-4.57777643203735
-6.6759238243103
-20.1231422424316
-25.0823993682861
-31.7583236694336
-57.1268348693848
-47.3990592956543
1.9074068069458
17.0712909698486
18.4064750671387
30.2323970794678
14.2101802825928
-9.72777462005615
0
27.5620288848877
34.1425819396973
30.70924949646
22.5074005126953
1.81203651428223
-9.537034034729
-13.9240694046021
1.71666610240936
36.0499877929688
50.355541229248
45.8731346130371
25.5592517852783
0.0953703373670578
-15.1638841629028
-28.1342506408691
-29.4694347381592
-19.7416610717773
-17.1666603088379
-21.7444381713867
-22.0305480957031
-11.5398111343384
4.67314672470093
21.839807510376
30.1370277404785
17.2620315551758
-10.3953666687012
-28.9925842285156
-28.6111011505127
-31.2814712524414
-41.2953567504883
-29.8509159088135
-1.71666610240936
24.7009181976318
48.066650390625
49.4018363952637
34.9055442810059
31.9490642547607
23.3657341003418
42.0583190917969
137.905517578125
208.002716064453
174.336975097656
133.709213256836
123.123107910156
86.4055252075195
54.8379440307617
33.5703582763672
-6.86666440963745
-12.302773475647
-18.0249938964844
-64.1842422485352
-90.220344543457
-94.2258987426758
-73.6259002685547
-25.177770614624
9.06018257141113
39.197208404541
91.4601593017578
151.352722167969
233.180480957031
354.5869140625
473.609100341797
574.606323242188
695.345153808594
848.319152832031
960.570068359375
975.829345703125
950.079345703125
886.371948242188
710.699768066406
425.637817382813
95.084228515625
-116.733299255371
-149.063842773438
-201.612899780273
-327.883239746094
-423.062835693359
-461.4970703125
-489.822052001953
-527.016479492188
-487.914672851563
-417.817443847656
-391.209136962891
-352.298034667969
-302.991577148438
-279.530456542969
-327.215637207031
-398.838775634766
-405.323944091797
-398.075805664063
-401.223022460938
-405.419311523438
-428.403564453125
-430.120239257813
-407.708190917969
-405.037841796875
-413.811889648438
-408.852661132813
-386.535980224609
-346.575805664063
-287.446197509766
-236.709182739258
-218.493453979492
-235.755477905273
-291.737884521484
-356.589691162109
-384.628570556641
-367.080444335938
-340.376739501953
-309.858245849609
-246.913803100586
-190.549942016602
-162.41569519043
-134.090698242188
-125.030517578125
-143.15087890625
-156.121246337891
-156.311981201172
-147.633285522461
-108.245338439941
-43.5842437744141
1.14444410800934
31.2814712524414
57.0314636230469
60.8462753295898
34.0472106933594
-31.9490642547607
-86.4055252075195
-95.1795959472656
-102.52311706543
-93.2721939086914
-73.5305328369141
-100.138854980469
-138.76383972168
-160.031433105469
-181.012908935547
-188.261047363281
-174.146240234375
-151.543472290039
-138.286987304688
-141.243469238281
-138.286987304688
-120.452735900879
-96.7055282592773
-74.5796051025391
-68.9527587890625
-64.756462097168
-44.4425773620605
-28.1342506408691
-18.1203651428223
-7.15277528762817
-5.7222204208374
-7.6296272277832
-2.47962880134583
13.4472179412842
42.5351715087891
70.3833084106445
88.1221923828125
100.329597473145
116.065704345703
136.856430053711
146.011993408203
137.142547607422
129.989776611328
146.202728271484
175.862899780273
188.737899780273
197.893447875977
222.785110473633
241.668441772461
248.153625488281
243.861953735352
224.215667724609
210.482345581055
207.525863647461
208.002716064453
235.183258056641
290.021209716797
337.420257568359
361.453582763672
367.271179199219
367.175811767578
385.677642822266
419.820220947266
426.400787353516
421.536895751953
449.003570556641
479.235961914063
494.018371582031
496.307250976563
464.930419921875
417.912841796875
379.860076904297
346.098968505859
323.114715576172
309.762878417969
296.220275878906
281.056396484375
255.973999023438
217.348999023438
179.963836669922
154.309204101563
135.807357788086
115.302742004395
92.8907089233398
72.4814605712891
39.3879508972168
9.82314491271973
9.63240432739258
1.43055510520935
-26.7036952972412
-56.8407211303711
-86.0240478515625
-95.6564483642578
-89.9342269897461
-79.6342315673828
-59.7972030639648
-43.0120239257813
-26.7036952972412
-4.29166507720947
1.43055510520935
-16.8805503845215
-30.6138782501221
-20.7907333374023
5.91296100616455
33.9518394470215
56.2685012817383
77.4407196044922
98.7083053588867
118.73607635498
136.474960327148
158.600875854492
195.795303344727
234.706405639648
252.445281982422
255.878616333008
256.546203613281
257.118438720703
260.361022949219
265.797149658203
273.140655517578
289.353607177734
302.228607177734
299.748992919922
284.680450439453
257.499908447266
230.414733886719
198.179565429688
166.516616821289
137.619400024414
109.866630554199
109.771263122559
86.8823776245117
-12.3981437683105
-142.674026489258
-216.776779174805
-224.597152709961
-240.619369506836
-258.835113525391
-257.976776123047
-262.268432617188
-257.118438720703
-247.009185791016
-251.586959838867
-248.535110473633
-238.044372558594
-238.998077392578
-237.472152709961
-236.327697753906
-244.052703857422
-245.006408691406
-237.376770019531
-219.733261108398
-200.9453125
-193.697158813477
-177.865676879883
-154.309204101563
-151.543472290039
-167.088836669922
-184.255493164063
-191.789749145508
-185.209197998047
-173.860122680664
-154.404586791992
-125.030517578125
-101.760154724121
-91.7462692260742
-104.525894165039
-131.611068725586
-134.186065673828
-123.218475341797
-130.943481445313
-141.052734375
-139.526809692383
-131.134216308594
-115.970336914063
-98.6129302978516
-83.8305282592773
-75.247200012207
-80.111083984375
-100.806449890137
-122.074035644531
-126.747184753418
-126.651809692383
-124.93514251709
-118.545333862305
-125.221252441406
-130.180511474609
-122.83699798584
-122.074035644531
-127.796257019043
-130.657363891602
-128.845321655273
-126.651809692383
-123.695327758789
-123.313850402832
-120.548110961914
-113.872184753418
-114.730522155762
-103.572189331055
-81.0647888183594
-88.9805297851563
-124.362922668457
-131.515701293945
-98.3268203735352
-72.7675704956055
-63.7073860168457
-50.4509086608887
-62.2768325805664
-95.8471908569336
-90.3157119750977
-66.854606628418
-75.0564575195313
-104.812004089355
-127.224029541016
-123.313850402832
-115.111999511719
-114.635147094727
-96.4194107055664
-69.7157211303711
-61.5138702392578
-66.4731292724609
-59.4157218933105
-41.1046180725098
-21.2675857543945
-6.1037015914917
-17.8342533111572
-21.839807510376
10.9675893783569
50.355541229248
90.3157119750977
112.823112487793
109.96199798584
92.7953414916992
62.8490524291992
46.7314682006836
30.6138782501221
14.3055505752563
30.5185089111328
45.0148010253906
43.1073951721191
45.4916534423828
40.8185043334961
3.91018390655518
-66.6638641357422
-122.83699798584
-119.212921142578
-74.4842376708984
-51.0231323242188
-32.4259147644043
46.4453544616699
164.132354736328
292.500823974609
448.335968017578
609.702575683594
697.061828613281
733.207153320313
771.355285644531
719.092346191406
539.605407714844
300.607299804688
87.4546051025391
1.43055510520935
15.6407356262207
-16.6898097991943
-105.956443786621
-154.881439208984
-176.149017333984
-184.446243286133
-163.560134887695
-157.647171020508
-177.007354736328
-195.413833618164
-195.890670776367
-194.46012878418
-207.335113525391
-206.190673828125
-196.272155761719
-185.78141784668
-155.072174072266
-121.406440734863
-107.95922088623
-115.207366943359
-129.131439208984
-141.052734375
-143.913848876953
-130.943481445313
-110.629592895508
-84.9749755859375
-70.8601608276367
-68.1897964477539
-55.6962776184082
-50.832389831543
-54.7425765991211
-59.5110931396484
-69.6203460693359
-66.6638641357422
-59.9879455566406
-51.5953521728516
-29.9462871551514
-13.1611070632935
-9.25092315673828
-19.4555492401123
-26.3222141265869
-31.4722118377686
-52.2629470825195
-53.7888717651367
-34.2379531860352
-26.1314735412598
-7.43888664245605
32.9981384277344
59.7972030639648
43.7749862670898
16.022216796875
17.0712909698486
25.3685111999512
20.0277709960938
3.91018390655518
-19.074068069458
-26.0361022949219
-13.7333288192749
5.1499981880188
31.8536930084229
55.1240577697754
58.7481307983398
54.170352935791
51.2138710021973
43.4888763427734
36.1453590393066
28.3249912261963
23.1749935150146
31.6629524230957
39.0064697265625
45.6823921203613
61.1323890686035
76.5823822021484
82.7814559936523
77.1546020507813
69.1434936523438
63.9934997558594
64.1842422485352
65.7101669311523
66.1870193481445
76.3916397094727
83.7351608276367
88.2175674438477
98.6129302978516
101.187927246094
94.8934860229492
84.8796005249023
82.9721984863281
91.269416809082
80.4925689697266
64.8518295288086
76.296272277832
93.6536712646484
98.7083053588867
90.4110794067383
74.0073852539063
53.7888717651367
36.431468963623
41.4860992431641
51.4999847412109
51.404613494873
57.9851684570313
65.0425720214844
63.5166473388672
57.8897972106934
52.0722045898438
52.7397994995117
57.6036834716797
57.5083160400391
54.2657241821289
53.7888717651367
53.9796104431152
49.0203552246094
44.251838684082
41.0092468261719
38.148136138916
39.3879508972168
43.2981338500977
47.6851692199707
46.3499870300293
35.7638778686523
30.4231376647949
30.4231376647949
25.7499923706055
19.7416610717773
13.3518476486206
7.15277528762817
0.667592406272888
-4.00555419921875
-1.62129580974579
2.5749990940094
1.62129580974579
1.04907369613647
0.667592406272888
-2.00277709960938
-0.858333051204681
3.8148136138916
7.6296272277832
11.7305517196655
14.7824029922485
10.8722190856934
1.23981440067291
-6.77129411697388
-11.3490705490112
-14.687032699585
-16.30832862854
-16.2129573822021
-15.9268465042114
-14.687032699585
-15.2592544555664
-11.7305517196655
-4.7685170173645
-7.53425693511963
-15.2592544555664
-13.8286991119385
-6.1037015914917
-2.76573991775513
3.5287024974823
4.29166507720947
-19.1694374084473
-44.3472061157227
-54.9333152770996
-57.1268348693848
-50.1647987365723
-47.3990592956543
-53.0259094238281
-52.9305381774902
-46.4453544616699
-46.3499870300293
-52.6444282531738
-50.0694274902344
-47.6851692199707
-47.1129493713379
-33.9518394470215
-27.0851764678955
-34.4286918640137
-39.7694320678711
-45.2055397033691
-47.017578125
-41.4860992431641
-42.0583190917969
-43.9657249450684
-37.099063873291
-32.9981384277344
-43.2027626037598
-60.1786842346191
-70.1925735473633
-69.7157211303711
-66.0916442871094
-62.0860900878906
-48.6388740539551
-35.9546165466309
-46.2546157836914
-62.0860900878906
-57.6036834716797
-46.6360969543457
-40.5323944091797
-20.0277709960938
12.0166625976563
24.6055469512939
18.6925868988037
11.2537002563477
-0.762962698936462
-7.6296272277832
7.24814605712891
18.9786968231201
15.6407356262207
15.8314762115479
11.4444408416748
14.7824029922485
32.3305435180664
44.251838684082
59.9879455566406
80.9694213867188
93.2721939086914
88.5036773681641
79.06201171875
81.3508987426758
72.5768280029297
55.1240577697754
49.783317565918
45.4916534423828
39.864803314209
42.2490615844727
51.8814659118652
48.3527641296387
36.9083213806152
35.1916542053223
39.2925796508789
50.7370223999023
66.3777542114258
69.0481262207031
57.5083160400391
61.6092376708984
82.3999710083008
78.2036819458008
54.170352935791
44.4425773620605
34.2379531860352
16.4036979675293
12.0166625976563
14.4962921142578
15.35462474823
28.4203605651855
42.5351715087891
35.4777679443359
25.9407329559326
24.6055469512939
18.0249938964844
5.53147983551025
-8.10647869110107
-12.302773475647
-10.3953666687012
-12.588885307312
-14.3055505752563
-7.24814605712891
1.81203651428223
-3.05185079574585
-1.62129580974579
4.1962947845459
-14.9731435775757
-30.6138782501221
-34.4286918640137
-44.8240585327148
-43.2027626037598
-38.6249885559082
-49.0203552246094
-46.6360969543457
-40.0555419921875
-43.3935050964355
-31.6629524230957
-27.943510055542
-44.8240585327148
-47.5897979736328
-54.5518341064453
-74.5796051025391
-74.9610900878906
-71.4323883056641
-78.7759017944336
-75.3425674438477
-61.5138702392578
-61.2277565002441
-73.0536804199219
-87.5499725341797
-98.899040222168
-98.8036727905273
-107.95922088623
-119.785148620605
-121.311073303223
-126.842552185059
-122.455513000488
-123.218475341797
-137.142547607422
-152.306427001953
-161.843460083008
-134.949035644531
-82.6860809326172
5.05462789535522
139.431442260742
278.290649414063
419.724853515625
563.543334960938
675.3173828125
730.250671386719
757.526611328125
767.25439453125
689.432189941406
489.059112548828
204.950866699219
-37.8620262145996
-121.597183227539
-154.213836669922
-281.723999023438
-426.782257080078
-507.179473876953
-538.651672363281
-517.384094238281
-464.072082519531
-421.632263183594
-406.659118652344
-409.329498291016
-407.040618896484
-401.413757324219
-389.683197021484
-356.398956298828
-319.395263671875
-286.683227539063
-243.57585144043
-196.65364074707
-172.429580688477
-169.091613769531
-168.233276367188
-170.712905883789
-170.712905883789
-173.287902832031
-173.001800537109
-149.254577636719
-117.877738952637
-82.6860809326172
-50.5462799072266
-36.8129501342773
-25.8453617095947
-18.2157344818115
-23.9379558563232
-35.1916542053223
-45.7777633666992
-44.8240585327148
-25.177770614624
-4.00555419921875
15.8314762115479
33.3796195983887
37.9573936462402
34.7148017883301
27.8481388092041
24.7962875366211
25.9407329559326
23.2703628540039
28.4203605651855
38.2435073852539
41.962947845459
46.9222068786621
54.5518341064453
62.9444236755371
65.4240493774414
63.8027572631836
63.7073860168457
61.8953514099121
63.7073860168457
63.6120147705078
61.1323890686035
71.1462707519531
83.5444183349609
83.2583084106445
82.3046035766602
86.9777526855469
85.1657104492188
83.8305282592773
83.1629333496094
83.3536758422852
92.6999740600586
96.4194107055664
94.9888610839844
97.0870056152344
95.5610809326172
90.6971969604492
89.3620071411133
94.1305236816406
99.0897827148438
98.2314529418945
98.5175628662109
99.4712677001953
97.5638580322266
101.664779663086
110.152740478516
107.768486022949
95.751823425293
89.7434921264648
91.5555267333984
94.702751159668
90.5064544677734
79.4434967041016
71.2416458129883
62.0860900878906
60.1786842346191
68.3805313110352
72.1953506469727
77.6314544677734
77.7268295288086
66.9499816894531
66.9499816894531
66.4731292724609
58.4620170593262
65.4240493774414
75.6286773681641
72.6721954345703
72.7675704956055
79.729606628418
76.0101623535156
69.4296035766602
69.4296035766602
67.4268264770508
71.3370132446289
77.7268295288086
66.2823867797852
60.0833129882813
74.9610900878906
73.5305328369141
60.3694267272949
61.8953514099121
61.2277565002441
53.3120193481445
53.5027618408203
57.8897972106934
57.1268348693848
56.8407211303711
61.4184989929199
65.805534362793
65.5194244384766
65.2333145141602
65.4240493774414
58.1759071350098
45.1101722717285
37.0036926269531
35.7638778686523
30.3277683258057
19.8370304107666
19.4555492401123
23.7472152709961
15.9268465042114
7.34351634979248
5.34073925018311
-1.81203651428223
-13.6379585266113
-15.1638841629028
-11.9212923049927
-16.6898097991943
-21.0768451690674
-24.7962875366211
-28.9925842285156
-27.1805477142334
-25.4638805389404
-28.5157318115234
-32.1398048400879
-37.7666549682617
-38.9110984802246
-32.9027671813965
-33.0935096740723
-33.9518394470215
-25.8453617095947
-19.9324016571045
-22.125919342041
-22.6027698516846
-22.2212886810303
-30.2323970794678
-37.0036926269531
-38.9110984802246
-44.3472061157227
-48.2573928833008
-47.6851692199707
-40.8185043334961
-33.761100769043
-32.4259147644043
-30.8999900817871
-32.9027671813965
-41.7722091674805
-49.5925750732422
-48.9249839782715
-48.1620216369629
-50.9277610778809
-50.6416511535645
-46.1592445373535
-47.3036880493164
-58.8434982299805
-63.4212760925293
-56.4592399597168
-44.6333198547363
-30.1370277404785
-23.9379558563232
-30.8999900817871
-43.1073951721191
-46.8268356323242
-48.2573928833008
-58.4620170593262
-59.701831817627
-42.4398002624512
-25.3685111999512
-17.4527721405029
-19.5509204864502
-21.6490669250488
-9.25092315673828
1.04907369613647
0.0953703373670578
-4.38703584671021
-21.1722145080566
-39.9601707458496
-44.4425773620605
-49.4018363952637
-53.9796104431152
-44.0610961914063
-31.9490642547607
-32.9981384277344
-43.3935050964355
-58.1759071350098
-71.6231231689453
-78.2990493774414
-75.3425674438477
-59.8925743103027
-46.8268356323242
-42.1536903381348
-28.4203605651855
-17.2620315551758
-19.074068069458
-17.357400894165
-13.3518476486206
-17.4527721405029
-25.8453617095947
-27.7527694702148
-17.9296245574951
-4.86388731002808
4.00555419921875
5.7222204208374
-0.572222054004669
-6.58055353164673
-9.34629344940186
-13.256477355957
-17.4527721405029
-15.9268465042114
-12.4935140609741
-17.1666603088379
-21.9351787567139
-25.2731399536133
-33.4749908447266
-29.8509159088135
-19.9324016571045
-22.125919342041
-17.8342533111572
-0.762962698936462
5.34073925018311
-2.47962880134583
-4.67314672470093
-4.48240613937378
-9.537034034729
-1.9074068069458
11.2537002563477
11.8259220123291
9.25092315673828
7.53425693511963
6.38981294631958
8.96481227874756
9.63240432739258
10.7768487930298
16.7851791381836
14.3055505752563
7.24814605712891
8.3925895690918
8.20184898376465
9.06018257141113
8.86944198608398
4.00555419921875
3.62407302856445
4.67314672470093
10.204626083374
18.5972156524658
22.0305480957031
24.7009181976318
21.3629570007324
14.0194396972656
11.635181427002
12.7796258926392
15.5453653335571
9.25092315673828
-0.286111027002335
1.62129580974579
-0.0953703373670578
-8.86944198608398
-10.1092557907104
-15.7361059188843
-28.1342506408691
-35.7638778686523
-46.5407257080078
-53.3120193481445
-51.9768333435059
-55.4101676940918
-66.7592391967773
-78.5851593017578
-57.7944259643555
-11.5398111343384
47.7805404663086
148.491622924805
267.227691650391
381.767456054688
508.991516113281
656.529418945313
766.96826171875
795.579345703125
818.372863769531
818.277526855469
677.606262207031
407.326721191406
133.995330810547
-21.1722145080566
-71.1462707519531
-155.262908935547
-298.890655517578
-424.302642822266
-496.116516113281
-490.489654541016
-436.986907958984
-393.974884033203
-371.848968505859
-364.982299804688
-353.633209228516
-345.145263671875
-353.537841796875
-350.009155273438
-321.016571044922
-280.961029052734
-234.801773071289
-188.261047363281
-157.837905883789
-148.300872802734
-154.213836669922
-169.282348632813
-183.397171020508
-189.405502319336
-172.620315551758
-139.145324707031
-112.060150146484
-90.8879318237305
-70.3833084106445
-57.1268348693848
-58.3666496276855
-64.6610870361328
-66.7592391967773
-70.1925735473633
-66.7592391967773
-47.3990592956543
-30.70924949646
-21.839807510376
-8.0111083984375
6.58055353164673
9.25092315673828
-0.47685170173645
-9.82314491271973
-15.1638841629028
-20.9814739227295
-17.1666603088379
-5.7222204208374
5.81759071350098
21.2675857543945
35.382396697998
36.2407302856445
23.5564746856689
10.204626083374
5.53147983551025
13.1611070632935
23.8425846099854
28.2296199798584
32.4259147644043
45.2055397033691
57.5083160400391
59.701831817627
59.4157218933105
58.2712783813477
53.6935005187988
54.0749816894531
62.8490524291992
70.9555358886719
73.4351654052734
72.3860855102539
64.9472045898438
58.3666496276855
60.8462753295898
61.5138702392578
61.1323890686035
68.8573837280273
73.0536804199219
63.8027572631836
64.2796096801758
77.5360870361328
78.8712692260742
72.3860855102539
70.8601608276367
69.5249786376953
59.6064605712891
45.300910949707
36.3360977172852
31.9490642547607
26.226842880249
23.3657341003418
28.8972129821777
37.7666549682617
45.3962821960449
52.8351669311523
56.8407211303711
64.5657196044922
74.8657150268555
70.9555358886719
54.2657241821289
41.2953567504883
35.6685066223145
33.0935096740723
38.148136138916
51.2138710021973
59.701831817627
57.6990547180176
56.1731300354004
58.4620170593262
56.4592399597168
54.2657241821289
55.887020111084
61.0370178222656
69.2388687133789
69.3342361450195
61.7999801635742
57.7944259643555
60.5601654052734
62.3722038269043
61.99072265625
62.8490524291992
60.0833129882813
53.4073905944824
45.0148010253906
44.8240585327148
62.0860900878906
79.8249740600586
87.7407150268555
88.2175674438477
79.06201171875
64.2796096801758
47.6851692199707
35.8592491149902
32.7120246887207
34.6194343566895
38.6249885559082
41.962947845459
41.7722091674805
37.5759124755859
42.3444290161133
47.7805404663086
35.1916542053223
25.0823993682861
20.7907333374023
12.9703664779663
17.1666603088379
25.9407329559326
28.8972129821777
29.278694152832
19.1694374084473
11.2537002563477
7.72499752044678
-3.5287024974823
-9.25092315673828
-8.3925895690918
-12.302773475647
-13.5425882339478
-5.7222204208374
-0.0953703373670578
-3.8148136138916
-9.537034034729
-16.7851791381836
-28.3249912261963
-31.5675830841064
-23.7472152709961
-24.6055469512939
-31.5675830841064
-26.9898052215576
-23.3657341003418
-25.6546211242676
-25.9407329559326
-29.8509159088135
-40.913875579834
-54.8379440307617
-57.7944259643555
-46.6360969543457
-39.7694320678711
-38.3388748168945
-35.382396697998
-39.3879508972168
-47.3036880493164
-46.8268356323242
-44.3472061157227
-51.5953521728516
-58.2712783813477
-54.6472053527832
-48.734245300293
-42.3444290161133
-40.8185043334961
-44.3472061157227
-41.1046180725098
-37.099063873291
-38.3388748168945
-39.5786895751953
-41.0092468261719
-37.6712837219238
-31.0907306671143
-34.810173034668
-39.2925796508789
-41.3907279968262
-47.1129493713379
-44.5379486083984
-45.6823921203613
-49.1157264709473
-44.7286911010742
-52.5490570068359
-64.2796096801758
-60.1786842346191
-57.6036834716797
-59.5110931396484
-52.1675758361816
-48.8296127319336
-49.5925750732422
-48.3527641296387
-50.0694274902344
-44.7286911010742
-37.6712837219238
-35.7638778686523
-27.5620288848877
-21.0768451690674
-27.0851764678955
-32.1398048400879
-30.8999900817871
-28.3249912261963
-22.7935104370117
-21.0768451690674
-21.7444381713867
-17.8342533111572
-14.1148099899292
-8.86944198608398
-10.0138854980469
-20.7907333374023
-27.943510055542
-28.5157318115234
-22.3166599273682
-14.0194396972656
-17.9296245574951
-30.2323970794678
-36.1453590393066
-42.0583190917969
-43.1073951721191
-23.8425846099854
-7.15277528762817
3.33796191215515
11.2537002563477
-1.71666610240936
-14.3055505752563
-12.9703664779663
-19.360179901123
-24.6055469512939
-17.357400894165
-10.204626083374
-15.2592544555664
-17.0712909698486
-1.04907369613647
16.1175880432129
25.0823993682861
25.9407329559326
23.2703628540039
22.125919342041
12.302773475647
1.71666610240936
0.667592406272888
-1.04907369613647
-2.38425850868225
1.81203651428223
9.63240432739258
8.86944198608398
4.48240613937378
9.15555286407471
3.43333220481873
-4.1962947845459
0.572222054004669
-0.9537034034729
2.67036962509155
17.6435127258301
22.6027698516846
22.3166599273682
14.1148099899292
-0.0953703373670578
2.67036962509155
9.44166374206543
0.0953703373670578
-11.635181427002
-18.9786968231201
-21.4583263397217
-13.6379585266113
-16.2129573822021
-29.278694152832
-29.9462871551514
-36.0499877929688
-68.0944213867188
-108.817558288574
-114.539779663086
-90.4110794067383
-60.8462753295898
8.58333015441895
114.539779663086
215.72770690918
326.166564941406
446.810028076172
517.4794921875
560.0146484375
619.430358886719
618.762756347656
503.460021972656
294.026763916016
70.6694183349609
-25.0823993682861
-10.4907369613647
-57.6990547180176
-166.230499267578
-234.134185791016
-267.799926757813
-261.791595458984
-211.054565429688
-173.955505371094
-173.955505371094
-191.026794433594
-209.624008178711
-228.125854492188
-251.873062133789
-266.369354248047
-252.826766967773
-219.733261108398
-184.541610717773
-151.066619873047
-120.83422088623
-108.436073303223
-118.259223937988
-130.561996459961
-142.864776611328
-153.83235168457
-147.34716796875
-122.83699798584
-95.9425582885742
-73.7212753295898
-54.170352935791
-43.7749862670898
-39.9601707458496
-38.7203598022461
-46.1592445373535
-58.652759552002
-66.7592391967773
-58.1759071350098
-40.4370231628418
-32.3305435180664
-18.8833274841309
-0.667592406272888
-1.9074068069458
-11.8259220123291
-17.357400894165
-22.0305480957031
-22.2212886810303
-11.1583299636841
4.1962947845459
14.4009208679199
21.3629570007324
27.943510055542
32.7120246887207
34.6194343566895
31.7583236694336
21.9351787567139
19.360179901123
27.0851764678955
29.8509159088135
30.995361328125
40.7231369018555
48.066650390625
53.0259094238281
58.0805358886719
49.6879463195801
44.0610961914063
51.0231323242188
47.1129493713379
40.3416519165039
44.7286911010742
48.734245300293
48.6388740539551
48.6388740539551
45.4916534423828
43.8703575134277
48.5435028076172
56.5546112060547
61.4184989929199
55.219425201416
41.3907279968262
35.2870254516602
37.6712837219238
44.6333198547363
58.9388694763184
66.9499816894531
58.652759552002
50.5462799072266
50.2601699829102
49.2110939025879
46.2546157836914
45.4916534423828
45.3962821960449
41.962947845459
41.3907279968262
50.4509086608887
58.4620170593262
56.1731300354004
54.3610954284668
59.0342407226563
58.9388694763184
50.0694274902344
41.2953567504883
36.7175827026367
38.2435073852539
46.4453544616699
53.5981292724609
54.0749816894531
55.9823913574219
61.2277565002441
56.3638725280762
44.3472061157227
45.0148010253906
51.2138710021973
45.2055397033691
41.8675804138184
45.1101722717285
49.4018363952637
58.9388694763184
59.0342407226563
54.6472053527832
61.7999801635742
63.5166473388672
52.5490570068359
46.4453544616699
49.783317565918
53.8842430114746
54.6472053527832
55.6962776184082
56.4592399597168
53.6935005187988
50.5462799072266
42.8212814331055
26.8944358825684
13.7333288192749
12.588885307312
22.3166599273682
29.0879535675049
30.0416564941406
30.8046188354492
26.1314735412598
16.022216796875
10.5861072540283
7.6296272277832
5.1499981880188
5.05462789535522
2.67036962509155
0.762962698936462
1.62129580974579
-1.62129580974579
-10.4907369613647
-18.2157344818115
-21.2675857543945
-24.7009181976318
-26.3222141265869
-22.2212886810303
-24.1286964416504
-23.4611034393311
-12.4935140609741
-1.9074068069458
4.67314672470093
-2.47962880134583
-20.5999927520752
-32.9027671813965
-41.1046180725098
-51.1185035705566
-48.1620216369629
-29.5648059844971
-22.2212886810303
-28.1342506408691
-22.0305480957031
-14.8777732849121
-24.4148063659668
-28.7064723968506
-25.9407329559326
-30.4231376647949
-37.8620262145996
-41.7722091674805
-33.5703582763672
-21.7444381713867
-17.738883972168
-15.35462474823
-17.2620315551758
-23.3657341003418
-20.409252166748
-14.4009208679199
-17.738883972168
-14.5916624069214
-8.58333015441895
-20.5999927520752
-31.2814712524414
-31.5675830841064
-34.4286918640137
-39.5786895751953
-43.8703575134277
-47.1129493713379
-52.9305381774902
-49.4972076416016
-38.4342460632324
-34.9055442810059
-33.2842483520508
-28.7064723968506
-25.0823993682861
-27.0851764678955
-29.0879535675049
-28.8972129821777
-32.6166572570801
-38.7203598022461
-43.8703575134277
-39.6740608215332
-30.8999900817871
-34.0472106933594
-41.962947845459
-43.0120239257813
-37.099063873291
-32.4259147644043
-29.1833248138428
-20.8861045837402
-18.9786968231201
-23.0796222686768
-22.5074005126953
-22.8888816833496
-24.2240657806396
-25.2731399536133
-24.1286964416504
-14.4962921142578
-9.9185152053833
-18.5972156524658
-21.7444381713867
-22.0305480957031
-26.6083240509033
-28.0388793945313
-33.761100769043
-34.6194343566895
-21.839807510376
-13.7333288192749
-15.2592544555664
-20.9814739227295
-23.8425846099854
-21.5536975860596
-27.657398223877
-33.761100769043
-26.226842880249
-20.409252166748
-21.0768451690674
-16.1175880432129
-7.6296272277832
0.0953703373670578
7.6296272277832
8.77407169342041
0.47685170173645
-11.8259220123291
-18.1203651428223
-12.302773475647
-4.1962947845459
2.8611102104187
7.72499752044678
2.28888821601868
-1.43055510520935
3.71944332122803
5.43610954284668
7.43888664245605
3.147221326828
-12.3981437683105
-14.687032699585
-7.53425693511963
-4.95925760269165
-5.05462789535522
-6.6759238243103
-3.5287024974823
0.47685170173645
3.33796191215515
11.5398111343384
17.738883972168
22.9842510223389
29.3740653991699
25.5592517852783
20.2185115814209
22.5074005126953
19.074068069458
13.8286991119385
20.2185115814209
26.0361022949219
25.7499923706055
27.5620288848877
21.9351787567139
7.91573810577393
-0.47685170173645
-9.537034034729
-25.177770614624
-29.3740653991699
-23.1749935150146
-31.1861019134521
-63.1351661682129
-116.733299255371
-143.341613769531
-115.588851928711
-86.9777526855469
-37.2898025512695
67.1407165527344
167.470321655273
251.968444824219
369.464691162109
480.857238769531
530.354431152344
569.933166503906
605.601684570313
566.785949707031
425.447082519531
200.373077392578
3.5287024974823
-48.2573928833008
-35.0962867736816
-96.5147857666016
-200.373077392578
-265.987884521484
-277.050842285156
-240.619369506836
-198.561050415039
-182.157348632813
-183.301788330078
-191.789749145508
-202.185119628906
-216.204559326172
-232.512893676758
-234.229553222656
-218.684188842773
-192.2666015625
-160.794387817383
-137.524032592773
-116.637924194336
-107.673110961914
-127.128662109375
-144.009216308594
-149.159210205078
-151.257354736328
-142.292541503906
-128.082366943359
-106.051818847656
-79.3481216430664
-61.5138702392578
-50.355541229248
-55.887020111084
-74.7703475952148
-77.5360870361328
-68.5712738037109
-64.8518295288086
-51.7860946655273
-26.4175834655762
-4.38703584671021
10.2999963760376
16.9759197235107
16.9759197235107
4.57777643203735
-14.0194396972656
-15.7361059188843
-6.00833129882813
0.572222054004669
9.34629344940186
21.6490669250488
24.9870281219482
24.7009181976318
26.5129547119141
20.9814739227295
19.4555492401123
22.4120292663574
22.7935104370117
23.5564746856689
21.4583263397217
26.0361022949219
38.9110984802246
42.3444290161133
43.9657249450684
52.9305381774902
52.2629470825195
49.3064651489258
60.4647941589355
67.7129440307617
59.7972030639648
58.7481307983398
63.8027572631836
57.2222023010254
56.936092376709
53.3120193481445
35.4777679443359
36.7175827026367
43.3935050964355
38.4342460632324
40.2462844848633
50.1647987365723
57.3175735473633
52.1675758361816
49.8786888122559
62.1814613342285
69.0481262207031
68.0944213867188
65.0425720214844
54.6472053527832
46.9222068786621
41.4860992431641
31.1861019134521
28.0388793945313
33.4749908447266
36.9083213806152
39.4833221435547
40.6277656555176
40.6277656555176
43.3935050964355
46.4453544616699
53.7888717651367
54.9333152770996
43.9657249450684
40.1509132385254
38.6249885559082
38.3388748168945
47.017578125
49.5925750732422
51.9768333435059
57.7944259643555
46.2546157836914
31.5675830841064
32.6166572570801
36.431468963623
40.0555419921875
42.630542755127
49.4972076416016
63.3259048461914
68.0944213867188
64.9472045898438
67.1407165527344
69.5249786376953
48.8296127319336
23.8425846099854
28.1342506408691
28.8018417358398
16.5944385528564
26.6083240509033
38.3388748168945
28.0388793945313
21.1722145080566
18.1203651428223
3.05185079574585
-0.47685170173645
12.0166625976563
19.1694374084473
25.8453617095947
40.4370231628418
45.5870208740234
34.9055442810059
28.2296199798584
26.226842880249
16.8805503845215
8.10647869110107
6.6759238243103
14.3055505752563
21.5536975860596
15.35462474823
9.72777462005615
15.5453653335571
14.4962921142578
7.72499752044678
0.190740674734116
-12.588885307312
-10.0138854980469
1.43055510520935
-2.5749990940094
-9.25092315673828
-13.0657367706299
-19.4555492401123
-20.3138828277588
-18.4064750671387
-24.2240657806396
-27.7527694702148
-27.0851764678955
-24.2240657806396
-8.96481227874756
-2.38425850868225
-11.4444408416748
-14.8777732849121
-13.4472179412842
-17.0712909698486
-28.8972129821777
-46.8268356323242
-53.7888717651367
-40.6277656555176
-29.8509159088135
-35.2870254516602
-36.0499877929688
-28.8972129821777
-33.761100769043
-39.9601707458496
-33.3796195983887
-30.4231376647949
-34.6194343566895
-31.6629524230957
-27.5620288848877
-33.4749908447266
-41.1999855041504
-43.8703575134277
-45.0148010253906
-43.4888763427734
-41.1999855041504
-42.9166526794434
-41.3907279968262
-35.8592491149902
-39.2925796508789
-42.2490615844727
-37.4805450439453
-29.9462871551514
-21.9351787567139
-25.3685111999512
-30.8046188354492
-24.6055469512939
-28.3249912261963
-39.5786895751953
-33.0935096740723
-21.7444381713867
-18.5972156524658
-19.2648086547852
-23.6518440246582
-30.2323970794678
-35.5731353759766
-33.2842483520508
-26.226842880249
-20.7907333374023
-18.4064750671387
-24.9870281219482
-27.7527694702148
-23.3657341003418
-31.2814712524414
-44.0610961914063
-44.251838684082
-33.761100769043
-28.8972129821777
-32.6166572570801
-26.1314735412598
-24.7962875366211
-36.431468963623
-31.9490642547607
-17.738883972168
-7.53425693511963
-5.24536848068237
-10.6814785003662
-8.77407169342041
-4.10092449188232
-5.24536848068237
-12.302773475647
-25.6546211242676
-31.0907306671143
-22.4120292663574
-12.2074031829834
-14.5916624069214
-19.6462898254395
-15.6407356262207
-21.9351787567139
-32.04443359375
-31.7583236694336
-33.9518394470215
-32.1398048400879
-25.5592517852783
-19.7416610717773
-12.6842555999756
-11.2537002563477
-11.9212923049927
-3.62407302856445
7.43888664245605
8.86944198608398
8.0111083984375
6.58055353164673
2.09814739227295
5.34073925018311
8.20184898376465
12.302773475647
14.1148099899292
6.48518323898315
14.5916624069214
23.3657341003418
10.8722190856934
2.5749990940094
-4.86388731002808
-14.7824029922485
-13.8286991119385
-10.1092557907104
-6.19907188415527
-2.67036962509155
0.190740674734116
11.4444408416748
19.074068069458
12.4935140609741
4.86388731002808
3.91018390655518
5.24536848068237
1.04907369613647
-1.71666610240936
4.7685170173645
10.1092557907104
11.1583299636841
8.48795986175537
-4.48240613937378
-17.5481433868408
-24.9870281219482
-35.4777679443359
-46.9222068786621
-49.783317565918
-46.6360969543457
-58.8434982299805
-79.6342315673828
-94.3212661743164
-104.335151672363
-82.3046035766602
-39.1018409729004
2.09814739227295
74.5796051025391
188.642532348633
327.787872314453
475.039672851563
608.558166503906
687.715515136719
733.016418457031
785.088623046875
756.668273925781
592.631286621094
354.491546630859
143.723098754883
45.7777633666992
7.53425693511963
-87.5499725341797
-237.567520141602
-359.546173095703
-421.155426025391
-425.065612792969
-379.383209228516
-328.169342041016
-305.75732421875
-306.710998535156
-312.910095214844
-319.299896240234
-323.686920166016
-317.487854003906
-296.124908447266
-249.87028503418
-195.509201049805
-155.644393920898
-127.414772033691
-120.452735900879
-132.850875854492
-148.491622924805
-167.851791381836
-173.478652954102
-154.881439208984
-120.643478393555
-79.5388641357422
-52.1675758361816
-37.0036926269531
-25.8453617095947
-31.9490642547607
-51.2138710021973
-62.4675712585449
-62.9444236755371
-68.2851638793945
-64.1842422485352
-32.04443359375
-4.29166507720947
4.7685170173645
11.8259220123291
16.2129573822021
15.6407356262207
4.67314672470093
-3.43333220481873
-1.04907369613647
-3.147221326828
-3.71944332122803
1.62129580974579
8.86944198608398
18.5018463134766
21.1722145080566
19.8370304107666
20.5999927520752
21.5536975860596
21.9351787567139
24.4148063659668
30.70924949646
36.9083213806152
44.5379486083984
49.1157264709473
46.3499870300293
48.9249839782715
54.7425765991211
53.8842430114746
52.3583183288574
49.8786888122559
46.6360969543457
46.6360969543457
43.2027626037598
46.4453544616699
56.2685012817383
57.4129447937012
63.7073860168457
66.2823867797852
54.2657241821289
58.1759071350098
63.039794921875
54.0749816894531
54.5518341064453
58.0805358886719
57.6036834716797
57.2222023010254
56.3638725280762
54.8379440307617
50.6416511535645
52.0722045898438
54.5518341064453
44.9194297790527
39.1018409729004
40.3416519165039
36.1453590393066
37.6712837219238
44.8240585327148
41.3907279968262
41.0092468261719
55.6009063720703
60.5601654052734
52.8351669311523
51.9768333435059
51.6907234191895
44.9194297790527
38.148136138916
35.1916542053223
47.5897979736328
68.5712738037109
80.3971939086914
78.7759017944336
62.7536849975586
49.5925750732422
46.4453544616699
38.148136138916
38.148136138916
58.3666496276855
71.1462707519531
64.6610870361328
60.274055480957
58.2712783813477
46.9222068786621
37.8620262145996
30.5185089111328
27.657398223877
38.0527648925781
49.4972076416016
61.1323890686035
72.4814605712891
73.3397903442383
75.6286773681641
79.729606628418
71.2416458129883
65.5194244384766
67.903678894043
59.3203506469727
48.734245300293
50.9277610778809
52.5490570068359
50.1647987365723
44.1564674377441
31.9490642547607
22.9842510223389
16.6898097991943
14.0194396972656
15.35462474823
10.1092557907104
-3.8148136138916
-7.91573810577393
1.52592539787292
9.9185152053833
10.9675893783569
-0.858333051204681
-15.5453653335571
-22.9842510223389
-34.5240631103516
-41.8675804138184
-34.4286918640137
-29.4694347381592
-34.2379531860352
-36.7175827026367
-29.4694347381592
-19.6462898254395
-26.9898052215576
-38.6249885559082
-37.0036926269531
-39.9601707458496
-46.6360969543457
-44.4425773620605
-42.4398002624512
-46.9222068786621
-52.7397994995117
-49.9740562438965
-37.7666549682617
-32.1398048400879
-33.2842483520508
-31.4722118377686
-33.3796195983887
-35.9546165466309
-35.5731353759766
-35.2870254516602
-28.8972129821777
-24.5101776123047
-33.4749908447266
-44.0610961914063
-47.1129493713379
-44.8240585327148
-41.8675804138184
-46.3499870300293
-47.6851692199707
-31.0907306671143
-20.3138828277588
-27.4666576385498
-32.3305435180664
-35.2870254516602
-37.3851737976074
-36.3360977172852
-34.9055442810059
-30.8046188354492
-33.3796195983887
-38.5296173095703
-37.0036926269531
-33.8564720153809
-29.7555465698242
-29.0879535675049
-30.5185089111328
-29.0879535675049
-27.2759170532227
-25.6546211242676
-27.3712882995605
-31.9490642547607
-34.1425819396973
-31.1861019134521
-27.8481388092041
-30.6138782501221
-34.0472106933594
-36.0499877929688
-37.5759124755859
-34.3333206176758
-28.5157318115234
-25.7499923706055
-24.0333251953125
-17.2620315551758
-7.0574049949646
-0.286111027002335
-1.04907369613647
-12.1120328903198
-19.4555492401123
-19.074068069458
-20.1231422424316
-17.2620315551758
-17.8342533111572
-22.4120292663574
-18.5018463134766
-15.5453653335571
-12.9703664779663
-9.72777462005615
-13.5425882339478
-13.4472179412842
-4.1962947845459
-0.381481349468231
-6.96203470230103
-14.3055505752563
-18.5972156524658
-23.1749935150146
-31.8536930084229
-38.148136138916
-34.6194343566895
-30.3277683258057
-23.8425846099854
-11.0629596710205
-4.10092449188232
-7.43888664245605
-6.38981294631958
-4.10092449188232
-11.635181427002
-8.67870044708252
6.19907188415527
6.77129411697388
-1.52592539787292
-8.67870044708252
-12.1120328903198
-9.15555286407471
-5.53147983551025
-0.9537034034729
7.15277528762817
13.6379585266113
11.5398111343384
2.8611102104187
-6.19907188415527
-11.8259220123291
-13.3518476486206
-16.9759197235107
-20.5046234130859
-19.8370304107666
-20.6953639984131
-18.8833274841309
-8.29721927642822
-1.9074068069458
-4.1962947845459
-5.34073925018311
-0.572222054004669
1.43055510520935
-10.3953666687012
-15.2592544555664
-6.38981294631958
-3.33796191215515
4.10092449188232
16.1175880432129
16.022216796875
6.58055353164673
-4.86388731002808
-11.9212923049927
-21.3629570007324
-29.278694152832
-24.7962875366211
-28.8972129821777
-50.355541229248
-89.1712646484375
-113.776817321777
-93.1768188476563
-72.6721954345703
-46.0638732910156
35.4777679443359
142.769393920898
243.289733886719
362.788787841797
478.759094238281
532.071105957031
578.516479492188
634.022033691406
595.206298828125
428.308197021484
201.899002075195
41.2953567504883
12.9703664779663
12.302773475647
-65.5194244384766
-165.753646850586
-225.741592407227
-246.627700805664
-219.447158813477
-167.661056518555
-137.428665161133
-142.674026489258
-161.557357788086
-174.623092651367
-198.561050415039
-232.417510986328
-248.916580200195
-240.524002075195
-206.572158813477
-168.424026489258
-142.864776611328
-127.224029541016
-130.752731323242
-143.913848876953
-146.584213256836
-143.913848876953
-142.864776611328
-134.853652954102
-108.436073303223
-78.1083068847656
-58.9388694763184
-41.2953567504883
-30.0416564941406
-39.6740608215332
-59.3203506469727
-61.0370178222656
-46.7314682006836
-46.4453544616699
-50.9277610778809
-36.0499877929688
-13.5425882339478
-2.38425850868225
-1.81203651428223
-0.762962698936462
-0.381481349468231
-5.53147983551025
-10.9675893783569
-12.6842555999756
-7.15277528762817
4.29166507720947
8.10647869110107
4.38703584671021
8.67870044708252
14.9731435775757
18.787956237793
20.1231422424316
11.0629596710205
6.38981294631958
8.20184898376465
6.1037015914917
12.3981437683105
23.1749935150146
33.6657295227051
41.1046180725098
35.8592491149902
31.0907306671143
30.70924949646
24.7009181976318
21.7444381713867
26.226842880249
35.1916542053223
42.5351715087891
44.3472061157227
51.2138710021973
56.5546112060547
50.6416511535645
43.9657249450684
44.4425773620605
49.9740562438965
52.9305381774902
47.8759117126465
39.3879508972168
37.0036926269531
42.3444290161133
45.0148010253906
52.1675758361816
71.1462707519531
74.7703475952148
55.7916488647461
52.1675758361816
66.0916442871094
60.274055480957
48.3527641296387
58.3666496276855
66.2823867797852
63.2305335998535
63.4212760925293
58.3666496276855
48.2573928833008
42.7259140014648
34.5240631103516
30.2323970794678
36.1453590393066
40.0555419921875
41.6768379211426
39.3879508972168
33.6657295227051
44.3472061157227
61.2277565002441
67.3314590454102
68.4759063720703
60.274055480957
51.4999847412109
45.8731346130371
37.1944313049316
42.8212814331055
57.4129447937012
58.9388694763184
51.3092422485352
44.9194297790527
42.7259140014648
42.4398002624512
37.1944313049316
30.8046188354492
30.2323970794678
28.6111011505127
26.226842880249
33.9518394470215
47.1129493713379
52.9305381774902
48.2573928833008
38.4342460632324
33.8564720153809
28.8972129821777
21.4583263397217
27.657398223877
34.5240631103516
27.943510055542
30.3277683258057
39.5786895751953
36.8129501342773
29.7555465698242
25.6546211242676
21.839807510376
21.5536975860596
20.8861045837402
18.5018463134766
19.7416610717773
19.360179901123
13.6379585266113
0.47685170173645
-14.4962921142578
-20.5999927520752
-20.409252166748
-16.8805503845215
-17.1666603088379
-17.6435127258301
-9.72777462005615
-6.00833129882813
-9.63240432739258
-12.9703664779663
-17.5481433868408
-20.3138828277588
-20.7907333374023
-23.9379558563232
-31.0907306671143
-35.9546165466309
-32.6166572570801
-26.0361022949219
-22.125919342041
-20.6953639984131
-28.8018417358398
-36.7175827026367
-32.6166572570801
-34.0472106933594
-42.1536903381348
-50.832389831543
-54.4564628601074
-45.2055397033691
-40.5323944091797
-40.4370231628418
-35.0009155273438
-41.0092468261719
-45.7777633666992
-38.4342460632324
-33.2842483520508
-28.4203605651855
-28.3249912261963
-27.4666576385498
-23.5564746856689
-30.5185089111328
-34.1425819396973
-30.995361328125
-36.1453590393066
-45.0148010253906
-44.0610961914063
-38.7203598022461
-44.8240585327148
-50.5462799072266
-47.7805404663086
-44.3472061157227
-39.864803314209
-37.9573936462402
-37.7666549682617
-28.8972129821777
-19.9324016571045
-25.177770614624
-34.7148017883301
-34.9055442810059
-33.4749908447266
-30.8999900817871
-26.226842880249
-24.7009181976318
-23.5564746856689
-31.7583236694336
-41.1046180725098
-37.4805450439453
-35.9546165466309
-39.1018409729004
-35.9546165466309
-26.8944358825684
-19.5509204864502
-15.0685138702393
-13.8286991119385
-22.2212886810303
-30.70924949646
-28.5157318115234
-23.1749935150146
-20.1231422424316
-22.6027698516846
-26.6083240509033
-22.6981410980225
-20.8861045837402
-23.2703628540039
-19.2648086547852
-13.5425882339478
-9.72777462005615
-3.91018390655518
-3.05185079574585
-12.302773475647
-15.0685138702393
-7.24814605712891
-12.0166625976563
-22.3166599273682
-13.256477355957
-7.91573810577393
-19.9324016571045
-26.6083240509033
-29.1833248138428
-29.0879535675049
-28.2296199798584
-31.2814712524414
-21.6490669250488
-6.19907188415527
7.91573810577393
15.1638841629028
5.24536848068237
-1.23981440067291
-0.286111027002335
-1.9074068069458
-1.81203651428223
-4.1962947845459
-1.43055510520935
6.19907188415527
4.86388731002808
4.29166507720947
12.4935140609741
24.0333251953125
24.2240657806396
10.9675893783569
8.58333015441895
13.256477355957
5.24536848068237
-8.86944198608398
-17.1666603088379
-13.8286991119385
-1.52592539787292
8.86944198608398
17.738883972168
22.9842510223389
16.6898097991943
7.34351634979248
2.67036962509155
6.86666440963745
3.147221326828
-11.4444408416748
-6.77129411697388
-2.8611102104187
-9.82314491271973
-4.95925760269165
-5.05462789535522
-9.72777462005615
-12.1120328903198
-19.360179901123
-26.9898052215576
-33.5703582763672
-35.1916542053223
-37.4805450439453
-43.7749862670898
-43.5842437744141
-53.7888717651367
-76.0101623535156
-91.8416366577148
-99.948112487793
-81.6370086669922
-43.9657249450684
15.6407356262207
118.068481445313
233.085113525391
345.526733398438
480.571136474609
608.84423828125
668.832214355469
706.217346191406
747.226623535156
696.87109375
514.713745117188
262.173065185547
63.1351661682129
-0.286111027002335
-27.657398223877
-130.943481445313
-268.848999023438
-376.522094726563
-417.912841796875
-388.824890136719
-334.749877929688
-292.977691650391
-276.573974609375
-274.475830078125
-268.086029052734
-266.750854492188
-274.761962890625
-270.661010742188
-244.338806152344
-201.326782226563
-151.924957275391
-113.395332336426
-93.5583038330078
-92.7953414916992
-109.675888061523
-132.374038696289
-147.728652954102
-141.338836669922
-124.93514251709
-116.542556762695
-91.4601593017578
-57.5083160400391
-42.3444290161133
-34.1425819396973
-40.1509132385254
-63.2305335998535
-80.0157165527344
-84.4027481079102
-75.4379425048828
-57.9851684570313
-42.5351715087891
-21.7444381713867
6.19907188415527
19.7416610717773
14.4962921142578
2.00277709960938
-4.00555419921875
1.71666610240936
7.82036781311035
15.2592544555664
28.4203605651855
37.5759124755859
44.0610961914063
48.066650390625
42.7259140014648
32.9027671813965
26.0361022949219
23.5564746856689
22.7935104370117
21.5536975860596
22.3166599273682
29.7555465698242
39.197208404541
39.5786895751953
34.810173034668
33.6657295227051
33.0935096740723
38.3388748168945
45.7777633666992
40.4370231628418
38.7203598022461
50.0694274902344
51.2138710021973
45.7777633666992
49.8786888122559
54.4564628601074
50.5462799072266
50.6416511535645
61.7046089172363
64.8518295288086
57.6990547180176
48.3527641296387
35.6685066223145
36.1453590393066
51.0231323242188
59.9879455566406
59.8925743103027
52.5490570068359
51.0231323242188
52.453685760498
39.5786895751953
29.5648059844971
26.7990646362305
23.1749935150146
24.6055469512939
24.5101776123047
23.6518440246582
30.2323970794678
36.431468963623
42.8212814331055
48.6388740539551
44.0610961914063
36.431468963623
37.4805450439453
42.9166526794434
36.5268402099609
25.7499923706055
31.4722118377686
43.2027626037598
49.4972076416016
51.4999847412109
46.1592445373535
37.4805450439453
30.4231376647949
26.7036952972412
30.8046188354492
39.3879508972168
51.6907234191895
67.903678894043
74.7703475952148
70.9555358886719
66.3777542114258
58.9388694763184
51.8814659118652
54.0749816894531
64.2796096801758
75.6286773681641
78.7759017944336
81.0647888183594
88.4083023071289
92.6045989990234
86.2147903442383
69.3342361450195
58.1759071350098
54.9333152770996
50.2601699829102
52.8351669311523
59.6064605712891
65.4240493774414
74.198127746582
71.6231231689453
57.4129447937012
48.6388740539551
40.3416519165039
26.7990646362305
16.6898097991943
14.9731435775757
19.7416610717773
18.4064750671387
11.5398111343384
11.4444408416748
10.9675893783569
5.62685012817383
-3.05185079574585
-8.67870044708252
-11.5398111343384
-26.7036952972412
-32.9027671813965
-22.7935104370117
-15.7361059188843
-2.47962880134583
2.09814739227295
-18.3111057281494
-33.4749908447266
-32.9981384277344
-36.2407302856445
-36.0499877929688
-28.8018417358398
-28.6111011505127
-28.2296199798584
-24.2240657806396
-30.2323970794678
-45.8731346130371
-52.1675758361816
-50.7370223999023
-54.170352935791
-54.7425765991211
-51.2138710021973
-52.6444282531738
-50.9277610778809
-46.7314682006836
-53.3120193481445
-61.4184989929199
-61.0370178222656
-61.5138702392578
-58.0805358886719
-52.2629470825195
-56.4592399597168
-58.4620170593262
-54.2657241821289
-50.4509086608887
-49.4018363952637
-46.6360969543457
-40.6277656555176
-42.8212814331055
-37.099063873291
-28.2296199798584
-35.1916542053223
-42.1536903381348
-41.8675804138184
-46.9222068786621
-57.7944259643555
-56.0777587890625
-49.6879463195801
-50.5462799072266
-48.4481315612793
-48.734245300293
-47.5897979736328
-41.1999855041504
-44.7286911010742
-49.6879463195801
-44.9194297790527
-40.5323944091797
-36.5268402099609
-35.7638778686523
-44.6333198547363
-55.9823913574219
-62.7536849975586
-58.652759552002
-45.7777633666992
-40.4370231628418
-43.2027626037598
-43.3935050964355
-42.2490615844727
-43.2981338500977
-36.8129501342773
-20.6953639984131
-14.2101802825928
-21.0768451690674
-25.9407329559326
-30.0416564941406
-34.6194343566895
-36.8129501342773
-36.7175827026367
-26.226842880249
-17.1666603088379
-19.074068069458
-15.6407356262207
-10.7768487930298
-11.8259220123291
-12.3981437683105
-15.6407356262207
-15.7361059188843
-10.3953666687012
-4.7685170173645
5.7222204208374
15.2592544555664
13.9240694046021
6.38981294631958
-1.9074068069458
-11.5398111343384
-10.204626083374
0.47685170173645
-3.91018390655518
-14.0194396972656
-16.1175880432129
-22.6027698516846
-22.0305480957031
-10.3953666687012
-7.72499752044678
-8.3925895690918
-2.38425850868225
5.53147983551025
10.7768487930298
14.9731435775757
17.5481433868408
16.2129573822021
12.7796258926392
10.1092557907104
17.2620315551758
21.4583263397217
11.0629596710205
4.7685170173645
7.34351634979248
15.6407356262207
23.2703628540039
18.5972156524658
9.25092315673828
11.635181427002
16.2129573822021
11.9212923049927
12.7796258926392
17.8342533111572
16.1175880432129
14.4009208679199
21.6490669250488
28.1342506408691
24.1286964416504
23.7472152709961
22.4120292663574
7.24814605712891
-3.5287024974823
-2.47962880134583
-0.286111027002335
2.38425850868225
7.24814605712891
5.34073925018311
0.667592406272888
5.43610954284668
9.9185152053833
10.9675893783569
5.7222204208374
-3.05185079574585
-4.00555419921875
-11.4444408416748
-21.9351787567139
-20.1231422424316
-29.5648059844971
-56.4592399597168
-95.2749710083008
-124.458290100098
-115.111999511719
-100.615707397461
-71.1462707519531
18.5018463134766
128.463851928711
227.076782226563
352.965637207031
482.478546142578
536.744262695313
572.3173828125
631.351623535156
609.607238769531
458.445220947266
237.281402587891
63.8981285095215
20.9814739227295
18.2157344818115
-63.6120147705078
-171.857345581055
-237.567520141602
-259.693420410156
-231.082336425781
-193.983276367188
-179.010131835938
-171.380493164063
-179.963836669922
-203.234191894531
-226.218444824219
-246.913803100586
-249.679550170898
-230.986968994141
-203.901779174805
-168.137908935547
-130.46662902832
-106.242561340332
-104.430519104004
-123.886070251465
-138.286987304688
-138.573104858398
-141.052734375
-137.237915039063
-120.548110961914
-96.4194107055664
-68.8573837280273
-52.9305381774902
-47.4944305419922
-48.066650390625
-53.8842430114746
-56.3638725280762
-57.6990547180176
-58.3666496276855
-49.6879463195801
-29.5648059844971
-11.8259220123291
-8.29721927642822
-7.43888664245605
-9.25092315673828
-11.5398111343384
-2.8611102104187
7.53425693511963
7.15277528762817
-3.05185079574585
0.762962698936462
17.9296245574951
19.360179901123
20.7907333374023
32.3305435180664
28.5157318115234
16.2129573822021
13.3518476486206
11.635181427002
14.1148099899292
22.6981410980225
26.6083240509033
33.8564720153809
45.4916534423828
43.679615020752
39.197208404541
46.5407257080078
49.1157264709473
53.6935005187988
64.5657196044922
58.9388694763184
49.1157264709473
50.355541229248
49.5925750732422
48.8296127319336
52.0722045898438
53.2166481018066
52.6444282531738
53.8842430114746
55.0286865234375
57.0314636230469
59.2249794006348
57.6036834716797
56.6499824523926
58.3666496276855
55.1240577697754
51.9768333435059
55.219425201416
54.8379440307617
52.9305381774902
56.0777587890625
54.6472053527832
45.3962821960449
38.7203598022461
42.4398002624512
52.3583183288574
56.6499824523926
50.9277610778809
45.0148010253906
50.832389831543
53.4073905944824
42.0583190917969
31.2814712524414
20.3138828277588
14.9731435775757
16.5944385528564
20.9814739227295
33.1888771057129
37.4805450439453
38.2435073852539
45.3962821960449
46.4453544616699
43.7749862670898
41.1046180725098
38.0527648925781
39.9601707458496
40.1509132385254
36.9083213806152
44.8240585327148
54.3610954284668
49.9740562438965
49.0203552246094
51.4999847412109
44.5379486083984
41.4860992431641
41.7722091674805
39.9601707458496
43.9657249450684
50.0694274902344
54.3610954284668
57.1268348693848
56.8407211303711
50.4509086608887
37.7666549682617
40.0555419921875
49.5925750732422
48.9249839782715
52.9305381774902
55.4101676940918
48.5435028076172
44.9194297790527
42.9166526794434
34.1425819396973
19.6462898254395
5.43610954284668
1.62129580974579
5.34073925018311
0.667592406272888
-8.3925895690918
-11.635181427002
-14.1148099899292
-17.738883972168
-22.3166599273682
-27.1805477142334
-26.0361022949219
-21.3629570007324
-23.1749935150146
-26.7036952972412
-22.7935104370117
-13.6379585266113
-11.1583299636841
-19.360179901123
-16.5944385528564
-2.67036962509155
-2.95648050308228
-13.4472179412842
-22.8888816833496
-32.9027671813965
-40.7231369018555
-49.1157264709473
-50.832389831543
-43.3935050964355
-52.0722045898438
-73.1490478515625
-71.6231231689453
-59.3203506469727
-59.1296119689941
-59.2249794006348
-50.0694274902344
-39.6740608215332
-39.6740608215332
-45.8731346130371
-44.6333198547363
-41.3907279968262
-49.2110939025879
-53.2166481018066
-47.2083168029785
-46.3499870300293
-45.3962821960449
-42.9166526794434
-41.1046180725098
-33.9518394470215
-25.4638805389404
-29.1833248138428
-37.6712837219238
-41.2953567504883
-44.8240585327148
-38.7203598022461
-30.2323970794678
-33.5703582763672
-36.431468963623
-29.4694347381592
-27.1805477142334
-36.3360977172852
-39.197208404541
-33.6657295227051
-30.8999900817871
-26.226842880249
-14.9731435775757
-11.9212923049927
-22.7935104370117
-28.8018417358398
-27.3712882995605
-33.1888771057129
-37.5759124755859
-36.5268402099609
-35.382396697998
-28.4203605651855
-26.9898052215576
-35.5731353759766
-39.6740608215332
-36.7175827026367
-33.761100769043
-32.2351760864258
-30.8999900817871
-35.8592491149902
-44.6333198547363
-40.7231369018555
-25.6546211242676
-17.2620315551758
-12.0166625976563
-2.28888821601868
-4.1962947845459
-15.6407356262207
-15.4499950408936
-14.9731435775757
-24.4148063659668
-23.8425846099854
-11.2537002563477
-7.43888664245605
-12.3981437683105
-13.8286991119385
-12.0166625976563
-8.67870044708252
-1.62129580974579
0.667592406272888
2.47962880134583
6.48518323898315
-1.62129580974579
-10.9675893783569
-13.1611070632935
-20.3138828277588
-23.6518440246582
-25.7499923706055
-28.3249912261963
-18.5018463134766
-12.588885307312
-22.2212886810303
-28.3249912261963
-22.6027698516846
-18.4064750671387
-20.3138828277588
-14.2101802825928
-4.95925760269165
-0.47685170173645
2.95648050308228
4.10092449188232
7.34351634979248
11.0629596710205
8.3925895690918
2.09814739227295
-3.24259161949158
-0.47685170173645
5.7222204208374
6.86666440963745
7.0574049949646
12.588885307312
20.7907333374023
24.6055469512939
30.4231376647949
31.4722118377686
19.1694374084473
16.6898097991943
17.738883972168
9.63240432739258
10.3953666687012
18.9786968231201
21.4583263397217
22.5074005126953
23.4611034393311
15.9268465042114
16.6898097991943
22.5074005126953
16.7851791381836
16.8805503845215
18.4064750671387
12.9703664779663
12.7796258926392
16.30832862854
17.1666603088379
10.5861072540283
-3.5287024974823
-16.1175880432129
-21.839807510376
-25.9407329559326
-29.4694347381592
-33.1888771057129
-37.4805450439453
-45.4916534423828
-49.9740562438965
-43.8703575134277
-49.2110939025879
-63.2305335998535
-76.4870147705078
-78.6805267333984
-45.6823921203613
-1.52592539787292
55.7916488647461
165.372161865234
304.422119140625
444.616516113281
587.958129882813
680.467346191406
717.56640625
774.884033203125
784.707153320313
656.434020996094
428.498931884766
200.659194946289
74.6749725341797
23.8425846099854
-62.3722038269043
-207.525863647461
-329.790649414063
-397.694305419922
-429.166534423828
-397.598937988281
-338.660064697266
-304.994354248047
-298.890655517578
-314.14990234375
-330.267486572266
-346.671173095703
-352.107299804688
-328.073974609375
-287.732330322266
-233.752700805664
-177.388824462891
-148.300872802734
-139.336059570313
-132.660140991211
-141.052734375
-163.369384765625
-177.579574584961
-171.857345581055
-147.53791809082
-118.640701293945
-82.3999710083008
-44.4425773620605
-35.0962867736816
-45.1101722717285
-58.8434982299805
-76.1055297851563
-85.5471954345703
-77.2499771118164
-59.0342407226563
-37.8620262145996
-12.1120328903198
8.29721927642822
18.0249938964844
16.4036979675293
6.6759238243103
2.28888821601868
-4.48240613937378
-12.4935140609741
-3.147221326828
10.9675893783569
19.6462898254395
30.4231376647949
41.3907279968262
42.0583190917969
32.7120246887207
28.6111011505127
28.1342506408691
37.6712837219238
43.5842437744141
33.761100769043
39.6740608215332
47.9712791442871
41.6768379211426
44.1564674377441
49.5925750732422
44.1564674377441
40.3416519165039
44.251838684082
46.6360969543457
45.9685020446777
44.251838684082
42.9166526794434
42.630542755127
42.7259140014648
46.5407257080078
55.6962776184082
67.3314590454102
75.7240524291992
76.296272277832
73.1490478515625
69.8110885620117
61.0370178222656
48.8296127319336
45.7777633666992
53.0259094238281
56.8407211303711
59.3203506469727
70.5740509033203
77.8221969604492
68.6666412353516
63.039794921875
68.3805313110352
68.0944213867188
63.9934997558594
58.9388694763184
52.0722045898438
57.8897972106934
70.5740509033203
69.5249786376953
56.3638725280762
43.4888763427734
37.5759124755859
33.1888771057129
27.5620288848877
28.7064723968506
43.3935050964355
63.1351661682129
65.2333145141602
56.5546112060547
49.4018363952637
42.0583190917969
40.7231369018555
36.6222114562988
30.3277683258057
30.0416564941406
27.7527694702148
28.2296199798584
44.5379486083984
60.5601654052734
58.9388694763184
59.9879455566406
57.6036834716797
45.6823921203613
46.2546157836914
44.0610961914063
39.2925796508789
49.783317565918
56.8407211303711
60.3694267272949
63.2305335998535
58.652759552002
53.2166481018066
41.5814666748047
27.657398223877
26.1314735412598
26.7990646362305
23.8425846099854
24.2240657806396
27.4666576385498
30.2323970794678
32.5212860107422
29.3740653991699
21.1722145080566
14.0194396972656
5.81759071350098
2.8611102104187
9.9185152053833
14.5916624069214
12.1120328903198
12.2074031829834
10.6814785003662
-0.47685170173645
-12.8749961853027
-22.9842510223389
-31.9490642547607
-29.9462871551514
-24.4148063659668
-24.891658782959
-17.5481433868408
-13.3518476486206
-22.0305480957031
-28.3249912261963
-33.5703582763672
-34.0472106933594
-32.6166572570801
-40.3416519165039
-44.5379486083984
-39.3879508972168
-30.70924949646
-22.125919342041
-22.0305480957031
-21.4583263397217
-16.6898097991943
-29.278694152832
-41.962947845459
-31.4722118377686
-32.1398048400879
-48.734245300293
-42.8212814331055
-26.0361022949219
-26.1314735412598
-31.0907306671143
-28.8018417358398
-39.1018409729004
-59.2249794006348
-59.3203506469727
-47.9712791442871
-48.1620216369629
-52.9305381774902
-47.1129493713379
-44.7286911010742
-48.2573928833008
-42.0583190917969
-34.9055442810059
-29.1833248138428
-23.1749935150146
-27.4666576385498
-32.9027671813965
-31.2814712524414
-38.4342460632324
-50.5462799072266
-48.6388740539551
-43.8703575134277
-45.7777633666992
-45.0148010253906
-42.0583190917969
-40.5323944091797
-36.6222114562988
-32.6166572570801
-33.6657295227051
-30.2323970794678
-24.891658782959
-26.0361022949219
-31.7583236694336
-42.7259140014648
-49.6879463195801
-48.2573928833008
-41.1999855041504
-33.9518394470215
-36.1453590393066
-33.5703582763672
-18.787956237793
-13.1611070632935
-17.6435127258301
-24.4148063659668
-28.3249912261963
-24.891658782959
-24.7009181976318
-27.5620288848877
-23.0796222686768
-19.2648086547852
-22.0305480957031
-23.4611034393311
-19.5509204864502
-21.839807510376
-28.8018417358398
-24.0333251953125
-16.4036979675293
-17.0712909698486
-18.787956237793
-15.0685138702393
-9.63240432739258
-5.1499981880188
-2.47962880134583
-7.15277528762817
-4.95925760269165
5.62685012817383
2.5749990940094
-6.1037015914917
-11.2537002563477
-19.2648086547852
-31.4722118377686
-43.2981338500977
-39.4833221435547
-18.3111057281494
-11.9212923049927
-15.6407356262207
1.81203651428223
20.7907333374023
17.6435127258301
3.62407302856445
-4.1962947845459
-1.43055510520935
1.33518481254578
4.00555419921875
16.1175880432129
26.4175834655762
22.7935104370117
10.6814785003662
3.5287024974823
0.0953703373670578
-5.05462789535522
-8.20184898376465
-15.8314762115479
-18.8833274841309
-11.0629596710205
-5.43610954284668
-0.286111027002335
3.43333220481873
6.86666440963745
13.5425882339478
12.588885307312
7.24814605712891
8.0111083984375
10.1092557907104
14.9731435775757
23.7472152709961
27.1805477142334
21.2675857543945
12.9703664779663
7.6296272277832
8.10647869110107
11.7305517196655
9.63240432739258
7.34351634979248
14.2101802825928
23.6518440246582
24.2240657806396
15.8314762115479
6.48518323898315
-10.5861072540283
-20.5046234130859
-16.022216796875
-28.9925842285156
-54.7425765991211
-89.5527496337891
-106.147186279297
-83.4490509033203
-71.9092330932617
-47.3990592956543
39.6740608215332
139.049957275391
236.899917602539
368.892486572266
471.034118652344
516.621154785156
585.383117675781
639.553527832031
572.126647949219
377.189697265625
165.181427001953
67.8083114624023
57.2222023010254
15.5453653335571
-78.6805267333984
-170.80827331543
-223.738815307617
-235.183258056641
-216.204559326172
-180.440689086914
-149.63606262207
-148.110137939453
-163.750869750977
-184.160125732422
-214.392517089844
-245.387878417969
-258.358245849609
-239.761032104492
-199.514755249023
-154.881439208984
-124.362922668457
-121.406440734863
-118.640701293945
-116.733299255371
-135.616622924805
-146.870330810547
-142.387924194336
-130.180511474609
-104.239784240723
-77.6314544677734
-59.9879455566406
-48.4481315612793
-48.2573928833008
-57.2222023010254
-62.3722038269043
-68.2851638793945
-77.7268295288086
-72.9583129882813
-52.6444282531738
-34.3333206176758
-19.360179901123
-5.1499981880188
3.147221326828
8.0111083984375
6.38981294631958
-3.62407302856445
-10.1092557907104
-14.3055505752563
-12.7796258926392
6.48518323898315
23.4611034393311
26.3222141265869
31.1861019134521
29.0879535675049
20.8861045837402
24.6055469512939
26.8944358825684
26.6083240509033
38.2435073852539
43.9657249450684
34.0472106933594
35.2870254516602
48.4481315612793
48.066650390625
36.7175827026367
35.0962867736816
42.3444290161133
42.2490615844727
36.2407302856445
32.6166572570801
35.382396697998
40.1509132385254
43.0120239257813
47.6851692199707
47.9712791442871
49.783317565918
53.8842430114746
50.832389831543
52.0722045898438
51.404613494873
40.1509132385254
33.761100769043
37.9573936462402
45.8731346130371
49.9740562438965
45.4916534423828
39.0064697265625
34.2379531860352
29.4694347381592
25.5592517852783
21.4583263397217
18.6925868988037
17.738883972168
21.9351787567139
29.8509159088135
29.4694347381592
35.7638778686523
51.3092422485352
55.3147964477539
48.066650390625
32.8073959350586
18.3111057281494
14.8777732849121
14.687032699585
16.30832862854
23.4611034393311
32.1398048400879
35.9546165466309
33.5703582763672
33.3796195983887
35.6685066223145
36.1453590393066
40.3416519165039
44.3472061157227
39.1018409729004
34.5240631103516
33.6657295227051
31.5675830841064
33.2842483520508
43.4888763427734
43.1073951721191
29.3740653991699
30.70924949646
36.0499877929688
34.810173034668
40.3416519165039
40.4370231628418
37.6712837219238
45.3962821960449
49.3064651489258
47.3036880493164
43.3935050964355
36.431468963623
37.5759124755859
40.3416519165039
37.2898025512695
39.4833221435547
46.1592445373535
48.6388740539551
39.6740608215332
32.5212860107422
34.4286918640137
33.4749908447266
28.2296199798584
13.256477355957
1.23981440067291
10.2999963760376
19.5509204864502
18.3111057281494
14.2101802825928
5.34073925018311
-4.86388731002808
-10.6814785003662
-16.1175880432129
-16.2129573822021
-7.72499752044678
-0.667592406272888
3.33796191215515
6.00833129882813
4.67314672470093
-0.286111027002335
-5.7222204208374
-11.2537002563477
-16.4036979675293
-13.8286991119385
-10.1092557907104
-14.4009208679199
-23.1749935150146
-27.1805477142334
-23.8425846099854
-29.5648059844971
-38.3388748168945
-36.2407302856445
-34.9055442810059
-31.5675830841064
-28.2296199798584
-31.4722118377686
-28.1342506408691
-25.7499923706055
-33.4749908447266
-37.4805450439453
-37.5759124755859
-39.9601707458496
-45.8731346130371
-49.4972076416016
-42.8212814331055
-41.7722091674805
-47.8759117126465
-41.4860992431641
-35.4777679443359
-34.7148017883301
-29.3740653991699
-28.8972129821777
-38.2435073852539
-46.7314682006836
-47.9712791442871
-47.3036880493164
-47.2083168029785
-35.6685066223145
-21.839807510376
-24.6055469512939
-27.4666576385498
-23.3657341003418
-25.5592517852783
-25.2731399536133
-20.0277709960938
-22.9842510223389
-31.6629524230957
-29.4694347381592
-20.5046234130859
-21.7444381713867
-18.6925868988037
-6.19907188415527
-11.3490705490112
-22.3166599273682
-21.9351787567139
-30.1370277404785
-30.995361328125
-17.9296245574951
-20.1231422424316
-26.7990646362305
-24.891658782959
-24.891658782959
-29.6601753234863
-36.2407302856445
-35.5731353759766
-30.995361328125
-29.5648059844971
-23.5564746856689
-19.8370304107666
-27.657398223877
-34.4286918640137
-33.2842483520508
-34.0472106933594
-34.6194343566895
-28.1342506408691
-24.4148063659668
-26.226842880249
-24.0333251953125
-21.839807510376
-22.0305480957031
-16.1175880432129
-6.1037015914917
-4.29166507720947
-8.77407169342041
-8.58333015441895
-6.19907188415527
-5.62685012817383
-3.91018390655518
-2.5749990940094
-4.48240613937378
-8.96481227874756
-10.5861072540283
-10.204626083374
-18.787956237793
-26.7990646362305
-15.4499950408936
-8.3925895690918
-15.2592544555664
-6.29444265365601
7.15277528762817
5.05462789535522
3.91018390655518
5.1499981880188
4.86388731002808
4.67314672470093
4.10092449188232
10.8722190856934
11.7305517196655
-1.43055510520935
-12.7796258926392
-15.35462474823
-9.06018257141113
1.14444410800934
5.1499981880188
4.00555419921875
5.1499981880188
1.71666610240936
-3.62407302856445
-3.33796191215515
-6.19907188415527
-10.1092557907104
-8.77407169342041
-7.34351634979248
-1.9074068069458
7.6296272277832
10.2999963760376
4.38703584671021
-4.38703584671021
-5.43610954284668
-0.858333051204681
-1.14444410800934
2.09814739227295
10.0138854980469
11.5398111343384
10.3953666687012
15.2592544555664
21.0768451690674
21.2675857543945
19.6462898254395
11.5398111343384
1.14444410800934
-5.1499981880188
-13.0657367706299
-12.6842555999756
-17.4527721405029
-38.148136138916
-69.4296035766602
-95.2749710083008
-79.3481216430664
-62.0860900878906
-53.8842430114746
15.9268465042114
129.036071777344
233.371215820313
348.387847900391
463.023010253906
517.193359375
556.867431640625
616.569274902344
601.691467285156
461.401702880859
239.379547119141
56.5546112060547
8.3925895690918
9.537034034729
-59.0342407226563
-160.031433105469
-230.891586303711
-266.560089111328
-251.586959838867
-208.574935913086
-185.686050415039
-182.443466186523
-177.48420715332
-178.437911987305
-207.525863647461
-244.624923706055
-253.494369506836
-234.801773071289
-201.136047363281
-167.470321655273
-145.725875854492
-125.698104858398
-113.872184753418
-123.409217834473
-140.003662109375
-148.491622924805
-145.821243286133
-127.510147094727
-101.855522155762
-84.3073806762695
-62.1814613342285
-41.1999855041504
-38.3388748168945
-41.3907279968262
-56.7453536987305
-77.7268295288086
-80.778678894043
-73.4351654052734
-60.3694267272949
-44.6333198547363
-25.177770614624
-0.667592406272888
7.53425693511963
2.76573991775513
-0.858333051204681
-10.7768487930298
-10.5861072540283
-4.10092449188232
-12.2074031829834
-12.3981437683105
1.52592539787292
12.6842555999756
22.2212886810303
31.2814712524414
32.5212860107422
32.3305435180664
36.7175827026367
35.1916542053223
32.6166572570801
38.148136138916
43.679615020752
43.679615020752
47.5897979736328
53.4073905944824
48.5435028076172
43.679615020752
42.0583190917969
41.2953567504883
42.630542755127
39.1018409729004
36.9083213806152
45.0148010253906
52.0722045898438
47.6851692199707
47.5897979736328
52.0722045898438
56.1731300354004
65.4240493774414
62.8490524291992
51.1185035705566
50.355541229248
50.7370223999023
47.2083168029785
43.2027626037598
39.3879508972168
41.8675804138184
45.9685020446777
52.2629470825195
59.0342407226563
51.3092422485352
43.5842437744141
47.7805404663086
48.8296127319336
44.6333198547363
39.2925796508789
33.4749908447266
33.4749908447266
41.962947845459
50.0694274902344
53.8842430114746
58.4620170593262
54.0749816894531
38.9110984802246
28.8972129821777
27.1805477142334
30.8999900817871
42.1536903381348
53.4073905944824
57.6036834716797
61.0370178222656
60.6555366516113
53.121280670166
50.7370223999023
49.4018363952637
47.8759117126465
53.8842430114746
58.0805358886719
55.1240577697754
46.7314682006836
35.2870254516602
28.8018417358398
26.5129547119141
22.9842510223389
21.1722145080566
19.9324016571045
22.4120292663574
33.8564720153809
37.6712837219238
36.0499877929688
41.7722091674805
44.3472061157227
39.9601707458496
34.6194343566895
27.0851764678955
19.360179901123
23.9379558563232
38.4342460632324
41.5814666748047
35.0009155273438
32.3305435180664
27.4666576385498
18.9786968231201
13.1611070632935
12.0166625976563
13.256477355957
7.0574049949646
1.04907369613647
0.858333051204681
8.48795986175537
17.357400894165
10.5861072540283
2.38425850868225
-4.29166507720947
-14.7824029922485
-19.9324016571045
-20.409252166748
-13.0657367706299
-7.91573810577393
-14.8777732849121
-17.0712909698486
-12.4935140609741
-15.9268465042114
-21.2675857543945
-21.0768451690674
-23.4611034393311
-27.1805477142334
-25.9407329559326
-20.0277709960938
-17.5481433868408
-20.1231422424316
-24.1286964416504
-33.8564720153809
-41.8675804138184
-46.6360969543457
-51.1185035705566
-49.2110939025879
-40.4370231628418
-34.7148017883301
-37.6712837219238
-38.7203598022461
-33.9518394470215
-30.1370277404785
-32.7120246887207
-36.1453590393066
-34.3333206176758
-37.0036926269531
-41.4860992431641
-39.6740608215332
-34.9055442810059
-32.9027671813965
-38.6249885559082
-44.251838684082
-44.5379486083984
-43.2027626037598
-34.7148017883301
-25.5592517852783
-29.5648059844971
-34.4286918640137
-33.1888771057129
-37.6712837219238
-41.5814666748047
-36.3360977172852
-36.3360977172852
-43.5842437744141
-48.9249839782715
-55.5055389404297
-58.5573883056641
-56.0777587890625
-52.5490570068359
-39.9601707458496
-29.7555465698242
-39.2925796508789
-48.9249839782715
-43.2027626037598
-32.6166572570801
-22.125919342041
-22.3166599273682
-33.5703582763672
-38.148136138916
-36.6222114562988
-35.1916542053223
-26.5129547119141
-16.8805503845215
-18.3111057281494
-20.5999927520752
-21.2675857543945
-18.8833274841309
-14.687032699585
-15.8314762115479
-15.8314762115479
-10.2999963760376
-9.72777462005615
-16.6898097991943
-17.6435127258301
-10.0138854980469
-6.1037015914917
-9.25092315673828
-15.35462474823
-17.8342533111572
-11.7305517196655
0
0.858333051204681
-4.10092449188232
-0.47685170173645
3.62407302856445
4.38703584671021
-0.9537034034729
-6.77129411697388
-7.6296272277832
-14.3055505752563
-18.787956237793
-20.7907333374023
-22.6981410980225
-16.8805503845215
-15.2592544555664
-19.8370304107666
-27.8481388092041
-35.6685066223145
-30.3277683258057
-28.5157318115234
-33.0935096740723
-23.3657341003418
-14.687032699585
-18.1203651428223
-12.4935140609741
-0.667592406272888
2.00277709960938
1.43055510520935
3.147221326828
8.0111083984375
10.0138854980469
4.38703584671021
-2.8611102104187
-4.1962947845459
7.34351634979248
20.8861045837402
27.7527694702148
23.7472152709961
11.635181427002
4.00555419921875
-0.9537034034729
-6.6759238243103
-10.204626083374
-12.588885307312
-10.2999963760376
-1.14444410800934
5.34073925018311
5.24536848068237
7.91573810577393
16.022216796875
22.6027698516846
17.6435127258301
5.91296100616455
2.47962880134583
6.86666440963745
12.4935140609741
19.1694374084473
26.9898052215576
30.5185089111328
24.1286964416504
15.35462474823
11.8259220123291
10.6814785003662
6.19907188415527
-3.43333220481873
-14.9731435775757
-15.2592544555664
-6.96203470230103
-13.0657367706299
-43.3935050964355
-87.6453399658203
-98.9944152832031
-80.3971939086914
-63.6120147705078
-4.38703584671021
99.948112487793
200.086975097656
312.433227539063
438.035980224609
510.708160400391
557.058166503906
624.008117675781
637.359985351563
542.37109375
349.627655029297
131.324951171875
23.5564746856689
28.2296199798584
-9.44166374206543
-112.632369995117
-186.067535400391
-223.548080444336
-222.403625488281
-179.963836669922
-153.450881958008
-152.401809692383
-149.254577636719
-154.404586791992
-176.149017333984
-201.422164916992
-222.785110473633
-227.458267211914
-204.760116577148
-177.579574584961
-156.788833618164
-131.038848876953
-117.49626159668
-120.548110961914
-124.362922668457
-139.336059570313
-157.933288574219
-153.450881958008
-134.090698242188
-112.155517578125
-83.1629333496094
-60.5601654052734
-55.1240577697754
-64.3749771118164
-77.7268295288086
-76.4870147705078
-71.5277557373047
-70.7647933959961
-56.3638725280762
-37.5759124755859
-19.360179901123
-1.52592539787292
-1.9074068069458
-12.8749961853027
-19.6462898254395
-28.8018417358398
-39.3879508972168
-43.5842437744141
-36.8129501342773
-23.4611034393311
-11.3490705490112
0.762962698936462
15.35462474823
29.3740653991699
31.7583236694336
24.7009181976318
16.2129573822021
11.5398111343384
16.4036979675293
22.125919342041
23.0796222686768
24.9870281219482
30.8046188354492
35.382396697998
35.8592491149902
37.0036926269531
36.5268402099609
29.278694152832
27.1805477142334
33.3796195983887
28.8972129821777
24.0333251953125
33.9518394470215
42.8212814331055
45.6823921203613
43.3935050964355
40.0555419921875
40.1509132385254
31.5675830841064
22.9842510223389
22.6981410980225
21.0768451690674
23.3657341003418
26.3222141265869
27.3712882995605
34.2379531860352
39.4833221435547
40.6277656555176
48.1620216369629
50.2601699829102
38.2435073852539
35.0962867736816
39.1018409729004
39.197208404541
44.1564674377441
41.8675804138184
32.5212860107422
31.0907306671143
30.70924949646
32.5212860107422
34.6194343566895
29.6601753234863
26.7990646362305
26.4175834655762
25.3685111999512
27.1805477142334
31.8536930084229
36.3360977172852
39.0064697265625
42.630542755127
36.2407302856445
24.2240657806396
24.4148063659668
24.6055469512939
21.6490669250488
27.2759170532227
33.4749908447266
35.0009155273438
42.2490615844727
51.3092422485352
54.9333152770996
52.2629470825195
43.1073951721191
37.2898025512695
38.9110984802246
42.1536903381348
46.8268356323242
51.404613494873
60.0833129882813
64.0888671875
59.0342407226563
62.7536849975586
63.6120147705078
56.8407211303711
54.7425765991211
49.783317565918
52.453685760498
62.1814613342285
58.7481307983398
55.6962776184082
61.6092376708984
60.9416465759277
51.9768333435059
41.5814666748047
36.6222114562988
42.630542755127
46.2546157836914
37.1944313049316
31.9490642547607
34.4286918640137
26.6083240509033
17.5481433868408
14.687032699585
6.38981294631958
2.28888821601868
3.24259161949158
-1.81203651428223
-2.8611102104187
4.48240613937378
11.4444408416748
10.8722190856934
1.81203651428223
-11.3490705490112
-20.6953639984131
-22.8888816833496
-25.9407329559326
-31.2814712524414
-30.995361328125
-26.5129547119141
-28.2296199798584
-30.6138782501221
-27.2759170532227
-34.810173034668
-45.6823921203613
-44.0610961914063
-42.7259140014648
-43.5842437744141
-48.734245300293
-53.8842430114746
-44.5379486083984
-34.7148017883301
-34.4286918640137
-35.6685066223145
-32.4259147644043
-33.8564720153809
-45.1101722717285
-52.2629470825195
-52.9305381774902
-55.5055389404297
-56.6499824523926
-52.453685760498
-44.5379486083984
-39.3879508972168
-38.8157272338867
-43.9657249450684
-50.355541229248
-44.9194297790527
-40.913875579834
-42.5351715087891
-32.3305435180664
-32.3305435180664
-49.9740562438965
-53.8842430114746
-47.5897979736328
-47.3990592956543
-53.7888717651367
-61.6092376708984
-58.8434982299805
-51.4999847412109
-45.6823921203613
-31.0907306671143
-24.3194370269775
-31.0907306671143
-32.3305435180664
-29.9462871551514
-27.7527694702148
-27.1805477142334
-32.5212860107422
-38.6249885559082
-39.4833221435547
-36.431468963623
-37.5759124755859
-38.6249885559082
-29.7555465698242
-22.8888816833496
-20.2185115814209
-15.7361059188843
-16.9759197235107
-20.5046234130859
-20.8861045837402
-28.8018417358398
-34.2379531860352
-25.8453617095947
-25.3685111999512
-34.2379531860352
-28.3249912261963
-16.1175880432129
-13.1611070632935
-10.5861072540283
-3.8148136138916
-4.1962947845459
-10.204626083374
-13.256477355957
-13.6379585266113
-9.15555286407471
-2.76573991775513
-2.95648050308228
-10.7768487930298
-20.5999927520752
-18.3111057281494
-8.0111083984375
-8.86944198608398
-10.6814785003662
-5.34073925018311
-1.33518481254578
5.53147983551025
4.38703584671021
-3.05185079574585
-4.67314672470093
-16.022216796875
-26.8944358825684
-24.7962875366211
-21.4583263397217
-12.0166625976563
1.33518481254578
3.05185079574585
0.190740674734116
9.25092315673828
16.7851791381836
11.7305517196655
6.1037015914917
6.58055353164673
7.82036781311035
7.53425693511963
9.34629344940186
4.48240613937378
-2.5749990940094
1.04907369613647
9.06018257141113
6.1037015914917
-2.09814739227295
-4.1962947845459
-6.58055353164673
-9.34629344940186
-11.7305517196655
-12.1120328903198
-7.34351634979248
-3.62407302856445
3.8148136138916
16.4990692138672
24.0333251953125
27.657398223877
26.9898052215576
19.7416610717773
11.0629596710205
8.3925895690918
9.82314491271973
8.48795986175537
10.2999963760376
16.1175880432129
17.2620315551758
14.9731435775757
14.5916624069214
16.7851791381836
16.7851791381836
6.48518323898315
-6.6759238243103
-17.9296245574951
-22.4120292663574
-16.4036979675293
-27.3712882995605
-59.2249794006348
-98.3268203735352
-124.744407653809
-107.577743530273
-83.2583084106445
-44.9194297790527
52.5490570068359
157.837905883789
252.349914550781
373.660980224609
465.121154785156
497.73779296875
550.954467773438
601.309997558594
556.676696777344
398.838775634766
182.920318603516
34.810173034668
11.8259220123291
-5.24536848068237
-100.138854980469
-195.604568481445
-248.248992919922
-260.074920654297
-223.071228027344
-181.108276367188
-166.135131835938
-162.606430053711
-162.987915039063
-170.140686035156
-188.356414794922
-209.719375610352
-220.11474609375
-207.621231079102
-177.579574584961
-150.017547607422
-121.215698242188
-98.899040222168
-102.046264648438
-114.34903717041
-125.984222412109
-136.379592895508
-132.946258544922
-116.924034118652
-98.6129302978516
-79.4434967041016
-61.1323890686035
-47.7805404663086
-39.6740608215332
-43.4888763427734
-56.4592399597168
-66.6638641357422
-69.8110885620117
-61.4184989929199
-48.3527641296387
-36.2407302856445
-18.2157344818115
5.34073925018311
20.7907333374023
16.5944385528564
9.82314491271973
6.58055353164673
-3.8148136138916
-2.1935179233551
12.2074031829834
14.4009208679199
10.1092557907104
10.5861072540283
13.9240694046021
21.5536975860596
21.2675857543945
11.9212923049927
13.9240694046021
16.022216796875
12.0166625976563
19.7416610717773
29.3740653991699
30.70924949646
33.1888771057129
31.8536930084229
24.2240657806396
25.7499923706055
30.2323970794678
32.3305435180664
45.2055397033691
53.4073905944824
48.8296127319336
52.1675758361816
55.3147964477539
49.0203552246094
53.5027618408203
61.5138702392578
61.2277565002441
66.6638641357422
72.0046081542969
65.137939453125
55.6009063720703
45.9685020446777
43.5842437744141
54.8379440307617
56.6499824523926
51.1185035705566
56.0777587890625
49.5925750732422
38.4342460632324
50.832389831543
56.5546112060547
43.2027626037598
43.679615020752
45.4916534423828
39.1018409729004
41.2953567504883
33.1888771057129
23.9379558563232
33.2842483520508
35.382396697998
24.6055469512939
17.8342533111572
17.2620315551758
21.5536975860596
27.943510055542
33.4749908447266
41.2953567504883
51.9768333435059
59.7972030639648
63.4212760925293
63.1351661682129
49.783317565918
33.6657295227051
32.7120246887207
40.4370231628418
43.679615020752
41.6768379211426
46.2546157836914
52.9305381774902
46.9222068786621
35.4777679443359
35.4777679443359
36.9083213806152
30.5185089111328
34.2379531860352
43.4888763427734
50.7370223999023
65.805534362793
68.9527587890625
58.5573883056641
56.7453536987305
53.9796104431152
38.0527648925781
25.177770614624
30.3277683258057
35.0009155273438
27.8481388092041
26.1314735412598
25.2731399536133
16.4990692138672
18.787956237793
28.3249912261963
19.8370304107666
8.0111083984375
11.0629596710205
15.0685138702393
13.6379585266113
9.537034034729
3.43333220481873
1.43055510520935
-1.04907369613647
-9.63240432739258
-17.9296245574951
-19.1694374084473
-15.1638841629028
-10.3953666687012
-6.38981294631958
-11.5398111343384
-19.1694374084473
-17.8342533111572
-17.5481433868408
-13.9240694046021
-13.3518476486206
-31.0907306671143
-37.2898025512695
-28.4203605651855
-29.0879535675049
-32.4259147644043
-34.4286918640137
-33.9518394470215
-37.6712837219238
-53.4073905944824
-60.6555366516113
-54.5518341064453
-50.6416511535645
-47.3990592956543
-37.2898025512695
-33.5703582763672
-43.679615020752
-45.2055397033691
-34.4286918640137
-31.7583236694336
-34.5240631103516
-28.6111011505127
-22.5074005126953
-23.8425846099854
-25.2731399536133
-21.2675857543945
-19.1694374084473
-20.6953639984131
-15.7361059188843
-19.7416610717773
-31.0907306671143
-28.2296199798584
-35.1916542053223
-52.9305381774902
-51.8814659118652
-43.0120239257813
-44.8240585327148
-45.3962821960449
-38.5296173095703
-37.0036926269531
-32.4259147644043
-20.8861045837402
-20.2185115814209
-26.9898052215576
-26.8944358825684
-22.6981410980225
-22.0305480957031
-25.5592517852783
-30.0416564941406
-34.6194343566895
-38.9110984802246
-42.2490615844727
-44.251838684082
-46.5407257080078
-44.9194297790527
-35.6685066223145
-30.1370277404785
-31.7583236694336
-25.2731399536133
-17.357400894165
-18.6925868988037
-14.0194396972656
-16.4036979675293
-30.3277683258057
-31.9490642547607
-36.9083213806152
-50.0694274902344
-48.734245300293
-37.6712837219238
-25.5592517852783
-21.3629570007324
-27.657398223877
-27.0851764678955
-24.6055469512939
-28.3249912261963
-26.3222141265869
-20.3138828277588
-15.2592544555664
-13.6379585266113
-17.738883972168
-19.2648086547852
-22.0305480957031
-24.0333251953125
-14.4962921142578
-11.0629596710205
-16.9759197235107
-10.5861072540283
-3.8148136138916
-8.3925895690918
-11.7305517196655
-9.72777462005615
-6.00833129882813
-2.00277709960938
2.67036962509155
4.86388731002808
0
-11.4444408416748
-29.3740653991699
-45.8731346130371
-39.7694320678711
-17.8342533111572
-16.1175880432129
-22.6027698516846
-6.38981294631958
14.7824029922485
15.7361059188843
10.7768487930298
12.588885307312
11.8259220123291
12.4935140609741
16.1175880432129
17.4527721405029
9.25092315673828
-1.23981440067291
4.57777643203735
8.3925895690918
-1.9074068069458
0.0953703373670578
14.2101802825928
15.5453653335571
5.53147983551025
2.8611102104187
-0.0953703373670578
-6.19907188415527
-2.38425850868225
-2.76573991775513
-13.256477355957
-9.44166374206543
5.1499981880188
7.0574049949646
1.14444410800934
-0.667592406272888
2.28888821601868
7.82036781311035
12.6842555999756
10.7768487930298
4.48240613937378
6.86666440963745
6.96203470230103
3.33796191215515
8.0111083984375
6.29444265365601
8.58333015441895
19.7416610717773
10.6814785003662
-2.8611102104187
-2.47962880134583
0.47685170173645
6.38981294631958
1.23981440067291
-21.6490669250488
-57.9851684570313
-96.9916381835938
-98.3268203735352
-76.9638671875
-62.8490524291992
-10.5861072540283
92.2231216430664
201.899002075195
317.011016845703
432.599853515625
498.119293212891
548.188720703125
624.198852539063
636.501647949219
517.574829101563
308.046203613281
125.221252441406
56.0777587890625
38.7203598022461
-29.3740653991699
-138.191619873047
-209.624008178711
-236.423065185547
-240.619369506836
-206.476791381836
-155.072174072266
-137.237915039063
-150.971252441406
-168.996246337891
-190.645309448242
-222.308258056641
-246.627700805664
-241.57307434082
-220.210113525391
-190.740676879883
-147.919403076172
-120.929588317871
-118.640701293945
-114.062927246094
-124.362922668457
-156.502731323242
-164.036987304688
-143.818466186523
-121.120330810547
-92.8907089233398
-63.5166473388672
-44.8240585327148
-33.3796195983887
-36.2407302856445
-50.7370223999023
-64.4703521728516
-71.5277557373047
-61.4184989929199
-46.1592445373535
-35.382396697998
-23.9379558563232
-12.7796258926392
-5.34073925018311
-6.38981294631958
-11.3490705490112
-17.738883972168
-26.0361022949219
-25.8453617095947
-16.022216796875
-8.96481227874756
0
16.30832862854
19.9324016571045
21.5536975860596
36.6222114562988
31.6629524230957
12.588885307312
17.1666603088379
28.9925842285156
28.8018417358398
27.7527694702148
29.7555465698242
28.9925842285156
25.8453617095947
23.3657341003418
25.7499923706055
34.0472106933594
35.4777679443359
34.9055442810059
43.2981338500977
43.4888763427734
39.197208404541
41.6768379211426
42.9166526794434
41.0092468261719
41.0092468261719
43.9657249450684
43.1073951721191
46.0638732910156
48.9249839782715
41.962947845459
42.0583190917969
49.1157264709473
47.5897979736328
45.3962821960449
49.9740562438965
48.066650390625
49.4018363952637
60.1786842346191
62.0860900878906
60.3694267272949
56.3638725280762
42.3444290161133
34.7148017883301
39.6740608215332
39.5786895751953
34.9055442810059
41.962947845459
53.7888717651367
51.1185035705566
39.0064697265625
33.5703582763672
34.4286918640137
33.9518394470215
33.4749908447266
40.1509132385254
53.6935005187988
61.6092376708984
62.6583137512207
66.2823867797852
61.7999801635742
51.1185035705566
49.1157264709473
46.3499870300293
43.9657249450684
39.7694320678711
35.5731353759766
49.6879463195801
57.9851684570313
51.404613494873
48.4481315612793
39.864803314209
26.1314735412598
24.3194370269775
33.761100769043
34.3333206176758
32.9981384277344
46.8268356323242
52.7397994995117
37.5759124755859
26.3222141265869
23.0796222686768
14.3055505752563
11.635181427002
20.5999927520752
24.6055469512939
23.9379558563232
26.5129547119141
27.3712882995605
29.9462871551514
28.8018417358398
14.0194396972656
-1.43055510520935
-7.6296272277832
-12.1120328903198
-14.1148099899292
-11.3490705490112
-10.8722190856934
-11.1583299636841
-12.3981437683105
-17.4527721405029
-15.5453653335571
-12.7796258926392
-21.6490669250488
-26.7990646362305
-22.6981410980225
-13.0657367706299
-9.537034034729
-16.2129573822021
-16.2129573822021
-9.72777462005615
-10.4907369613647
-23.5564746856689
-30.3277683258057
-27.7527694702148
-29.8509159088135
-29.5648059844971
-22.4120292663574
-15.5453653335571
-16.5944385528564
-25.177770614624
-28.4203605651855
-28.6111011505127
-31.5675830841064
-34.0472106933594
-39.7694320678711
-42.630542755127
-32.7120246887207
-19.5509204864502
-16.2129573822021
-18.6925868988037
-20.2185115814209
-20.6953639984131
-16.6898097991943
-11.9212923049927
-11.5398111343384
-14.9731435775757
-21.9351787567139
-27.5620288848877
-29.6601753234863
-36.6222114562988
