Value(bpm)
96.9085173501577
96.7609542281384
96.6208594926175
96.4951716833604
96.39076627102
96.3144814172287
96.2731533723206
96.2736615862139
96.3229838496051
96.4282620869062
96.5968797981597
96.8365526089983
97.1538846441212
97.5423951901229
97.9886340606185
98.4787989371933
98.9986392170156
99.5333400238191
100.067446626742
100.584833771172
101.068725202923
101.501866575007
101.875479800409
102.196746997082
102.474898847639
102.719511151703
102.940433658563
103.147735894017
103.351671495778
103.562662222482
103.791302440856
104.042697600618
104.301251065676
104.546302395149
104.756810089465
104.911446159548
104.988777720337
104.967536278305
104.826971550625
104.547281430366
104.115422931024
103.553928231039
102.898785659925
102.184996925962
101.446060725585
100.713729826207
100.017982607318
99.3871810452763
98.8483894173317
98.4278279653054
98.1413769783372
97.9750450465865
97.9102234577575
97.9291086459764
98.0143660228661
98.148863353597
98.3154671984086
98.4968994903686
98.6756538905396
98.8341476215177
98.9625081176802
99.0618166131232
99.1340293631452
99.1811616451912
99.2052770308809
99.2084773114095
99.1928931627162
99.1606756205967
99.1139884205134
99.0551638154114
98.9882847379634
98.918484952606
98.8508862457257
98.7905828086052
98.7426461736618
98.7121353560178
98.7041121711946
98.7236617546642
98.7759183864262
98.8641225616479
98.9829164489453
99.1245597416468
99.2812618366709
99.4451516336261
99.6082594719818
99.7625116066717
99.8997376373244
100.011691301977
100.090182375388
100.131444210933
100.13790483384
100.112520939383
100.058307884359
99.9783215038071
99.8756415890623
99.7533571494422
99.6145535405832
99.4623015072152
99.2997709530763
99.1312832821118
98.9617673856793
98.7960933402109
98.6390666748922
98.4954347150604
98.3698974707085
98.2671229568193
98.1917668855726
98.1484967408956
98.1402769703735
98.1617215716591
98.2049569405099
98.2621184338341
98.3253222006723
98.3866490982407
98.4381412896898
98.4718116695566
98.4796662426168
98.4537534359699
98.3896846067953
98.2912166182011
98.1632839938197
98.010830602101
97.8387829414899
97.6520284383776
97.4553987637512
97.2536580944588
97.0514961865462
96.8535049358265
96.6622941517747
96.477044701228
96.2966025127464
96.1198317452557
95.9456137214398
95.772846134817
95.6004425199435
95.4273319759011
95.252459133685
95.0747927579195
94.895409893702
94.7201890111803
94.5555987117899
94.4080222296476
94.2837765461122
94.1891398654192
94.1303873623253
94.1138352910321
94.1458937700329
94.2331288343558
94.37901861291
94.5739726183838
94.8050653364117
95.0592170658116
95.3231100173361
95.5831403639176
95.8254080114068
96.0357462216403
96.1997931195165
96.3031066335958
96.3358929838705
96.3052504464836
96.2223094960668
96.098321278668
95.94454936244
95.7721876488002
95.5923047737878
95.415814657483
95.2534724483856
95.1158949525956
95.0114078448656
94.9377320924245
94.889477340286
94.861321169888
94.847984255189
94.844210936387
94.8447557067688
94.8443755331279
94.8378279796009
94.8198751269895
94.7859295215268
94.7359434605199
94.6718361217927
94.5955381033525
94.5089782899302
94.4140793331729
94.3127539250695
94.2069018619745
94.0984078909541
93.989140325907
93.8810299816354
93.777207774942
93.6817287050494
93.5986432304735
93.5319808006368
93.4857623773729
93.4640164007637
93.4707982491376
93.5102133075813
93.5864438377045
93.703682505851
93.8608151529924
94.0485667312226
94.2568975550389
94.4756236329561
94.6943820893866
94.9026187073972
95.0895986291036
95.2444412662156
95.3561802646143
95.4139215478128
95.4134567137009
95.36249385958
95.2700944445295
95.1453757587329
94.9974409961072
94.8353267677782
94.6679681122741
94.5041807100385
94.3526598024206
94.2219934118303
94.1177991564496
94.0369338606705
93.9746666210072
93.9263173307954
93.8872404907417
93.8528137291456
93.8184309325562
93.7794999259225
93.7314446603912
93.6697118672791
93.5904323364141
93.4939553644979
93.3822964654584
93.2574728659434
93.1214933811994
92.976353310886
92.8240302169701
92.6664805738568
92.5056372742278
92.3434079689877
92.181667246606
92.0220450389488
91.8658923687928
91.7145276517693
91.5692528316031
91.4313550111741
91.3021084341035
91.1827768088016
91.0746159694992
90.9788768717339
90.8968089230772
90.8290297504744
90.7724687314868
90.72274355776
90.6754939708951
90.6263791102257
90.5710771912497
90.5052893153969
90.4247473541191
90.3252258271611
90.2025576560477
90.0526706897799
89.8744655500884
89.6729692917963
89.4539321637124
89.2230221249315
88.985807024566
88.7477440265355
88.5141759592191
88.2903342359636
88.0813479939476
87.8922591323524
87.7280161857756
87.5911079373284
87.4797331594745
87.3917095987505
87.3249110637832
87.2772567061162
87.2467014796286
87.231227693635
87.2288375933606
87.2375469174672
87.2553793959805
87.2803588896226
87.3102123350146
87.3421333116535
87.373253153177
87.4006951362408
87.4215759491429
87.433009062564
87.4321100072147
87.416003551205
87.3818327527263
87.326769841309
87.2480603873425
87.1458540806824
87.0254033573743
86.8924537274174
86.752696561684
86.6117567424779
86.4751877560304
86.3484740010723
86.2370400817951
86.1462668857243
86.0815143151693
86.0481477509201
86.0494797177933
86.0831028173385
86.1456841733556
86.2339345259018
86.3445871255325
86.4743792273558
86.6200360756283
86.7782573252596
86.945705894089
87.118999279656
87.2947040275042
87.4697835795646
87.6424062067667
87.8109272113978
87.9736779030448
88.1289673444374
88.2750847611027
88.4103026327411
88.532880479886
88.6410693538705
88.7331170313818
88.8072909427805
88.863063286397
88.9018875294156
88.9254248756147
88.9353571186193
88.9333811638935
88.9212041570754
88.9005392424729
88.8731019683061
88.840607348995
88.8047675895238
88.7672745208526
88.7294480721728
88.692237475345
88.6565728865409
88.6233815814839
88.5935883791405
88.5681162578837
88.5478871632879
88.5338230073404
88.5268468596451
88.5278843321535
88.5376802795601
88.5547516604013
88.5761350163785
88.5988365822149
88.6198569446507
88.6361911626837
88.6448309236359
88.6427687411074
88.6270041918274
88.5945521735667
88.5424531457207
88.4684019994352
88.3745096191668
88.264784553599
88.1432241414805
88.0137945928157
87.8804223120477
87.7469888051713
87.6173290790378
87.4952334291487
87.3844525131234
87.2887056200624
87.211354188463
87.1533597130799
87.1146670914819
87.0952427110754
87.0950785169509
87.1141920047758
87.1526262985023
87.2104503134319
87.2877590057126
87.3846737098846
87.5013425666551
87.6378109509414
87.7933102812127
87.966750780681
88.1570453280269
88.3631056712752
88.5838380794538
88.8181392450891
89.0648924315068
89.3229638631845
89.5911993614494
89.868419079355
90.1525477111728
90.4392500160967
90.7237343202876
91.0010882318745
91.2662827813648
91.5141821418084
91.739559229438
91.9371174290406
92.1015186016576
92.2274174140559
92.31030381379
92.3527356849487
92.3609899589334
92.3414639852453
92.3006029857034
92.2448658469926
92.1806998644147
92.1145245243596
92.0527242915127
92.0016502983375
91.9675757065437
91.9529084345691
91.953746594545
91.965619847489
91.9840637640159
92.0046112711482
92.0227884359683
92.0341145931678
92.0341068318996
92.0182888479069
91.982204139642
91.9228902936354
91.845925069138
91.7599428321248
91.6735282591952
91.59520336936
91.5334347586481
91.4966565145961
91.4933086583273
91.531891200283
91.621034255639
91.7693345237874
91.9762706190672
92.2294068732597
92.5153950550027
92.8206363689173
93.1312016339918
93.4327914550561
93.7107390321075
93.9500585182633
94.1355415311405
94.2519498696488
94.2920087158874
94.2653654668461
94.1840681355735
94.0603028966189
93.9062694306754
93.7340876208156
93.555735981768
93.3830213674822
93.2275790113986
93.1009017979673
93.0120184052927
92.9573525633701
92.9292598138582
92.9201667978907
92.9225367594197
92.9288448274756
92.9315655400983
92.9231725605274
92.8961505796932
92.843019359566
92.756867919872
92.6395606605373
92.5003451782645
92.3486337323022
92.1937339448379
92.0448334625099
91.9110031965864
91.8012185401859
91.7243980653438
91.6894594515472
91.7053899046242
91.7767686328922
91.894521768853
92.0470192384138
92.2225730455915
92.4093627654162
92.5953906190013
92.7684670149462
92.9162277695386
93.0261842099252
93.0858069953688
93.0844527854507
93.0258793333684
92.9207309180232
92.7797595813138
92.6136910684706
92.4331553682871
92.2486421584173
92.0704806273043
91.9088428384292
91.7737697281414
91.6751368854746
91.6170600841816
91.5943201428226
91.6009256307613
91.6309465198568
91.6784799813384
91.7376239464113
91.8024582854432
91.8670335834693
91.9253675712735
91.9714493116429
92.0003129934744
92.0131982595544
92.0136085839604
92.0050629817693
91.9910847221784
91.9751958216929
91.9609142345305
91.9517537376227
91.9512265028852
91.9628483533834
91.990045685306
92.0330841170125
92.0884949179979
92.1525891460154
92.2216637558906
92.2919960643751
92.3598411922994
92.4214325259702
92.4729852434211
92.5107029444088
92.5307876027542
92.5304196406745
92.5100132913471
92.4706726875603
92.4135224248438
92.3397031465583
92.2503673593375
92.1466755000035
92.0297922710519
91.9008832579577
91.7611118379196
91.6116384391284
91.4536473482076
91.2883371497834
91.1168946057444
90.9404923470215
90.760287543516
90.5774208840204
90.3930158564704
90.2081783180143
90.0239963438668
89.8415403436972
89.6621887069595
89.4890174984332
89.3256228144097
89.1755528601763
89.0423170731657
88.9293983106694
88.8402677054209
88.7784021988395
88.7473048153497
88.7505278040959
88.7916973893665
88.8722305891534
88.9866348450473
89.128118956244
89.2898619854709
89.4649763615807
89.646481313817
89.8272868790083
90.0001888639972
90.1578752178961
90.2929442673
90.3981308958282
90.4714007614089
90.5164696226184
90.5374121202549
90.5383539177644
90.5234515752028
90.496876101999
90.4628002959034
90.4253899196135
90.3887987250834
90.3571673088492
90.3342107294012
90.3209705550223
90.3174358098627
90.3235991441222
90.3394594565872
90.3650218901321
90.4002978372761
90.4453049558075
90.5000671945181
90.5646148291216
90.6389883770167
90.7237037824226
90.82020018975
90.9300422489424
91.0548201483575
91.1961545312554
91.3557020535947
91.5351616285302
91.7362814124607
91.9608665984267
92.2107880953606
92.4871003766692
92.7851449094943
93.0978676250303
93.4180302297245
93.7381968873239
94.0507266085298
94.3477778106237
94.6213259003303
94.8631946659799
95.0651020995413
95.2196450466885
95.3275184311545
95.3937221442522
95.4234385513823
95.4219556860096
95.394629677801
95.346852767255
95.2840272133568
95.2115452650773
95.1347752585554
95.0586604499915
94.9833700160749
94.905931104771
94.8233341942144
94.7325919934813
94.6307435928424
94.5148604441325
94.3820541126817
94.2294857247071
94.0543770124724
93.8542029765274
93.6321644565012
93.3980492127331
93.1618471839755
92.9333520011123
92.7221680204377
92.5377373332959
92.389385867509
92.2863880170993
92.2380497123772
92.253810346568
92.3388580929488
92.4822467815072
92.669379811739
92.8855753646968
93.1159489417538
93.3453422323483
93.5583000055842
93.7390973753136
93.871819775775
93.9404972462476
93.9316525624237
93.8488844652084
93.7033411677646
93.5063479894967
93.2692426897864
93.0032669519855
92.7194856192014
92.4287333365635
92.1415875903524
91.8683667492811
91.619058623527
91.3983020791946
91.2029476512649
91.0293017026541
90.8737577820798
90.7327808460901
90.6028944962992
90.4806710642067
90.3627244139278
90.2457053613262
90.1262996272211
90.0017230359149
89.8745461065826
89.7505500804917
89.6354992148011
89.5351021826881
89.4550273255283
89.4009250354277
89.3784572434402
89.3933341272042
89.4513583291156
89.5584771962166
89.7181015727983
89.9217614222383
90.1576343433883
90.4137308063309
90.6778222805114
90.9374010509464
91.1796735327383
91.3915890889465
91.5599062446554
91.6712976372773
91.7129967237494
91.6840286660868
91.5952757111593
91.4583007888142
91.2847102886632
91.0860479051852
90.8737180463168
90.6589385858685
90.452722092095
90.2658843277816
90.1090787732275
89.9915554283264
89.9141977128954
89.8746811825964
89.8707801070583
89.9003577308056
89.9613498440135
90.0517497441433
90.1695944229386
90.3129518439004
90.4799092021997
90.6685587763344
90.8765892515871
91.1008859708488
91.3381984498262
91.5852182346182
91.8385700933613
92.0948055470972
92.3503988677257
92.6017456887589
92.8451643847875
93.0769003772055
93.2936376289102
93.4944574431679
93.6791832424524
93.8476549435582
93.9997291993392
94.1352797468283
94.2541977114286
94.3563918657489
94.4417888418766
94.5103332961089
94.5623918678719
94.6015242584187
94.6328148370071
94.6613765155687
94.6923361955081
94.7308346025717
94.7820316966783
94.8511177110844
94.9433299130447
95.0639752424103
95.217703679739
95.4011052812708
95.6057612363678
95.8230698682808
96.0442858769134
96.2605043375973
96.4626608653134
96.6415487073515
96.7878534649983
96.8922059427127
96.9467770166235
96.9558081936102
96.9293298188614
96.8774784786958
96.8104000688746
96.7382074116938
96.6709591048273
96.6186594184589
96.5912789645092
96.5987959515978
96.6495781030297
96.7412998981305
96.867425649502
97.0214229169109
97.1967305091306
97.3867245697326
97.5846934282781
97.7838214106366
97.9771819231711
98.1577405342664
98.3200365494948
98.464110727778
98.5911802171905
98.7024945709997
98.7993315367917
98.8829931002059
98.9548018112205
99.0160974169939
99.0682338215119
99.1125587226417
99.1496280684278
99.1788910295308
99.199717098534
99.211478830212
99.2135529429568
99.2053214932773
99.186173120062
99.1555043546804
99.1127209923657
99.0572262480749
98.9882926027412
98.9051202062141
98.8069254343804
98.6929444954028
98.5624358632077
98.4146827711011
98.2489957492681
98.0647151886614
97.8612139126209
97.6390900697666
97.4058733198132
97.1714569091065
96.9455516912779
96.7376909616989
96.5572576163059
96.4135293711592
96.3157415672411
96.2731675267355
96.2952170087634
96.3884440258142
96.5431915323695
96.7444439695565
96.9770939135263
97.2258215106484
97.4750174115762
97.7087543785979
97.9108100269796
98.0647432176969
98.1540340140169
98.1681125425719
98.1128532120976
97.9971724103389
97.8301500945612
97.6209277936949
97.3786229751814
97.1122605228167
96.8307214758131
96.5427087169139
96.2567229460536
95.9786622796616
95.708253726803
95.444299014427
95.1856272895235
94.9310935433743
94.6795773377237
94.4299818163222
94.1812329865861
93.932279257111
93.6820912174902
93.4303290978308
93.1801839172078
92.935936975309
92.7017816336763
92.4818304011446
92.2801263437317
92.1006579232227
91.9473771614908
91.824221088866
91.7351365073763
91.6839459025093
91.6694356600134
91.6844700905399
91.7216264123561
91.7734981405235
91.8326652590981
91.8916763602775
91.9430428034675
91.9792450280404
91.9927511520896
91.9760479041916
91.9238567041811
91.8396727631455
91.7292018199156
91.5981481181384
91.4521856548986
91.2969365720627
91.1379566283452
90.9807275973117
90.8306563807723
90.6930806067458
90.5731956074569
90.4729836124641
90.3903832177231
90.3231059949435
90.2688939135513
90.225512266386
90.1907437644602
90.1623837619131
90.1382365834928
90.1161129356695
90.0938283889397
90.0696905400137
90.0462524545043
90.0282451791727
90.0204115491113
90.0274963456399
90.0542595312214
90.1054945469774
90.1860517982983
90.300867548124
90.4549985574867
90.6536526039108
90.8980677356357
91.179018576287
91.4854831376456
91.8061886185687
92.1295594956429
92.4436934768077
92.736367349678
92.9950748786842
93.207098687687
93.3596174664786
93.4424144772485
93.4604754344959
93.4244990625058
93.3453730782633
93.2340539623407
93.1014791570815
92.958504960874
92.8158701204532
92.68418464177
92.5739431106015
92.4952740916892
92.4516771381301
92.4401022304487
92.4572857135218
92.500017078714
92.5651200422965
92.6494359767898
92.7498095795446
92.8630767080318
92.9860543496151
93.1155357026799
93.2490280166632
93.3857413095263
93.5251212245517
93.6666070767262
93.809631538127
93.9536203890715
94.0979923371283
94.2421589062077
94.3855243980396
94.5274859186851
94.6670832676008
94.8020659616238
94.9298670979504
95.0478950808795
95.1535381350136
95.2441702738808
95.3171587371581
95.3698728942735
95.3996945933289
95.4040299121711
95.381285291679
95.3341412505793
95.2664669114507
95.1821398630713
95.0850311177892
94.9789932644206
94.8678517878776
94.7553995242505
94.6453941961297
94.5415589597065
94.4471896448941
94.362751270817
94.2874977830193
94.2206884365298
94.1615913010365
94.1094820134568
94.0636426523225
94.0233607298001
93.9879282978715
93.9566411658158
93.9287904716318
93.9035509909915
93.8800068083812
93.8572416264725
93.8343410089813
93.8103923167907
93.7844848218668
93.7557099979945
93.7231619871944
93.685938240376
93.6431335858665
93.5934724806386
93.5351221316751
93.4662164418692
93.3849068199904
93.2893667273006
93.1777969016368
93.048431221454
92.8995431636045
92.7294527992217
92.5365342621865
92.320343952037
92.085381793788
91.8374249578331
91.5821455677541
91.3250989778846
91.0717190862676
90.8273202761014
90.5971056133388
90.3861809568471
90.1995746949181
90.0422174273392
89.9158398028809
89.8170133840003
89.741911995662
89.6867759643653
89.6478938842387
89.6215876592504
89.6042006846259
89.5920890775187
89.5816159026343
89.5691483634966
89.5512853524826
89.5281190130494
89.5024700156289
89.4772262020355
89.4552690488396
89.4394748597878
89.4327178084902
89.4378748282832
89.4578323568912
89.4954949592593
89.5537958728348
89.6352415827946
89.7396507318941
89.8658807846707
90.0128067713597
90.1793170571471
90.3643080707011
90.5666793276106
90.7853287281293
91.0191481138159
91.2670190725159
91.5277681466654
91.7983421392246
92.0730223449931
92.345760816306
92.6103659133253
92.8605080411247
93.0897340509386
93.2914907360901
93.4591577470721
93.5860900872974
93.6656745798921
93.6946149427538
93.678680430102
93.6252982351014
93.5419645860433
93.4361910945174
93.315463024327
93.1872096508234
93.058786641134
92.9374702281771
92.8304628744306
92.7441006396537
92.6783468226371
92.6301971065764
92.5966641624325
92.574785082859
92.5616129847656
92.5542105300197
92.5496453311638
92.5449872238686
92.5373073976172
92.5237126733733
92.502562098002
92.4738135888104
92.4375326586701
92.3937883456914
92.3426531085881
92.2842027189418
92.2185161506257
92.1456754666452
92.0657657036588
91.9788747544389
91.8857045559015
91.7896343875424
91.6947509857974
91.6051076498701
91.5247271419737
91.4576081401886
91.4077351696085
91.3790919882989
91.3756784474553
91.4015309007705
91.4605687963563
91.5520383595894
91.6700711765745
91.8085305070947
91.9612374382952
92.1219471135845
92.2843332238234
92.4419809909369
92.5883889403026
92.7169797752644
92.8211234218561
92.8961902255782
92.9431741037018
92.9640857132602
92.9609857413896
92.9359737684298
92.8911779093167
92.8287453135624
92.7508335858958
92.6596031726233
92.5572107432653
92.4457456596977
92.3267810450818
92.2016203057504
92.0715539176844
91.9378600826507
91.8018036011217
91.6646351040921
91.5275906343629
91.3918915672374
91.2587448603455
91.1293395460577
91.0041649403925
90.8822555311095
90.7624725407545
90.6436894381791
90.5247915120434
90.4046757230262
90.2822508271291
90.1564377625138
90.0261702920969
89.8903958936518
89.748213327832
89.6014482493319
89.4543967628342
89.3113922598848
89.1767134332649
89.0545904262306
88.9492149699395
88.8647544202726
88.8053696536711
88.7752368449545
88.7785732286872
88.8188549012556
88.8917869898171
88.9887020189742
89.100856981369
89.2194430667376
89.3355639400192
89.4402315267935
89.5243797582353
89.5788966891571
89.5946752092868
89.5626822157434
89.4774260672449
89.3471156565192
89.183378568222
88.9977709505303
88.8017070873365
88.6064190077544
88.422945201965
88.2621472431575
88.1347531511816
88.0514266517295
88.0228598290063
88.0563477982311
88.1486886861988
88.2948636851927
88.4899949544282
88.7292869254674
89.0079735831088
89.3212711107894
89.6643355259321
90.0322251391268
90.41986785692
90.8220598294348
91.2340285349941
91.6514442558928
92.0698432411888
92.484596646542
92.8909100434649
93.283827848556
93.6582431045922
94.0089130204738
94.3304806251611
94.6175611330886
94.8679872341441
95.0845876522391
95.2707395998029
95.4299422622866
95.5657955165405
95.6819808519504
95.7822447595334
95.8703847997505
95.9502385116236
96.0256722985622
96.100412596897
96.1779578150896
96.2618084090151
96.3554909940955
96.4625643025827
96.5866277996611
96.7313330458715
96.9003979251353
97.0976238990697
97.3266704825902
97.5847004955516
97.8616427466133
98.1468579989714
98.4294640753706
98.6983278941146
98.9420822956791
99.14916904524
99.3079091206817
99.4066008517847
99.4354714637758
99.3979493587626
99.3033229554757
99.1610524815885
98.9806488757148
98.7715927887141
98.5432718748839
98.3049364169699
98.0656729039629
97.8343949044586
97.6162385430774
97.4018692234661
97.1785387431703
96.9337358657594
96.6552240587261
96.3311097694356
95.9499388339738
95.5008177975053
94.9735558963478
94.3588222980392
93.6518163372941
92.873155942543
92.0530848979352
91.2201169598663
90.4008651750756
89.6200840233873
88.9008524750558
88.264873280539
87.7328699219958
87.325070540628
87.0617773982944
86.9601446042124
87.0082539995442
87.1812795716683
87.4551463546125
87.8059793832274
88.2096035752415
88.641172398523
89.0749278935097
89.4841019290963
89.8409728349512
90.1171063981009
90.2940230016724
90.3819882780032
90.3967981274772
90.3546827799281
90.2720735439599
90.1654263524007
90.0511047648986
89.9453228630927
89.8641471485239
89.8235561366115
89.8391503192551
89.913913125962
90.0359443523246
90.1925194912212
90.3708363955768
90.5579341551945
90.7406482672697
90.9056033070487
91.0392446295755
91.1279104915298
91.1579453415736
91.1180764173307
91.009124703375
90.8360935457565
90.6042018483764
90.3188138544311
89.9853760473393
89.6093596523143
89.1962094037639
88.7512989829055
88.2798932959853
87.7871175621322
87.2783365976678
86.7604661202503
86.2405992672765
85.7255042470512
85.221631180755
84.7351288379001
84.2718700446381
83.8374847152858
83.4373996544881
83.0768845048148
82.7611034662324
82.4951247386323
82.2813740439138
82.1184100486146
82.0046650217669
81.938763241364
81.9195058511811
81.9458576628882
82.0169356622489
82.1319990146501
82.2904403958044
82.4917784992543
82.7356515941261
83.0216408453368
83.347929765397
83.7119672162922
84.1111911217353
84.5430089837101
85.0047734003247
85.4937588002231
86.0071393782311
86.5419682811881
87.0951581563899
87.6634632380241
88.2436530750725
88.8336850813175
89.4319997305723
90.0369497160071
90.646793166079
91.2596896984044
91.8736971065352
92.4867687863181
93.0967520166113
93.7013872160344
94.2982086242495
94.8830925096029
95.4505076598022
95.9946617186706
96.5095532843353
96.9890004441075
97.4266777438508
97.8161618993567
98.1509863410561
98.4247044165564
98.6325944673291
98.7806651729934
98.8794231082142
98.9396443648739
98.9722682628062
98.9883242021779
98.9988824709571
99.015029588088
99.047868418554
99.1085312573137
99.2034480695649
99.3270244164771
99.4717742042777
99.6301570308693
99.7945513521303
99.9572390493124
100.110401724493
100.246129114787
100.356440002612
100.433653863322
100.47528868382
100.482987775589
100.458574922241
100.403934293257
100.320998836197
100.211739171871
100.078153086179
99.9222556960692
99.7460703512299
99.5527327818277
99.3502198862344
99.147721205549
98.9542793816054
98.7787990681575
98.6300719473562
98.5168172840393
98.4477377371378
98.4315905088068
98.4772325985773
98.5866902712049
98.747218086382
98.9441681825443
99.1627605513366
99.3879946573626
99.6046052326421
99.7970640239209
99.9496295552453
100.046446644738
100.072610859547
100.025850484209
99.9131316391224
99.7418346930566
99.5194665375981
99.2535801777224
98.9517052549754
98.6212900720347
98.2696552897808
97.903959142899
97.5309832875739
97.1559737112905
96.7834438663865
96.4177681037733
96.0631895417283
95.7238292747435
95.4036989991114
95.106716816851
94.836726033507
94.5975168282483
94.3922154632461
94.2163124275797
94.0603678224934
93.9150082289997
93.7709875161783
93.6191746108568
93.4505592755944
93.2562752729237
93.0276401818202
92.7562108879097
92.433946758306
92.0615790881966
91.65482091112
91.2304829280372
90.8048161953803
90.3934848542732
90.0115948361527
89.6737734650628
89.3942957225688
89.18725442357
89.0667735947858
89.046609552949
89.1259619649363
89.289492310334
89.5215097081863
89.8063549411652
90.1281824808292
90.4707965028616
90.8175420556491
91.1512546262888
91.4542726159795
91.7085177152029
91.9001359361175
92.0316728509484
92.1096928464279
92.1410113444853
92.1326201717856
92.0916218910855
92.0251741581955
91.9404447895102
91.8445779028248
91.7446712384366
91.6475388674505
91.5560106491303
91.469565712452
91.3875831434696
91.3094477599852
91.2345495477116
91.1622831818154
91.0920476318322
91.0232458481998
90.9552845288547
90.887573964497
90.8202527928647
90.7563540125193
90.6996169614965
90.653764727021
90.6225115945596
90.609573533348
90.6186817350692
90.6535992638787
90.7181409285116
90.8161965516526
90.951580161032
91.122620946957
91.3210669857705
91.5381962249263
91.7651478608507
91.9928936278619
92.212226314176
92.4137663775443
92.5879875605828
92.7252622756741
92.8159295643895
92.8540810886257
92.8451575079042
92.7968590828871
92.7169685274016
92.6132918101009
92.4936118917957
92.365655626264
92.2370737734772
92.1154338884074
92.0082257551253
91.9223605404613
91.8584686229453
91.8130636597166
91.7826238668071
91.7636538652815
91.7526746201589
91.7462160626381
91.7408123571999
91.7329997944834
91.7193173017097
91.6963141264306
91.6616906427435
91.6157929563354
91.5593444019222
91.4930724913597
91.4177073217954
91.3339800954121
91.2426217539323
91.1443617301116
91.0399268175844
90.9300401596344
90.8156400995374
90.7006329612857
90.5910254879993
90.4928147617942
90.4119519156465
90.354361230125
90.3259669567676
90.332727921128
90.3806801286291
90.4759878123555
90.6250035347732
90.8309186333575
91.0846552505425
91.3742241667355
91.6874243492815
92.0117601355243
92.3343907086973
92.6421139939185
92.9213875158847
93.1583887606792
93.3391171154518
93.4511570990166
93.4963503237401
93.4840987316611
93.4240911824192
93.3261349208259
93.2000661863672
93.0556812235298
92.9026880664773
92.7506789566198
92.609122920529
92.4872499217724
92.3884266382049
92.3080088564785
92.2408207359722
92.1817310404128
92.1256412353666
92.0674793055582
92.0021991974052
91.9247858080866
91.8302654325271
91.7137215446799
91.5715893861373
91.4071231316698
91.225785123719
91.0329783959309
90.8340290097334
90.6341762514194
90.4385690446421
90.2522683168423
90.0802550572167
89.9274438304538
89.7986926704931
89.6973371454246
89.6235589710156
89.5771851388123
89.558093289232
89.5662110935905
89.6015158666925
89.664034406432
89.7538430587943
89.8710680085711
90.0158857980184
90.188387263716
90.3863172213777
90.6053780459777
90.8411531190889
91.0891516655728
91.3447936385287
91.6033989549742
91.8601813153112
92.1102468784845
92.3485980840236
92.5701503976412
92.7716203240706
92.9540567283895
93.1191691832295
93.2687148319348
93.4044921506356
93.528335281922
93.6421089944021
93.7477043141528
93.8470348665829
93.942033960704
94.0346485984175
94.1268250117973
94.2205202482557
94.3177070527097
94.4203749563108
94.5305322077495
94.6502085684511
94.7814589971684
94.9263682554412
95.0870564731258
95.2649116966132
95.4568202502156
95.6579810065317
95.8635153719506
96.0684621343224
96.2677750688921
96.4563257759094
96.628911975869
96.7802714651542
96.9051018860183
96.9999141882469
97.0692863745531
97.1200789107286
97.1592090146231
97.1936290756122
97.2303149653403
97.2762643107538
97.3385048216129
97.4241127848834
97.5402372618918
97.6907564247279
97.8702675311069
98.0717287154855
98.2880154866149
98.5118931916916
98.735999753942
98.952839108953
99.1547858430242
99.3341015468407
99.483153537047
99.5993692744733
99.6857612015452
99.745699812618
99.7826184356638
99.7999961295581
99.8013428131802
99.790186747362
99.7700644510362
99.7445130997369
99.7167149482182
99.6875921287938
99.6571728219965
99.6254830246478
99.5925487703716
99.5583961232221
99.5230511714427
99.4865400213556
99.4488887913843
99.4101175890758
99.3687432645784
99.3198173136318
99.2579250514746
99.1776867745793
99.0737747122049
98.9409355997771
98.774018616916
98.5680083222843
98.3180620879003
98.0198020094806
97.6784277022761
97.3109618311009
96.9347644582124
96.5666884631919
96.2230829487178
95.9198529339369
95.6725713328945
95.4966404642457
95.4075022505943
95.4206440005064
95.5379270088726
95.7403470681201
96.0073071965456
96.3180619292466
96.6514772489134
96.9858795132146
97.2989978019446
97.5680061116132
97.7696720361902
97.8814913527279
97.8986335644132
97.8328550424496
97.6969108783249
97.5037576623154
97.2663870983626
96.9976935710914
96.7103765748908
96.4168776459313
96.1293505612633
95.8592983623882
95.6107391827135
95.3809898377604
95.1671913725974
94.9665505209111
94.7763310455556
94.5938468028736
94.4164564374476
94.241559629371
94.0665948274134
93.889047028095
93.707041308542
93.5197155106693
93.3263142281954
93.1260975558817
92.9183420664525
92.7023418832903
92.4774098403349
92.2428787199987
91.9981025592795
91.7424580136208
91.4760951794624
91.2039645407053
90.9327928640843
90.6691540875004
90.4194717840612
90.1900355223644
89.9870258380499
89.8165474452457
89.6846704887252
89.5974798535112
89.5611279561409
89.5783861000315
89.6424763627282
89.7450726094423
89.8778866180101
90.0326038713717
90.20083461353
90.3740801818214
90.543714952988
90.7009844470999
90.8370202164072
90.9434165126444
91.0212454744306
91.079728287066
91.1284257805403
91.1769523723018
91.2349656438296
91.3121762942833
91.4183787669726
91.5635030272155
91.7576883443731
92.011372285344
92.3294164784768
92.7003304111982
93.1095476966552
93.5420809676988
93.9824154910253
94.4144508573381
94.8214954297297
95.1863187644672
95.491266951606
95.7184487605794
95.8565582089991
95.9145535872994
95.9056289851603
95.8432895775725
95.7411826036873
95.6129654158448
95.4722122197903
95.3323597902563
95.2066915682783
95.1083591331269
95.0473141040352
95.0210320664089
95.0239494760688
95.0505627181034
95.0953974379717
95.15298433694
95.2178412922133
95.2844617643026
95.3473095255947
95.4008197850996
95.4411608628097
95.4729691881323
95.5034549493943
95.5398489075059
95.5894053737586
95.6594167193934
95.7572390509947
95.8903293344537
96.0662944546457
96.2929529835774
96.5748028906996
96.9006565012414
97.2547368630124
97.6208611366627
97.9823691905771
98.3221067158555
98.6224672512711
98.8654972538513
99.0330672957844
99.1072170259695
99.0799993317831
98.9612373966828
98.7629728758318
98.497484458142
98.1771100757501
97.8140989307762
97.420494717424
97.008050054146
96.5881711071464
96.1718681460858
95.7682116462426
95.3834249439304
95.023307571877
94.6935063555292
94.3995506686293
94.1468936761034
93.940959484857
93.7871963432318
93.6911362786818
93.6584609153238
93.6905020161434
93.7736478438697
93.8912316819529
94.0265243963741
94.1626407681217
94.2825056528192
94.368881451399
94.4044584278001
94.3720085119613
94.2546013563425
94.0395365201686
93.7361271905021
93.3616211148872
92.9331420325163
92.4674599079923
91.9808359842335
91.4889292932901
91.0067601869015
90.5487255886271
90.1286606159767
89.7599222772972
89.450693990803
89.1979598676604
88.9974064033024
88.8449767261692
88.7368263984823
88.6692844299212
88.638818765168
88.6420056549351
88.6755024436123
88.7360234102776
88.8202987392318
88.9241830938978
89.04228044204
89.1690625070722
89.2989450957214
89.4262804919716
89.5453568942344
89.6504051036004
89.7356126555847
89.795145532409
89.8231774960878
89.8144920788724
89.7700493042267
89.6946021381978
89.5929960670697
89.4700854591942
89.3307082023694
89.1796656294373
89.0217077271213
88.8615235448251
88.703736666077
88.552905574839
88.4133602464249
88.2883010726968
88.1804765389929
88.0926244207729
88.0274846331645
87.9878127171221
87.9763951024721
87.9960662531412
88.0497278441155
88.1403701707855
88.2710960507006
88.4433698635576
88.6509428100428
88.8853725580561
89.1380917483326
89.4003628673438
89.663249404021
89.9176042254258
90.1540762253762
90.3631363317852
90.5351238267415
90.6604483865798
90.7356585673814
90.7659306344937
90.7572251503093
90.7156095794172
90.6472103289817
90.5581726352367
90.4546286453634
90.3426738412865
90.2283517948183
90.1176471339825
90.0161852897704
89.9266362255591
89.8500281995069
89.7873747062942
89.7396956679145
89.7080207790883
89.6933931110833
89.6968729908928
89.7195421765578
89.7625083536663
89.8269099655178
89.9132995844081
90.01999480175
90.1448073232442
90.2855472626389
90.44001464169
90.6059919317936
90.7812376358205
90.9634809231132
91.1504173430086
91.3397056526079
91.5289587049152
91.7156074701545
91.896909857051
92.0700773458485
92.2322837060886
92.3806706218745
92.5123551260717
92.6244388725495
92.7140192539797
92.7782023461736
92.814127099729
92.8213407173109
92.8049140656888
92.7707226019038
92.7246501408406
92.6725701008499
92.6203342113959
92.5737686510054
92.5386775436212
92.520853740578
92.5260968531445
92.5593648181405
92.6194623013972
92.7025424248698
92.8047578273962
92.922253710362
93.051153334122
93.1875466841942
93.3274823414898
93.4669626254235
93.6019421022171
93.7286205809163
93.84824664015
93.9664168301145
94.0889236000509
94.2216207249749
94.3704325517864
94.5413707384842
94.7405587869803
94.9742647826076
95.2489429127777
95.5708617575033
95.9367756596165
96.3335664066049
96.7473060193768
97.1636021387407
97.5675639313449
97.9438121458225
98.2765372087642
98.5496088550261
98.7467397013503
98.8539576238459
98.8753284551742
98.8237435102215
98.7124536166841
98.5548429842131
98.3642869510884
98.1540459084404
97.9371956825901
97.7265936655222
97.5348794084787
97.3726775221498
97.2416980811441
97.1410378297771
97.0698564897572
97.0273724015089
97.0128580216333
97.0256357771839
97.0650742379967
97.1305845724804
97.2216169530804
97.3361676863831
97.4672909329498
97.6069573043474
97.7470529736718
97.8793719171104
97.995621793987
98.0874438441078
98.1464470912535
98.16425694948
98.1326378832761
98.0489189543666
97.9202288996742
97.7547521809936
97.56066214403
97.3460673838425
97.118971911492
96.8872489265785
96.6586277741244
96.4406935335409
96.2408315982688
96.061636788357
95.8980393113238
95.7443484766096
95.5949542049876
95.4443184234121
95.2869730014033
95.1175240094889
94.9306620765449
94.7211785897879
94.483997774479
94.2183235220589
93.9338017701452
93.6414871421922
93.3521751339001
93.0763984924514
92.8244477709801
92.6064146090243
92.4322566026173
92.3118831356378
92.2552622359895
92.2707978897543
92.3519456408277
92.4845283619215
92.6543465009333
92.8471051388809
93.0483196598039
93.2432655032337
93.4169735734546
93.554273252367
93.6398847155819
93.6591087562655
93.610043890422
93.5036365907153
93.3515184579731
93.1653322984887
92.9566341441671
92.7368244722374
92.5171082080623
92.3084825377309
92.121751298496
91.9675639898329
91.8528310184285
91.7723897833632
91.7186951983414
91.684293499254
91.6617848430865
91.6437981258474
91.622977768041
91.5919823468037
91.5434950032662
91.4702455234627
91.3655563635544
91.2317757082615
91.0788251614072
90.9167689299686
90.755541516099
90.6049392215643
90.4746330465344
90.3742022683105
90.3131881981984
90.3011680069742
90.3478490791113
90.4598263764429
90.6277498679529
90.8374330980135
91.0745648809551
91.324598786703
91.5726865130659
91.8036581141986
92.0020516664765
92.1521949049461
92.2383405986189
92.2455277655914
92.1725242496945
92.0308118239454
91.832534814417
91.5898761767425
91.3149266351876
91.0195864008986
90.7154991974798
90.4140174306288
90.1261968081032
89.8628185221762
89.6329796798775
89.4363092632289
89.2688257796408
89.1266556361294
89.0060189962466
88.903210013603
88.8145804798351
88.7365266872116
88.6654793586239
88.5978965382761
88.5302593659942
88.4596193118743
88.3852378895389
88.306929231599
88.2245099011195
88.1377990601077
88.0466186436395
87.9507935391904
87.8501517707081
87.7445246869416
87.6337471535114
87.5176577756189
87.3970822891962
87.2764105466625
87.1607954047114
87.0553362477548
86.9650880716428
86.8950764102528
86.8503180289075
86.8358473956279
86.856749056252
86.9181961839402
87.0254957507082
87.1815506831931
87.3790512891434
87.6080670933893
87.8585364302854
88.1202035731441
88.3825787503639
88.634922234645
88.8662539821656
89.0653903449089
89.2210091533361
89.3217971979706
89.36296985822
89.3524749968036
89.2998892967067
89.2148833839856
89.1071415725236
88.9863024430071
88.8619204752574
88.7434485100807
88.6402405654031
88.5615744672456
88.5165184408967
88.5075941023414
88.529000843617
88.5744495385763
88.6376720627104
88.7123915747773
88.7923016708441
88.8710544222359
88.9422574069633
88.9994798892377
89.0362682923537
89.046683514801
89.0317760547203
88.997647640604
88.9505227744121
88.896615590887
88.8421160891591
88.7931850351248
88.7559574460361
88.7365545641419
88.7411042712509
88.775769990128
88.8457006366527
88.9484121734294
89.0781134290755
89.2289874585719
89.3951728777437
89.5707393610564
89.7496707625352
89.9258560906865
90.0930886428502
90.2450736347085
90.375454187343
90.4802192017141
90.5608982741077
90.6198539803573
90.6594954636827
90.6822674613886
90.6906405150024
90.6871024386521
90.6741511000479
90.6542885505681
90.6300165259384
90.6037573539705
90.5767636381875
90.5493742013473
90.5219027767386
90.4946623411464
90.4679651205633
90.4421226174624
90.4174456595008
90.3942444695345
90.3728287568417
90.3535078294748
90.3363861227047
90.3206696210666
90.3053189873418
90.289296338806
90.271565288574
90.2510912181169
90.2268417867568
90.197787676698
90.1629035715537
90.1211693655022
90.0715962024424
90.0149255950276
89.9547178229959
89.8947768340527
89.838886627174
89.7908130988711
89.754309048863
89.7331223171626
89.7310070477309
89.7517381079721
89.7991287386404
89.8766398420535
89.9822091582868
90.1097600120929
90.2530946793141
90.4059567643178
90.5620132621925
90.714845287669
90.857947755155
90.9847383243697
91.0885759018786
91.1627903723094
91.2030421459685
91.2120775381568
91.19403766069
91.1531105632441
91.0935083514423
91.0194480748817
90.9351364901801
90.8447587378303
90.7524709202526
90.6623965322908
90.5785030853133
90.5018925912015
90.4308292309691
90.3634674417394
90.2979738293204
90.2325260186994
90.1653122475829
90.0945316913306
90.018395507738
89.9351285890116
89.8429720059903
89.740858039983
89.63249476445
89.5236134946227
89.4198992197292
89.326985425461
89.2504643067845
89.1959039591434
89.1688724851262
89.1749690624505
89.2198621645574
89.3093346373492
89.4460282256329
89.6217308916871
89.8259202301778
90.0479467526994
90.2769774709539
90.5019646620088
90.7116409876553
90.8945423343524
91.0390596573286
91.1335207269541
91.1668760847473
91.1397074320539
91.0633672468413
90.949711116617
90.8105918611681
90.6577785262721
90.50290632876
90.3574570249773
90.2327688009445
90.1400747345111
90.0905691396548
90.0936335718859
90.1478929717102
90.2481813229287
90.3894325818577
90.5666363766059
90.7747942762706
91.0088816769332
91.2638151000112
91.5344248655768
91.8154332457173
92.1014589238899
92.3876392081
92.6697625345926
92.9435600882124
93.2046672214483
93.4486325346378
93.6709313055647
93.8669834289843
94.0321759647273
94.1618903115341
94.2515623950237
94.3001389275783
94.3133682768754
94.2978638191525
94.2602917259903
94.2073351174237
94.14566758573
94.0819361925397
94.0227539128308
93.9747014265893
93.9443381035815
93.9368413558685
93.9523826420239
93.9900212709202
94.0488456044113
94.1279687925945
94.2265247649158
94.3436644514369
94.478552212065
94.6303624547119
94.798276426221
94.9815101295896
95.1794459896105
95.391522877165
95.6171803399076
95.8558567294497
96.1069874227116
96.3700031000327
96.6443280776868
96.9293786933292
97.2245617103893
97.5280660561088
97.8336138912222
98.1337562128338
98.4208623209585
98.6871327914255
98.9246248988927
99.1252910513446
99.2810305880227
99.3837549898794
99.4256382640864
99.4068273070024
99.3384886158352
99.2326938252045
99.1015185134559
98.9569663612187
98.8109227348075
98.6751372691943
98.5612347045065
98.4807531998193
98.4443936043584
98.4518456124725
98.4949238163507
98.5653280516335
98.6547665185391
98.7549165622152
98.8573993890165
98.9537688414289
99.0355144847333
99.0940792883126
99.1224905119309
99.1215219888919
99.0943242646663
99.0440866023741
98.9740207203302
98.8873469877041
98.7872826787512
98.6770323249263
98.5597801751346
98.4386858048402
98.3171425063678
98.1991164823098
98.0886214909716
97.9896375201036
97.9061186353585
97.8420039946683
97.8012320099941
97.7877576806824
97.8055731762165
97.85861526377
97.9456197266937
98.0580298142815
98.1867159169401
98.3224753540625
98.4560101510716
98.5779221543724
98.6787259530924
98.7488800461024
98.7788365166329
98.7598755060911
98.6926609550492
98.5841124815887
98.4413155634465
98.2713577384662
98.0812851306148
97.8780692637753
97.6685840805875
97.4595929170273
97.2577450788328
97.0689023154277
96.8935270332004
96.7295824801413
96.5750523573104
96.4279513898373
96.2863218007114
96.1482306213474
96.0117678083858
95.8750451402408
95.7361958695633
95.5935872017467
95.4474469890982
95.2989460581659
95.1492492394764
94.9995071104049
94.8508559007324
94.7044176731285
94.5613007696457
94.4226005156794
94.2894001734684
94.1628489616739
94.0454218347598
93.9407053247411
93.8522980538569
93.7837857654044
93.7387553146736
93.7208114082282
93.7335961728209
93.7808116945398
93.8662457388283
93.9937011861194
94.1615471607988
94.3597854556166
94.5776158685332
94.8040698569932
95.0279765839003
95.2379546218911
95.4224305639398
95.5696857457848
95.6679319617964
95.7055533906168
95.6806959484637
95.6074469954426
95.5014393288017
95.3782620395015
95.2533795816423
95.1421015881645
95.0596023690202
95.020988958114
95.0414171661285
95.136206870906
95.3127190180803
95.560964231953
95.8688021207245
96.2240174736912
96.6141781723591
97.0265232250253
97.447882040864
97.864627149523
98.2626633343589
98.6277090411833
98.9519241202824
99.2347904886615
99.476270395358
99.6764405097644
99.8354901131551
99.9537185627215
100.031532067542
100.069439823474
100.068049560509
100.028542259524
99.9549811365349
99.8524915243603
99.7262155106082
99.5812837321
99.4227938810107
99.2557945383599
99.0852742695545
98.9161558593792
98.7532880872323
98.5984806199347
98.4460294048836
98.2891409577273
98.1211091726444
97.9353255865732
97.7252984863928
97.4846804280091
97.207303610336
96.8872223815541
96.5188073485116
96.1043542712035
95.6621895934412
95.2120836554207
94.7731014206563
94.3636163888845
94.0013970102134
93.7037593474572
93.487781735142
93.3705801160732
93.3696465649996
93.4971429710006
93.736685956049
94.0634336252793
94.4524136875945
94.87811549925
95.3142110386052
95.7334138173929
96.1074879133437
96.4074210501037
96.6037735849057
96.6748370465536
96.6301347247418
96.4876318779093
96.2657556500573
95.9830619941427
95.6579713276887
95.3085760281679
94.9525192390257
94.6069419843152
94.2884942655245
94.0111079087515
93.7722277218422
93.562444200641
93.3725478897606
93.1935090210302
93.0164471276163
92.8326181131008
92.6334180343958
92.4104029004174
92.155323703202
91.8603292575972
91.5247748319952
91.1576599191371
90.7684887164216
90.3665024926445
89.960647617606
89.5595624105663
89.1715812966918
88.8047547477968
88.4668836033186
88.1655665979011
87.9081223094648
87.6981274459501
87.5352527416083
87.4191190971777
87.3494968988494
87.3263045635095
87.349608263374
87.4196228287021
87.5367138448585
87.7014009780065
87.9143625825984
88.1760762137808
88.4807655280731
88.8171253534195
89.1733997123823
89.5374802029186
89.8968643790272
90.2386476123239
90.5495513144511
90.8159903185841
91.0241816659417
91.1602960950422
91.2152686438031
91.1972065034509
91.1184023042743
90.9913424568691
90.8285590746325
90.6425157177728
90.445527748652
90.2497169776188
90.0669995681553
89.9091058522908
89.7875172934952
89.7073477285949
89.6642698124035
89.6532843670917
89.6694735641382
89.7079684162435
89.7639218471547
89.8324871182249
89.9088015019261
89.9879751789136
90.0650853977131
90.1354409739109
90.197186279708
90.2502086790323
90.2944251378483
90.3297575216279
90.3561327354417
90.3734828578195
90.3817452679815
90.3808627660543
90.3707836859003
90.3514622148305
90.3239112085016
90.2926377058559
90.2628613300304
90.2397883507653
90.2286164226586
90.2345453135193
90.262793633564
90.3186216427904
90.4073603102728
90.534446927129
90.7052049429348
90.9180853729148
91.1639159790112
91.4330157275618
91.7155140350805
92.0013091750781
92.2800480167453
92.5411284501928
92.7737259511691
92.9668456135339
93.109414067172
93.1957820024085
93.2341254926818
93.2349408913546
93.2088353220208
93.1664534330136
93.1184281506567
93.0753557132103
93.0477949124416
93.0462903466902
93.0814195966426
93.1616278198056
93.2811036182937
93.4283522694069
93.5917833101312
93.7596693910488
93.920119734924
94.0610832931535
94.1703826419056
94.2357794655965
94.2450719405758
94.1873139847459
94.0650034037638
93.8895650064469
93.6726210204076
93.425719283432
93.1602473123983
92.8873751261487
92.6180258979933
92.3628730854576
92.1323625377279
91.9367362606385
91.7824304972695
91.6680917312575
91.5914916002568
91.5505117430136
91.5431271591667
91.5673910526587
91.6214209701516
91.7033860767998
91.8114954384515
91.9439872026388
92.0989457946636
92.2731007954707
92.4625110385359
92.6631824165618
92.8710597438551
93.0820182322567
93.2918584983369
93.4963052654169
93.6910099372423
93.8715572191321
94.0336537776069
94.1760771999562
94.3002641016947
94.4077744834477
94.5002025049553
94.579171076647
94.6463269287683
94.7033361940301
94.7518805331988
94.7936538271044
94.83034651525
94.8632488977818
94.8931760075093
94.9209180753056
94.9472675781937
94.9730189417996
94.9989683750096
95.025913837691
95.0546551422644
95.0859941899424
95.1207314697793
95.1594544019165
95.2024272541814
95.2498892977488
95.3020819520084
95.3592490161506
95.4216369148652
95.489494958681
95.5630756195259
95.642634822154
95.7284223962613
95.8200000748713
95.9157916512667
96.014103995172
96.113230584652
96.2114508777389
96.3070302939526
96.3982208188018
96.4832622439618
96.5603840544659
96.6278332133723
96.6849969275922
96.7328558800351
96.7725177366313
96.8050984409155
96.831720448938
96.8535112157212
96.8716019384101
96.8871265599272
96.9012210358441
96.9149872682759
96.9285754947458
96.9411019267761
96.9516300501411
96.959222725665
96.9629426657347
96.9618530920312
96.9550185740068
96.9415060470318
96.9203860083818
96.8909517448067
96.8562974589202
96.822732447027
96.7966514464048
96.7844377422134
96.792477263975
96.8271811204369
96.8950166888594
97.0025475245842
97.1564825576932
97.3627817956496
97.6173178123732
97.9096725504545
98.2291814628264
98.5649489462045
98.9057974207133
99.2402405423146
99.5564822517473
99.8424435186589
100.085820809093
100.277790420133
100.420528065521
100.518463830327
100.57619367658
100.598440184655
100.59001683727
100.555796329535
100.500683259664
100.429591438409
100.347342351972
100.257071627142
100.160366349878
100.058747428727
99.9537254338165
99.8467993767568
99.7394559488912
99.6331692089192
99.5294007102841
99.4296000586371
99.33461395874
99.24183343363
99.1474230528111
99.0475750067567
98.9385134754302
98.816500140377
98.6778424922545
98.5189048350771
98.3361218587327
98.1260164428574
97.8880983562543
97.6306149276793
97.3633034804269
97.0957045690524
96.8371533934441
96.5967895222351
96.3835839344095
96.206382543486
96.0739656527115
95.9951203467151
95.9742269015042
96.0022057250922
96.0675500276363
96.1587981369265
96.2644576374896
96.3729568700923
96.4726239482619
96.5516937995811
96.5983438114602
96.6007710561241
96.5523279054365
96.4592798178555
96.3299552316901
96.1726906810392
95.9957759878506
95.807413964781
95.6156944984557
95.4285826463621
95.2539202485556
95.0994400812497
94.9706334551692
94.8658140489878
94.7818679074974
94.7157326687676
94.6643851173058
94.6248308036659
94.594095645316
94.5692194490223
94.5472513148975
94.5252468969445
94.5011293881955
94.4773976875143
94.4580557346392
94.4471026809832
94.4485373501033
94.4663670409685
94.5046197450265
94.5673598402658
94.6587073757255
94.7828611237317
94.9430281688814
95.1338810013254
95.345964696423
95.5696656323768
95.7952012763173
96.0126054004519
96.2117336561435
96.3822904703177
96.5138780920333
96.5960682826555
96.6205398969929
96.5922822013865
96.5216522850429
96.419091652621
96.2950333806456
96.1598447926693
96.0237927465162
95.8970311816314
95.7896103641098
95.71150725478
95.6709563992043
95.6640259642092
95.681575748922
95.714479681907
95.7536089353711
95.7898113126037
95.8139080802456
95.8167083544329
95.7890411047581
95.7218046534148
95.6078704372698
95.4546807054891
95.2764609582041
95.0873262710441
94.9011886629313
94.7317464251427
94.5925134494101
94.4968871419386
94.4582541023535
94.4901337883045
94.6051010052348
94.7990600046457
95.0557971049913
95.3587559173698
95.6911139227482
96.0356442173587
96.3746363203173
96.6898799209278
96.9627162228922
97.1741613159003
97.3071619963443
97.3627424364234
97.3515357622901
97.2845480602853
97.1729442167026
97.0279335101541
96.8606805231764
96.6822419611565
96.5035292350505
96.3352961836947
96.1872026266425
96.061378862863
95.9564596577183
95.8710982771185
95.803981802476
95.7538260325563
95.719370818911
95.699375803189
95.6926165299123
95.6978809130012
95.7137728974929
95.7372204232338
95.7642836662033
95.7910084511127
95.8134320446189
95.8275850704022
95.8294967116131
95.8152032028399
95.7807595899479
95.7222547010387
95.6365762259661
95.5278872241014
95.4043839435717
95.2742436175551
95.1455615303251
95.0263468763384
94.9245322128604
94.8479961648
94.8045991547479
94.8022321363344
94.8482111796506
94.9397561496858
95.0661524584799
95.2164492415577
95.3796044743931
95.5444416619073
95.699632208598
95.8337043049804
95.9350792134346
95.9921356138359
95.9940097356148
95.9408448676227
95.8414393080005
95.7048966661781
95.5403208848595
95.3567551258671
95.16313807901
94.9682774727165
94.780840290524
94.6093590593497
94.4620650615212
94.3411974196809
94.2420597579448
94.159630509562
94.0889443266495
94.0250770459171
93.9631359301546
93.8982550683313
93.8255958490291
93.740352431211
93.6377724881105
93.5157465538872
93.3781656669149
93.2297307295048
93.0750942980013
92.9188523302063
92.76554057391
92.6196354502502
92.4855592808533
92.3676897210077
92.2703732913742
92.197352407903
92.1477474506024
92.1185323370323
92.1067054732012
92.1092904515118
92.1233257788479
92.1458565562432
92.1739280729783
92.2045812978907
92.2348502654168
92.2618415240567
92.2862880825905
92.3139686906399
92.351048396374
92.4037161052219
92.4782013440244
92.5807994894241
92.7179057343639
92.896058237484
93.1219911276746
93.4026953205138
93.7406982379631
94.1241422357597
94.5381290832442
94.9672934748444
95.3957222311106
95.806924006843
96.1838543764272
96.5090012771649
96.7645350404694
96.9325626113967
97.0046648229466
96.9943785914184
96.9187177161309
96.7949058610399
96.6401761110131
96.4716314449764
96.306166563158
96.16044989128
96.0509638802237
95.9940723663693
95.9988196505084
96.0573850163778
96.1596989037668
96.2957451591444
96.4554795146772
96.6287689012088
96.8053516136059
96.9748187919383
97.126617944461
97.2501713843516
97.3412996593526
97.4064628006502
97.4531901331633
97.4890680438472
97.5217172085496
97.5587816153152
97.6079295233719
97.6768664644475
97.7733604394811
97.9049059241839
98.0705186700138
98.2606135682636
98.465123511554
98.6738312528258
98.8763492327785
99.0621208671599
99.2204442106156
99.3405188081261
99.41151623106
99.4245847808896
99.3833287845032
99.2963820176459
99.1724736716165
99.02034423396
98.8486887507735
98.6661155680029
98.4811204196292
98.302075486124
98.137232236087
97.9914154999733
97.8584080255663
97.7297996243648
97.5972718848718
97.4525974264863
97.2876531006874
97.094446679013
96.8651564310469
96.5921827720498
96.2682143196991
95.8917334812288
95.4777711405664
95.0440305548029
94.6076420767586
94.1851292697929
93.7924348749677
93.445001294641
93.1579011007972
92.9460146153297
92.8242537606286
92.8054234965982
92.8819168466274
93.0358399721251
93.2494229835312
93.5048433795963
93.784028077281
94.0685230780566
94.3394331792997
94.5774357333042
94.7628728814624
94.8770435824382
94.9165306776079
94.8891880735874
94.8033982262594
94.6677212089967
94.4907980451353
94.28126892697
94.047707139567
93.7985689489171
93.5421592738257
93.2865735247397
93.0375643329704
92.7975103865992
92.5684760070494
92.3524896483714
92.1515495448249
91.9676301679149
91.8026894768057
91.65867695869
91.5375424696361
91.441245901783
91.3712126828441
91.3253344704901
91.3001394983221
91.2921914867102
91.2980789157115
91.3144034100819
91.3377706973656
91.3647841023681
91.3920405656752
91.4161291902739
91.4336570359017
91.4426053614777
91.443034324826
91.4351807873498
91.4192860350746
91.3955953499284
91.3643575886849
91.3258247706688
91.280251675241
91.2278954499951
91.1690152305138
91.1039472064469
91.0335631925737
90.9589628698219
90.8812411487012
90.8014863756876
90.7207797332782
90.6401949013497
90.5607979753673
90.4836476367969
90.4097955711334
90.3402854480407
90.2757357445979
90.2157940503924
90.1599749693378
90.1077966622291
90.0587804313602
90.0124503582109
89.9683329931655
89.9259570963813
89.8848534290508
89.8445545944068
89.8046209572877
89.7652126075393
89.7270867244155
89.691023953233
89.6578026469355
89.6281992948724
89.6029890854912
89.5829466025571
89.5688466549617
89.5614652407458
89.5615806466092
89.5698011954804
89.5853770546594
89.606917287437
89.6330272553486
89.6623107823091
89.6933689446235
89.7247992954751
89.7551955260652
89.7831475663116
89.8072421281728
89.826064201827
89.839002203231
89.8478802422386
89.8549841711833
89.8626017966704
89.8730225592095
89.8885383788796
89.9114456702934
89.9440485332025
89.988663130673
90.0476232749396
90.1232209828646
90.2156903281693
90.3228192516213
90.4422480156235
90.571602626412
90.7084888584269
90.8504875028248
90.9951508643884
91.1400005404839
91.2825265223831
91.4201876630712
91.5504562408414
91.6709856352744
91.7794728021101
91.8736019133596
91.9510508811332
92.0094990781217
92.0466362244686
92.0601724059531
92.0478491687594
92.0074516145433
91.9369868635623
91.8383283133433
91.7171756333317
91.5793730894071
91.4307192516199
91.2769499239169
91.1237284411491
90.9766431296645
90.8412116969386
90.7228923217859
90.6271012575009
90.5587811230935
90.520472098231
90.5139634517646
90.5411074127406
90.6038331092929
90.7041612240654
90.8442200533037
91.02626318562
91.2526890565946
91.5260626829646
91.8490268857565
92.2208518977021
92.636657772916
93.0912483355742
93.5792982216446
94.0953064004802
94.6335549671171
95.1880736334174
95.7526105544347
96.3206103139872
96.8853159483158
97.4423499806152
97.9898703004468
98.5260886796349
99.0491590159174
99.5571808789712
100.048203854871
100.52023272616
100.971233517605
101.399140438277
101.802199759281
102.179885576693
102.531990917774
102.858354090489
103.158858923319
103.433434811067
103.682056568216
103.904744092906
104.101561846038
104.271982357984
104.410987084428
104.511594929526
104.566840346889
104.569836324469
104.513838214349
104.392315344848
104.199029211297
103.928116673721
103.574745613301
103.144456465543
102.651282765684
102.109299121312
101.532208581757
100.933239622104
100.325080870269
99.7198505570178
99.1290972182634
98.5638280975833
98.033123328715
97.5355926617148
97.0656047026111
96.6177536979101
96.1868484201259
95.7678896781135
95.3560536978271
94.9466808447037
94.5352692273119
94.1174727663398
93.6897058612488
93.257680664034
92.8340101947266
92.4310432460897
92.0607133805213
91.7346131046023
91.4640962139997
91.2604070396887
91.134836564187
91.0989068809988
91.1645860488355
91.338448379345
91.6075609458408
91.9550775661839
92.3640758867952
92.8172881741415
93.2968923593651
93.7843659135373
94.2604080528095
94.7049377327645
95.0971757072036
95.4204498510391
95.6783790124953
95.880605852811
96.0371708293962
96.1584053366184
96.2548444544476
96.3371611636858
96.4161233624353
96.5025745239395
96.6074384508886
96.7382200990049
96.8896447997443
97.0534568856281
97.2213024004185
97.3847144955889
97.5351133389553
97.6638210403821
97.7620920473587
97.8211592965822
97.832326980159
97.7922254844314
97.7086593728759
97.5909099687747
97.4482568464084
97.2899222663905
97.1250333275966
96.9626015997791
96.8115197727395
96.6805747676143
96.5784194148253
96.5084866172977
96.4650043881688
96.441316570846
96.4308106833871
96.426895305741
96.422986559503
96.4125036013131
96.3888731028618
96.3455426905776
96.2760787262749
96.1793991290188
96.06310509807
95.9355545309018
95.8050308349753
95.6797309157483
95.5677673570952
95.4771844219599
95.4159875673879
95.3921863305296
95.4138024915701
95.4831464065906
95.591308411242
95.7280977485627
95.8832709591935
96.0464809096984
96.2072477014422
96.3549520489997
96.4788518832617
96.5681228918474
96.6120110620939
96.6059739392344
96.5556690975621
96.4677933566221
96.3490943194985
96.2063230241688
96.0461959936027
95.8753668041944
95.7004070984964
95.5277968309787
95.3639035646011
95.2126113750934
95.0731166082105
94.944100828404
94.8242665963802
94.7123347787401
94.6070422335526
94.5071398566237
94.4113909757068
94.3185700819462
94.2274621466777
94.1381219446678
94.0547785496717
93.9824961494207
93.9263135831563
93.8912589994091
93.8823698854482
93.9047185317114
93.9634430975713
94.0637845743263
94.2111301004506
94.4090731314287
94.6497363860974
94.9209527161529
95.210338224887
95.5052319538428
95.7926620876742
96.0593464182854
96.2917292406555
96.4760566570325
96.5984916220529
96.6485835755353
96.632129176424
96.5600210964436
96.4433077881949
96.293078665559
96.1203752543055
95.936127903081
95.7511178977311
95.5759643404832
95.4211349178427
95.2952737107768
95.1970329777049
95.1215312534178
95.0639499089791
95.0195175701042
94.9834945238826
94.9511619545493
94.9178159181767
94.8787660014792
94.8293386253841
94.7653312860368
94.6864536883058
94.5944245494275
94.490978020657
94.3778427101283
94.2567379017619
94.129370416569
93.9974321108131
93.8625980012438
93.7265250043619
93.5909067676263
93.4586901872455
93.3340586329615
93.2212083390868
93.1243016332732
93.0474795013597
92.9948777996966
92.9706471346382
92.9789764967146
93.0241208193389
93.1104160872358
93.2381591050586
93.3980815578802
93.5794983472847
93.7715969190669
93.9633991671854
94.1437484503073
94.3013227432924
94.4246749513333
94.5023011512324
94.5227370895465
94.4787166726127
94.3779085325156
94.2314684049058
94.0505726549642
93.8463246953416
93.6296880500143
93.4114457660486
93.2021853506599
93.0123081468948
92.8520620419054
92.7306724205531
92.6473958522805
92.5955215520005
92.568355325025
92.5592660842787
92.5616552087568
92.5689354666508
92.5745193617614
92.571816860014
92.5542424945611
92.5152930198732
92.4527940569946
92.3716232355382
92.2772995752425
92.1753125742891
92.0711099688539
91.9700920217428
91.8776122104516
91.7989841730349
91.7394947893506
91.704423324391
91.697887101464
91.7164564126453
91.753732042951
91.8033154280209
91.8587944580728
91.9137307160585
91.9616556894218
91.9960760517956
92.0104881066768
91.9984014268033
91.9534961654738
91.8741989011504
91.7649624194133
91.6306490493756
91.4761127281758
91.3061754664521
91.1256090150678
90.9391216798381
90.7513501623822
90.5668562597139
90.390128231766
90.2250390723246
90.0711261972211
89.9259232264156
89.7869887260858
89.6519141098452
89.5183208184516
89.3838587954709
89.2462062172795
89.1030704380326
88.9521901097476
88.7913384346031
88.6197617197374
88.443002176621
88.2682349858986
88.1025233639251
87.9528278678022
87.8260267406396
87.7289469155513
87.668405516547
87.651261933414
87.6844808557331
87.7752069377774
87.9273638285716
88.1324062539124
88.3789132578431
88.6553391837115
88.9499173013921
89.2505931236402
89.5449888934018
89.8204013211573
90.0638348936834
90.2620729163106
90.4020318404372
90.4798280090426
90.5035110944247
90.4821266491478
90.4248575421011
90.3409420505659
90.2396103112075
90.1300396186456
90.0213285983845
89.9224899801277
89.8424615580001
89.7892489627727
89.7622925057372
89.7562772734282
89.7658729964586
89.7857654823936
89.8106412648531
89.8351785512056
89.8540444651147
89.8618986095903
89.8534029741922
89.8232382207416
89.767716055245
89.688986308871
89.5905353902353
89.475849123968
89.3483989692428
89.2116309732109
89.0689574485059
88.9237513327852
88.7793431660848
88.6390206083197
88.5060325587702
88.384126086083
88.2782459138493
88.1934762959159
88.1348876472994
88.1075640060179
88.1166364146927
88.1673224895263
88.2649726254817
88.4151235055772
88.6235598472647
88.8961893803891
89.2303576709519
89.6110342967943
90.0218945509923
90.4460746464806
90.8660827392268
91.2637742211091
91.6203976782325
91.916717829389
92.1332203994826
92.2504010789443
92.2546735854334
92.1574858671651
91.9775493626444
91.7338084731285
91.4451439684773
91.1301544930636
90.8070163393722
90.4934187986389
90.2065707054551
89.9632733606763
89.7799553565994
89.6639055471785
89.6064684028955
89.5976158297595
89.6275092404587
89.6864035749944
89.7645734102543
89.852260371423
89.9396416389836
90.0168197297318
90.0738339219591
90.1014178208367
90.100159577888
90.0777841439078
90.0421955842148
90.0012906848519
89.9629427333787
89.9349991234946
89.9252926817774
89.9416666476023
89.9920133703514
90.0843270219782
90.2236743419988
90.4016604712654
90.6061022194892
90.824654471702
91.0447535240013
91.253594089807
91.438141684712
91.5851820683612
91.6814090637851
91.7135512536046
91.6690925550133
91.5486583460695
91.3659450028757
91.1352802771306
90.8708974438567
90.5868109347017
90.2967368001653
90.0140563707705
89.7518207641972
89.5227937095539
89.3395304752539
89.2129868748561
89.1411034761926
89.1153086451988
89.1271564653615
89.1683033058857
89.2304450299328
89.3052699891367
89.3844275033051
89.4595118326309
89.5220618366241
89.5635766558464
89.5783133618507
89.5706357723933
89.547234767522
89.5148095066591
89.4800489411954
89.449623342145
89.4301858015964
89.4283836448606
89.4508797306158
89.5043837186444
89.595618817821
89.7261943828554
89.8891961003144
90.0768830684154
90.2814316955316
90.4948986245871
90.7091971388279
90.9160875987752
91.1071825887084
91.2739674731647
91.4078369699641
91.5013608571931
91.5557665228496
91.5761233861559
91.56760922419
91.5354596927229
91.484938352135
91.4213125913938
91.3498355878038
91.2757343389465
91.2042037309337
91.1403929900569
91.0881975748702
91.0493147919445
91.0252207920691
91.0174020295745
91.0273603598933
91.0566186696974
91.1067270721347
91.1792697082976
91.2758722058054
91.3982098564471
91.5477018582206
91.7233500658059
91.9230074833209
92.1445192305456
92.3857180592811
92.6444139480651
92.9183846470022
93.2053671782616
93.5030503162917
93.8090680886816
94.1208999314764
94.4343011844673
94.7434963145959
95.0425139476278
95.3252388457313
95.5854276844418
95.8167331742759
96.0127368348784
96.1669905750046
96.2730670260979
96.3251188495013
96.3251218463141
96.2812277433183
96.2018546403919
96.0954578028099
95.97047513694
95.8352875340201
95.6981940721143
95.567401830533
95.451029944624
95.3568705743983
95.2875609143835
95.2410460260033
95.2151373907185
95.2076798437679
95.2165427582809
95.23961226687
95.2747844738538
95.3199596251417
95.3730372146692
95.4319559790522
95.49582522958
95.5650312258948
95.6400283673557
95.7212758022267
95.8092380025629
95.9043853888422
96.0071950064092
96.1181512560759
96.2377466815336
96.3663688379897
96.5017849237551
96.6391036407965
96.7732637431651
96.8991481846281
97.011589977864
97.1053835779181
97.1753018901656
97.2161189396312
97.2226381493494
97.1902057773753
97.1207699556856
97.0210324271
96.8978096204924
96.7578915696013
96.6080141350788
96.4548407916082
96.3049537962533
96.1648544766732
96.0409723546078
95.9392271447725
95.859336634331
95.7966042661461
95.7462817962672
95.7036532731037
95.6640251189533
95.6227208652834
95.5750804842649
95.5164642713913
95.4422612275533
95.3481448900528
95.2340714749598
95.1036035374855
94.9603987143358
94.8080841761318
94.6502484983103
94.4904363262315
94.3321457606585
94.1788283776869
94.0338917936681
93.900705397129
93.782646348488
93.6831288157099
93.6055615861135
93.5533580809225
93.5299538063371
93.5388264047843
93.5835184614651
93.6676632899202
93.7950140005727
93.9694709442748
94.1912584574697
94.4500027543179
94.7333481766546
95.0286872939592
95.3231097295447
95.6033848200836
95.85598028236
96.0671190750517
96.2228762169179
96.3093324196514
96.3191581831613
96.2615588970611
96.1485178894559
95.9921290355237
95.8044738912711
95.5975291765547
95.3831048261004
95.1728120198836
94.9780601205274
94.8100811955278
94.6772121713281
94.577695116455
94.5075702017196
94.462960001218
94.4400470841843
94.4350549889013
94.4442323959822
94.4638403782667
94.4901426529127
94.5193987989385
94.5487018938905
94.5800548784012
94.6172473483667
94.6640848034454
94.7243924334398
94.8020244661509
94.9008766956888
95.024902299635
95.1781311029625
95.3646925091279
95.587466610649
95.8396387833116
96.1100329648885
96.3872284745891
96.6595452716761
96.9150398934503
97.1415305352152
97.3266528123846
97.4579473331294
97.5229794568036
97.5129825223636
97.4348333658252
97.2998639874667
97.119510537436
96.905194790974
96.668232567745
96.4197692298796
96.1707417496744
95.9318663461554
95.7136504574069
95.5246368451298
95.364657381635
95.2310064845063
95.1210524371862
95.0322242722421
94.9619997695425
94.907894981246
94.8674551891214
94.8382472219904
94.8178530797625
94.8038534655148
94.7937546369503
94.7850315822343
94.7751614081839
94.7616234182693
94.7419003922902
94.7134812025858
94.673864757636
94.6205652566289
94.5511187284044
94.4634018761362
94.3590749793565
94.2422829598698
94.1171872467854
93.9879119814817
93.8585387002454
93.7331046210734
93.6156044378329
93.5099955255814
93.4202064738503
93.3500907744017
93.3008705212742
93.2701427761461
93.2552662742999
93.253621175925
93.2626009015633
93.2796054621059
93.3020362549413
93.3272923118363
93.3527679946319
93.3758523115722
93.3941981567296
93.4062695080085
93.4106842748172
93.4060631998579
93.3910323221716
93.3642258379154
93.3242893489337
93.2698834854725
93.1996878852643
93.1124055067345
93.0076342857388
92.8917866501147
92.7744230827281
92.6650296058056
92.5730055466475
92.5076895039414
92.4784041178451
92.4945196247831
92.5655366387322
92.701189228751
92.911181788832
93.193418463512
93.5314955755563
93.9079113671221
94.3047041409958
94.7033332434987
95.0846292439689
95.4288193734693
95.7156345724829
95.9245034267917
96.035335190927
96.0441130436128
95.9659315161166
95.817374719419
95.6151876866559
95.3760626670678
95.1164839007452
94.8526309479815
94.6003388272432
94.3751122518511
94.1921312038243
94.0591987490551
93.9701583864253
93.9174246870881
93.8935422453748
93.891134041343
93.9028619074801
93.9213986821907
93.9394118560852
93.9495586624976
93.9444926839498
93.9186962536297
93.8732891696184
93.8109133229564
93.7342172013136
93.6458471350953
93.5484400403904
93.4446176664894
93.3369823403712
93.2281141888308
93.1205698107709
93.0170127434899
92.9213421586778
92.8381325248368
92.7719410246209
92.7273143235927
92.7088076091398
92.721008132344
92.7685634030419
92.8562142970397
92.9888334660659
93.1712672798564
93.4009644918861
93.6656721390677
93.9523070827377
94.2475028327524
94.5375636182678
94.8084570213026
95.0458476641812
95.2351743027624
95.361771998547
95.4112261342088
95.3797754418749
95.2796792932531
95.1247180197988
94.9287209090655
94.7054288340083
94.4683972442905
94.2309390969204
94.0061063821303
93.8067084618702
93.6453628262879
93.5304376419928
93.4578060697937
93.4211279377023
93.4141758873662
93.4307916631837
93.4648509639926
93.5102365155883
93.5608191952635
93.6104471660551
93.6529430603473
93.6827911903326
93.6988586806382
93.7017608513303
93.692128966672
93.6706041750508
93.6378358431657
93.5944799633411
93.5411976397404
93.478653658386
93.4075151450559
93.3284479716549
93.2420771935508
93.1489925245209
93.0497811809875
92.945028201234
92.8353157362244
92.7212224160256
92.6033227913725
92.4821868496065
92.3583796039502
92.2324642770155
92.1064077643429
91.9857050456898
91.8763450372551
91.7842655444544
91.7153719849235
91.6755636644309
91.670767635869
91.7069803348854
91.790317392601
91.9270722813956
92.122510501185
92.3697991238972
92.6551465354361
92.9644499354901
93.2832733331669
93.5967922643292
93.8897840108085
94.1466665402408
94.3515892211135
94.4885774987011
94.5426815116774
94.5158145897774
94.424330183777
94.2852149681166
94.1154423027969
93.931832799459
93.7509760222234
93.5892119276558
93.4626699344851
93.3873636740501
93.3792281075413
93.444248819422
93.5705534713495
93.7445254766835
93.9525188239862
94.1807371265096
94.4151521306544
94.6414627508643
94.8450964716179
95.0112552213585
95.1250404342611
95.1797948650575
95.1880688607991
95.1652652577216
95.1268433257933
95.088243015171
95.0648593436209
95.0720667595972
95.125293306922
95.2401450877295
95.4325716177492
95.7108954817448
96.0611932177821
96.4655293204946
96.9055588487364
97.3623474936686
97.8162605881885
98.246927189857
98.6332867036726
98.953725529722
99.1868034169772
99.3266762585771
99.3863169135957
99.3802529284445
99.3233084157377
99.2304305248696
99.1165593686249
98.9965428151236
98.8850962017549
98.7968062388702
98.7447159351
98.7277338285066
98.7369145658584
98.7632711966563
98.7978233873026
98.8315743231421
98.8555039627708
98.8605787219111
98.8377776528805
98.7781350482315
98.6764609220293
98.5423132681989
98.3888668508845
98.2291709575222
98.0761161249273
97.9424351944412
97.8407376476439
97.7835763719422
97.7835465571859
97.853385261619
97.9981284118566
98.2045373068454
98.4567723468653
98.7388213278104
99.0343731774336
99.3267435164113
99.5988546546659
99.8332733230647
100.012309342135
100.119168678943
100.152401827813
100.122776290631
100.041617008009
99.9203606808653
99.7704518108155
99.6032647669247
99.4300521423689
99.261919046359
99.1098226112437
98.9832709505944
98.884687826509
98.8142057139739
98.7720017614563
98.7583004478027
98.7733749792803
98.817548910117
98.8911980014252
98.9947523356418
99.1286805223816
99.2904282093886
99.4709056116661
99.6600806031005
99.8477764494828
100.023663786259
100.177273726145
100.298032853853
100.375320658475
100.398549548625
100.358431278915
100.259955292287
100.117568695051
99.9458674465806
99.7593233292812
99.5722210195119
99.3986368926827
99.252458161731
99.147440942799
99.0973063034108
99.1119569019286
99.1842995416074
99.3026754872894
99.4554659130884
99.6309968963024
99.8174713859755
100.002928495118
100.175230876883
100.322081216961
100.431287268802
100.498817593159
100.531197205254
100.535735472145
100.519799895587
100.490780724921
100.456066313337
100.423029329704
100.399023819695
100.391393058379
100.406379406859
100.443118737121
100.497943091536
100.567183765205
100.647166409885
100.734201772405
100.824579107294
100.914562288766
101.000388663461
101.078284336677
101.145216494686
101.199291503858
101.238711940791
101.261686655623
101.266436240336
101.251199097169
101.214238077133
101.153847649601
101.068361554317
100.957405634409
100.82863607782
100.692812513001
100.560595694474
100.442536244568
100.349093607471
100.290676784863
100.277706608277
100.320699754592
100.430278431435
100.608589296788
100.842302366028
101.116407793351
101.415684043776
101.724596110769
102.027239430921
102.307332052211
102.548258054723
102.733165012539
102.848575487043
102.897851798809
102.889669264716
102.832912199754
102.736581546569
102.609718185245
102.461341785878
102.300405587279
102.135767094872
101.975977066058
101.825555649771
101.685365412635
101.556130087208
101.438572151958
101.333414514692
101.241382298982
101.163204737481
101.099617177137
101.051363186556
101.018622338867
100.999496069933
100.991624716994
100.992658763255
101.000254148284
101.012068677121
101.025759519055
101.038981793001
101.049388240196
101.054728891513
101.054726766225
101.050924669204
101.044934007251
101.038365898521
101.032830731596
101.029938238146
101.031298078655
101.038520941171
101.053220125096
101.075970148202
101.10354699912
101.131855685784
101.156792514733
101.174246158177
101.180102060508
101.170250190851
101.140596127515
101.087075428134
101.00585771267
100.896891292043
100.763583769141
100.609473826288
100.438087367909
100.252924506212
100.057449060383
99.8550805398902
99.6491885559229
99.4430895858544
99.2398760408742
99.0416015604539
98.8499312517691
98.6665055153873
98.4929431638473
98.3308445525735
98.1817952076464
98.0473699421421
97.9291374581013
97.8286651286366
97.7460129275246
97.6762485916642
97.6134442197454
97.5517075671593
97.4851771432568
97.4080243908025
97.314462842643
97.1987641225313
97.0552805948582
96.8784823136493
96.6661556057399
96.4241736618372
96.1595926675637
95.8793601148929
95.5902884655637
95.2990389697215
95.0121151526903
94.7358654211723
94.4764942348218
94.2400813340549
94.0315942488927
93.8515123263078
93.6991390087988
93.5738331834457
93.4750058382366
93.4021169849852
93.3546728549595
93.332223342203
93.3343596722284
93.3607122761343
93.4107085478446
93.4812134534867
93.5675156589288
93.6648655849484
93.7684841881889
93.8735540024766
93.9752150604279
94.0685657998214
94.1486690664671
94.2105633105813
94.2494243321615
94.2637845325381
94.2555534807101
94.2268190264356
94.1796925981165
94.1163005336911
94.0387763190876
93.9492537698137
93.8498611775853
93.7427164319254
93.6299256139288
93.5138789745491
93.3975284643092
93.2838639788926
93.1758466158079
93.0764114078023
92.9884718968308
92.9149265150408
92.8586667537999
92.8225871209829
92.809596910556
92.8218793281877
92.8576517487128
92.9138378916956
92.9873754450788
93.0752043525881
93.1742562922105
93.2814461571918
93.3936655424288
93.5077782601137
93.6206179239909
93.7291501843196
93.8322804496159
93.9302138557692
94.0231827646971
94.1114232047335
94.195174625035
94.2746796593422
94.3501838997404
94.4219356810161
94.4901858761593
94.555157687566
94.6163850586855
94.672708305868
94.7229334708709
94.7658636697186
94.800300771351
94.8250473802508
94.8389091205845
94.8406972171386
94.8292313657744
94.8033773750024
94.7635769798804
94.7124467101829
94.6527605948947
94.587284601202
94.5187724740767
94.4499631956196
94.3835800459064
94.3223312428789
94.2689121385202
94.2260008201779
94.1942395857828
94.1695832442468
94.1473392264365
94.1228251330319
94.091368655384
94.0483121393139
93.989021753983
93.9089011995087
93.8034098398839
93.6680850828807
93.5000959938123
93.304059828872
93.0867785936688
92.8549687234679
92.6152357486794
92.3740591907397
92.137786832094
91.9126379002657
91.7047147027831
91.5200222961592
91.3643592557608
91.2392028341073
91.1410332881332
91.0661231997785
91.0108083854753
90.9714707178237
90.9445240123241
90.9264028536944
90.9135542788869
90.9024322663589
90.8894950039768
90.8721916597077
90.8537357621286
90.8394202433758
90.8345350215194
90.8443720294316
90.8742392935281
90.929481245014
91.0155054088341
91.1378157323885
91.3020529678849
91.5139034975195
91.7729497074045
92.0700442158144
92.3952435828813
92.738375044079
93.0889826586409
93.4362956932096
93.7692209407264
94.0763608873154
94.3460596123531
94.5665073682796
94.7307949318291
94.8426746048663
94.9074692416527
94.9306843179306
94.9179561938233
94.8750060323214
94.8076000090994
94.7215162398539
94.6225186690344
94.5163379277272
94.4082380612152
94.302041375741
94.2012476760624
94.1093280528748
94.0297302325606
93.9658864365602
93.9212237275016
93.8991768473024
93.9032035881447
93.9368027808523
94.0028765315705
94.1001606914099
94.2257580224308
94.3767896340828
94.5503823020173
94.7436533885551
94.9536974827528
95.1775747389426
95.4123009252328
95.6548392219449
95.9021139868172
96.1511303804868
96.3988935593514
96.6423470913144
96.8783740839979
97.1038005756356
97.3154010368582
97.5099060666211
97.6840123478904
97.8343949044586
97.9585402622273
98.0572318983856
98.1321230095744
98.1849140501283
98.2173446803301
98.2311861833957
98.2282344105023
98.2103033027755
98.179219029213
98.1368149083429
98.0849500257656
98.0255312323191
97.9604666552217
97.8916568543968
97.8209930211817
97.7503559159916
97.6816155355343
97.6166314990711
97.5572541432851
97.5052645783741
97.459645157253
97.4155113864507
97.3677123235491
97.3111178319218
97.2406251169189
97.1511705980391
97.0377470009886
96.895425490688
96.7193825824039
96.5052051903371
96.2572161240467
95.989766959017
95.7175099087576
95.4547785495615
95.2155968855977
95.0137299998544
94.8627742753902
94.7762860479394
94.7679488844589
94.8516136687301
95.0299093281829
95.286600163167
95.6037184298662
95.9630789798916
96.3460769594271
96.7335537237285
97.1057351648442
97.442248334409
97.7222227016364
97.9251254054935
98.0452525649752
98.0921151550988
98.0762683220335
98.0085234344367
97.8998221387066
97.7611333968465
97.6033747543334
97.4373582413061
97.2737606901185
97.122562065224
96.9860994222367
96.8612856191707
96.744955268745
96.6339785185276
96.5252564986511
96.4157188012413
96.3023229395365
96.1820557390306
96.0519366120898
95.9092330866716
95.7541018911236
95.5887535283172
95.4154217217047
95.236313747852
95.0536074195542
94.86944910247
94.6859527308542
94.505199785388
94.3292401954302
94.1600800155875
93.9992557045705
93.8477664094929
93.7065730240632
93.5766304053674
93.458889671242
93.3543006839648
93.2638147238246
93.1883873583661
93.1289815155397
93.0865709499556
93.0622728150022
93.057579139286
93.0740660539302
93.1133394825638
93.1770427072052
93.2668646396067
93.3845488692015
93.5319035731304
93.7108123902794
93.923246380242
94.1697572572118
94.4428619166061
94.7322526536282
95.0273859209046
95.3174575015802
95.5913998423753
95.8379047609516
96.0454729864029
96.2024916482207
96.2973402023006
96.3216773514051
96.2826380463898
96.1921775486559
96.0623558583886
95.905223920617
95.7327409275383
95.5567219410561
95.3888152880918
95.2405087948729
95.1231638470782
95.0463304450017
95.0083578914138
95.0032531090598
95.0250916698257
95.0679915815074
95.1260835030185
95.1934882814456
95.264301734667
95.3325867012752
95.3923724399593
95.4382749704816
95.4697195863091
95.4884205027668
95.4961193342021
95.4945673027906
95.4855215233345
95.4707419234177
95.4519888074784
95.4310210691059
95.409595052602
95.3895077654524
95.3729759139292
95.3624506455424
95.3603853353275
95.3692366907492
95.3914697456743
95.4295641399894
95.4860217133365
95.5633754566939
95.6641998839715
95.7905468123098
95.9382929449908
96.0994785395833
96.2659975214862
96.4296351430101
96.5820654575947
96.7148630516187
96.8195294848059
96.8875347530193
96.9103738389591
96.8811087543819
96.804501237492
96.6908642479338
96.550550077683
96.3938505303498
96.2309516386611
96.0719103349135
95.9266524907266
95.804991633951
95.7166677268425
95.6699946010152
95.6610682035119
95.6797578799775
95.7159265291039
95.7594350669984
95.8001160928673
95.8277690766704
95.8321772172567
95.8031460656738
95.7305637603775
95.6061262841076
95.4376150203174
95.2416925842665
95.0349223691804
94.8336046804531
94.6537687278073
94.5112194066562
94.4216368495645
94.4007277702903
94.4644293866776
94.628024456899
94.8875103595988
95.2222165094707
95.61074423381
96.0312030856934
96.4610049943819
96.8767586573358
97.2542729741738
97.568679478134
97.7946825376065
97.9099127876042
97.9183181816698
97.8378600664425
97.6870461188918
97.4845219535108
97.2488411070036
96.9983062389016
96.7508810701901
96.5241706381876
96.3354666211719
96.1997949074178
96.1160055430901
96.0755041791743
96.0698132779106
96.0905486270528
96.1293658606643
96.1779217433081
96.2278499708728
96.2707514713886
96.2981993130621
96.3029654101859
96.2864129940678
96.2536381791342
96.2097584058712
96.1598831147524
96.1091046945646
96.0624948526813
96.0251063595759
96.0019801157378
95.9981575087041
96.017990119628
96.0608359137706
96.1239040012284
96.2044079746548
96.2995635851912
96.406579343669
96.522648722525
96.6449439582217
96.7706114711517
96.8967689333628
97.0207344765416
97.1410249487091
97.2565493607237
97.3662080276714
97.4688934774606
97.5634918710905
97.6488846827807
97.7239506411546
97.7875679309425
97.8386169814591
97.8765040166047
97.9022218467479
97.9170724769408
97.9223673667094
97.9194246912512
97.9095669456119
97.8941188992142
97.874405905607
97.8517525701955
97.8274760144066
97.8023695453548
97.7762954433976
97.7490203136865
97.7203113629707
97.6899364621104
97.6576642194978
97.6232640652816
97.5865063462704
97.5471624313774
97.5050573208249
97.4616676749339
97.4204067350626
97.3847876997694
97.3583148748364
97.3444890081361
97.3468151409041
97.3688129907897
97.4140299097082
97.4860564951409
97.5882132116109
97.7187967205368
97.8721299565779
98.0423931775277
98.2237059262222
98.4101097913917
98.5955581906731
98.7739134249831
98.9389512889793
99.084373519824
99.2048503401241
99.300468257357
99.3731513463873
99.4248704656418
99.4576333419681
99.4734764620025
99.4744577022875
99.4626497463218
99.4401343249411
99.4089975929267
99.3713605085614
99.3294081925886
99.2853277512745
99.2412991096974
99.1994945636182
99.1620792852086
99.1312127744391
99.1090512497356
99.0977509750382
99.0992784616792
99.1122252846899
99.13231444818
99.1551752923359
99.1764304236957
99.1916951977887
99.1965810743799
99.1867028546451
99.1576897899439
99.1052005178435
99.0257511165444
98.9206370181519
98.792887353369
98.6455374266959
98.4816136578364
98.304122767019
98.1160428498745
97.9203163259346
97.7198447246991
97.5174852580376
97.3160491172933
97.1183014275969
96.9269627902909
96.744712346691
96.5741923023657
96.418013860424
96.2787645247242
