Value(μV)
-25.5574634736601
-10.152022903191
-0.856866436932783
0.0865083952159598
-2.29179281909739
-0.676133649541153
6.65224964456684
13.9892844355438
14.8522148236142
9.44057531611691
4.08385385926913
3.54697232620208
5.86279580239907
6.0714393120339
3.76626810665052
4.30659564473304
11.740434447224
22.5859236874281
29.0087270501129
27.7751780180336
23.267567432358
20.0489710380641
14.5031061391261
-2.41386420211564
-32.8930064223022
-65.3524002551234
-83.12368443353
-80.5514242230724
-68.3583512125855
-61.7798722776948
-64.9172879570271
-68.7608351869626
-63.3159959689829
-47.3110286111292
-23.3336837626842
13.6782354313293
76.9348516885733
173.66990687817
293.227981735305
413.827234543895
521.480932207766
617.238374532143
701.308006158184
752.605396622661
733.059046549151
620.465279236039
438.223655171249
246.96323140332
100.076499593048
4.17127455962092
-77.0063863225545
-179.764513073104
-301.853158968682
-404.770934430678
-450.970159712581
-436.926164119648
-392.171642214736
-351.334099481661
-329.835054917399
-322.910992276168
-320.137217364012
-315.608111369673
-306.208190669172
-287.237218788656
-255.232242694806
-214.744098643929
-178.294799292918
-156.735117811038
-149.822957105736
-147.560557324668
-140.663741352601
-128.483819086025
-116.568076507026
-108.369084298475
-101.404783285684
-91.4641955860994
-78.5254765323007
-66.9241406437658
-60.2005504016785
-57.4242938030561
-55.1626235607124
-51.8942792121501
-49.113929843708
-48.2314447182702
-47.8212754529556
-44.9319685550724
-38.6406363776073
-31.19557889678
-25.3515952522439
-21.3519686599383
-17.2408376444851
-11.8057044895823
-6.24160728222284
-2.52990611436966
-0.813918634435282
0.803227379107669
3.8571449649241
7.63728937821461
10.1595314208348
10.6833731150246
10.6430695534723
12.0094903749409
15.2859615812602
19.5590589626811
24.2366861229366
30.012794700525
37.7726037622564
46.9023227376282
55.2318107625917
60.7594642580229
63.1353331279888
63.3097324357061
62.0774724274888
59.4518294620897
55.4905628547679
51.2223279145928
48.2448683783503
47.3762007406463
48.017779905362
49.0064938336866
49.8861949572104
51.0919125501031
52.9962772488586
55.1838129153453
56.9035640450401
58.0298824819969
59.1828471486615
60.7860290103928
62.2727779439188
62.5162628277184
61.0214723402106
58.4507152663712
55.8859422290354
53.787310594276
51.9116828604835
50.1571691871593
49.0957338113799
49.3928046851502
50.8133554355243
52.1322990924429
52.188165837035
50.8998450747956
49.1020923669829
47.4968914018937
46.0445162592461
44.4608389400454
43.0271693268171
42.5376698650792
43.3781429751469
44.9206330404995
46.078434538227
46.4159729095104
46.4998708487977
47.1171527712452
48.3734185966871
49.7575900187
50.9608084361122
52.2691021402395
53.9664365529579
55.5635204010992
55.9794328189869
54.6029294345007
51.9898466199442
49.3501566806956
47.4623761741048
46.3208741561884
45.8129344368387
46.3576570578207
48.5159733557556
52.0164602945818
55.5420072608887
57.7463415057839
58.3931435743902
58.2824137802303
58.1024728859836
57.6627808095045
56.4224429391975
54.515319543053
52.8110185957912
51.829597038008
50.9018356368309
48.7566929584519
44.9278849999875
40.2862521237315
36.0551055431464
32.5453807066165
29.1557569344219
25.5234035885461
22.2286682844548
20.075734727985
18.8869738879232
17.452776178581
14.8201239904054
11.353907393338
8.2477050439586
6.10959749853362
4.39399879218059
2.31439646341718
-0.0574636645421869
-2.00038308163908
-3.36958476709308
-5.13829908761792
-8.40485902326326
-13.0429325045382
-17.7127807613331
-21.2557222266736
-23.74563914282
-25.9499062905067
-28.0357518357547
-29.3147261003232
-29.3868343200775
-29.115446928591
-30.007355838256
-32.645603228307
-36.1144653249372
-39.1376976096634
-41.4790821314099
-43.8600142087195
-46.619071689991
-48.9830474549631
-49.9684865260366
-49.7134336519719
-49.407571651978
-49.8193238791188
-50.308212946108
-49.6327380029139
-47.5351840984379
-45.0669872228538
-43.2777670728055
-42.0491986923907
-40.6371109525943
-39.1532380169883
-38.8814428600247
-40.8275942915999
-44.3115593599646
-47.4972379228078
-49.301512433045
-50.3077132747243
-51.5706806398228
-52.9504883852028
-53.2335925461597
-51.9117110996486
-50.2007612566846
-49.7704157792078
-50.6571958288915
-51.0300714745151
-49.2061753740668
-45.4454820707206
-41.3255188890572
-37.6121495592634
-33.4692502890231
-28.0535441329555
-22.3421472710108
-18.6432499597501
-18.2260894241989
-20.0073215300184
-21.9491724937596
-23.3780061211762
-25.2941838866603
-28.4048879367889
-31.5945097483744
-32.9401437996115
-31.9784534797887
-30.2217497087394
-29.1877193607909
-28.4885464777624
-26.4837830540601
-22.6509622941185
-18.5621954630347
-16.1752560669309
-15.6741326660966
-15.6691270122833
-15.4137592991495
-15.9899774353072
-18.7771767707465
-23.1861171746668
-26.7292117225236
-27.4954060257514
-25.9288677416869
-23.6972763925202
-21.2558840839178
-17.4090928161062
-11.4474902954502
-4.89290797436528
-0.296014569092986
1.54403672437401
2.33520458521715
3.96287634409175
6.07333365437993
6.73620113934705
5.28401600700326
3.46994532352955
3.26065313115195
4.12635174065606
3.54019080740401
0.243814214959201
-3.93239883895357
-6.18842975968775
-6.1692664197159
-6.21550095204899
-8.05636688878248
-10.2848666251777
-10.0505893235892
-6.8659730169228
-3.48766663799551
-2.53671487909411
-3.16841980849351
-2.22250637858165
1.50054764362928
5.39384576095144
6.15354503135664
3.88408963852561
1.81549395147028
1.94296291814118
2.34943461575567
-0.109609270934584
-5.172196312342
-8.78868183377677
-7.77459010660734
-3.58278821227169
-0.223036962004157
1.02385952811432
3.10039836524532
8.763836705044
16.0959908710109
20.1678533583471
19.0589566728942
16.3656419046363
16.5607011208403
18.9910394135636
18.5217038397328
12.4169579249969
4.64594175303919
1.67413443736534
4.76970705267109
8.72810528051454
8.86162531557219
7.18113088993504
9.36940099294665
16.1503332056209
20.5147104839047
15.1366941542747
0.870959549866111
-14.783522857767
-27.4321960879153
-40.5848039731764
-58.2850913557954
-74.9719981438193
-77.3228839339995
-58.0437919051257
-24.4711913618576
11.1904982407516
50.2866562323509
111.360207165568
210.897632968265
341.495674302776
474.085788168397
583.875740567855
669.784353997708
742.225174417834
792.092217039463
780.757205477136
671.312586617377
473.104133555508
249.732398294939
74.4134810366537
-27.446071067768
-91.8471513064029
-172.474974203687
-284.257681698934
-390.170287945735
-441.009233120157
-424.605748777557
-375.843988509029
-342.72328331953
-346.604856207066
-373.647100296584
-397.422479550092
-403.561005032803
-393.745681312613
-373.685703553996
-344.257694459396
-304.639367600822
-259.111671047318
-216.793433628274
-185.132379742661
-165.95555409955
-157.751858743679
-158.797376809158
-165.852575374549
-171.411332507978
-166.217764228977
-146.924093352001
-120.425388797463
-98.5113750168631
-87.4766301299907
-83.6544770948376
-79.2608723300661
-71.251676055591
-63.1868667909246
-59.1650651102033
-58.1891155147619
-55.733137697048
-49.6890259874396
-42.7101603626164
-38.2372486259265
-35.7600666687624
-31.4920164558528
-23.3281749002925
-13.5073440428511
-5.66174603862608
-0.290752535233468
5.47276708051422
13.7109185132589
22.7355242421465
29.1072771572894
31.9277420120562
33.8528099406433
37.6584892569735
42.8827301310603
46.7565914825907
47.9854270552717
48.3925013155777
50.4238619982767
53.9223083608836
56.3820274465235
56.2618595935075
55.0262648441356
55.3716057112373
58.0508939698799
61.3592125893651
63.7279064897199
65.8713723569248
69.6943526261355
75.5063908618555
81.2563123903755
84.7765386632167
86.1118676346673
86.9990211524826
88.3311782057014
88.98569741396
87.4760338543201
84.1551613457827
81.0476977492439
79.558681428134
79.0580473496073
78.1113948587395
76.6363877855556
76.1143468404584
77.6058108370904
80.1951952412115
81.8757803460049
81.6787591730657
80.29673707986
78.5293323107002
75.7696572029898
70.6393295420321
62.9694715528354
54.4985718500162
47.319862433495
42.0439840289269
37.9724944105738
34.8870743519884
33.9204714002861
36.2282479767248
41.1805649596259
46.559705562591
50.7029402052683
53.9581201334272
57.6160691540953
61.6991085404767
64.4879507458526
64.4724018494035
62.2824391186942
60.1089160390577
59.2648615316449
58.8939544399097
57.3983865298029
54.7374906134282
52.6700043831511
52.6353719219005
53.9644024079627
54.6905497121962
53.9466107336123
52.9422169975562
53.3262219612839
55.0381552073644
56.3727250637842
56.1559905977057
55.2448458925443
55.4075285071164
56.9568803425493
58.1182585805256
56.9823192353434
53.6643250261921
49.9927537164746
47.0833782591442
43.8002955455402
38.0998445209478
29.7787978044374
21.3752597639266
16.0215091414997
14.5096519972608
14.7019332239796
13.8012655634357
10.971557834019
7.67982467419397
5.76243783929468
5.48565575554379
5.46655143521459
4.12424517517642
0.946803150540525
-3.4943099954188
-8.35414557102387
-13.1323879387769
-17.693841279677
-22.0183739697822
-26.0465342752627
-29.6316695804149
-32.5143131916072
-34.4087899300857
-35.2640619206665
-35.4607969473259
-35.632216260093
-36.2095146551282
-37.1970893451411
-38.456250281473
-40.1177049836869
-42.5254577713463
-45.7124409664676
-49.088307534197
-51.839182808967
-53.6418613014906
-54.8304280267941
-55.795786174627
-56.3823373558881
-56.0813647581602
-54.7937493059472
-53.1478865805147
-51.8822749489814
-51.0245895527966
-49.9329486473702
-48.2030630916657
-46.3043434457913
-45.0941264374571
-44.7814335365038
-44.6635244465058
-44.0161262352407
-43.0303755042517
-42.5787075650143
-43.0683224127237
-43.8448871702891
-43.9528105237047
-43.317455190547
-42.8177646415111
-43.0949909736559
-43.5825137771568
-43.0199709477892
-40.8502557244473
-37.7537311407464
-34.6574634536814
-31.5250058092672
-27.5427466462665
-22.5086154687583
-17.595972334962
-14.3710911204638
-13.1777391673359
-12.9151383322873
-12.5584447930787
-12.5396821548453
-14.1746658204741
-17.7227418476723
-21.4640160210389
-23.0863709780012
-21.9425488819027
-19.6557228376962
-18.4150147500918
-18.8650687803847
-19.7775573192155
-19.562054589082
-17.7802215302585
-15.2216397239943
-12.9115856052371
-11.3338489604176
-10.4142755328264
-9.81687575292338
-9.14040041545493
-8.15443276784968
-7.10991005859296
-6.60277870948533
-6.73887313111177
-6.52390748100687
-4.71643772917014
-1.69594768128445
0.00411049095335514
-1.99188748212049
-6.71361935560383
-9.77095532195222
-7.5888248998062
-1.89236291757928
1.00116545807199
-3.65215487692073
-13.6424634257021
-21.4423465477437
-21.6660869537965
-16.4190071057823
-12.6263304748528
-14.3672777314409
-18.8613393632084
-20.3900644632929
-17.1762405886232
-13.0698989225375
-12.4679434946922
-15.0726348788535
-16.9016893032874
-15.8865095678443
-14.6865958088376
-17.1272288653555
-22.9770612403641
-27.9319081453772
-28.9018156167893
-27.7593498125147
-28.6390781060511
-32.2795375079908
-34.8661500678819
-33.0442915487896
-28.5990731318625
-26.4759794200618
-28.4131317919288
-30.4185114113216
-27.6485158449301
-20.6516992856463
-14.8872115632473
-13.939067523489
-15.135199217582
-13.3942710612968
-8.41616531193374
-5.66279535415101
-9.43299079503236
-16.867251279353
-21.0006016355284
-19.3479134295432
-16.9135264970775
-19.4213202219587
-25.5964354426837
-29.2315067483705
-28.9795947640736
-32.4666143627136
-47.2465366031232
-68.4199974171834
-79.3325445352344
-67.197159500233
-36.166594109536
-1.05669025183153
32.7401134428843
79.6402432411466
160.576013806476
279.671823911303
417.417440780659
548.123351076074
660.376583692664
755.302203526189
825.07718292484
840.805580105247
770.848622703038
614.690680098735
415.020812209012
230.25764307035
91.6535216735782
-13.2522634200889
-116.116051644548
-229.710904715042
-335.262517850779
-404.306183034909
-427.922778372124
-422.725613041791
-412.036957251326
-406.60889637953
-404.264146310822
-402.465594200217
-404.330916202232
-411.080786566539
-413.699497349531
-398.000685118984
-359.474290372356
-310.545664920514
-270.621226086267
-248.991343738524
-238.602329072425
-226.089387657687
-205.858123466986
-183.434098087694
-166.826512796828
-157.271898196074
-148.954643307283
-135.840454839781
-117.075754366707
-96.4828859278855
-78.974863200909
-68.0948311510925
-65.0269291393461
-67.5069602890353
-69.5135868458094
-64.2315164076603
-49.4026679679453
-29.8045748124822
-13.1909207137471
-3.17606537651633
3.3483353374262
11.48250754845
21.9995137532955
30.9433485865367
35.265447707529
37.1414100634833
41.3950935135426
49.2697816037284
56.4971906407601
58.2578297413282
54.9614233577163
51.7251597739667
52.2694575458711
54.7953711195248
54.7591398274384
50.8346411557068
46.6156497943807
46.2028248993073
49.4331668622457
52.6161779036541
53.4789779382235
53.8828332506893
57.065477075243
63.2403514309628
69.2428120517552
72.4879833474685
74.0315277882418
76.930410150558
82.2374961564041
87.7899323182627
91.0679039493938
92.1546461236653
93.0190732996694
94.4000098425098
94.6480949865461
92.0369547369479
87.2955502534363
82.8524390833638
79.7905917758013
76.6715780908221
71.9210983860969
66.6382760784478
63.9651824079079
65.600766655
69.8599968517824
73.793948327736
76.6657662341371
80.3029801595267
85.8831232096806
91.3763199193446
93.1164451446347
89.7168298231989
83.5106707371157
77.7694674235375
73.2137095400124
68.1025849512082
61.5673556441954
55.7665275021281
54.0230815003274
57.2242405069902
62.9054317555188
68.0301493949299
71.9759419754207
76.2587320026343
81.7646377816541
87.1815671661062
90.4189515466402
90.8653140890982
89.5119625914168
87.0627182418911
82.8473829917134
76.1231560736119
67.9884036780854
61.1918775881052
57.8064164783012
57.454510305878
58.0112827443446
57.6279511414456
55.6148511599816
51.6995763303763
45.4767117186324
37.2684283631954
29.078209984851
23.6237172269351
21.8728031766677
21.8962953400703
20.7204508871294
17.2894765224287
13.1484779136153
10.1346861427518
7.98706347710956
4.78906172529764
-0.466211273370558
-6.53401935430318
-11.4591793773074
-14.9021107039999
-18.2095546547121
-22.2356899858306
-25.9089845978345
-27.5308511962097
-27.120675635797
-26.6521764101927
-27.7465393742866
-29.7560564196289
-30.7340252747425
-30.0499918547055
-29.2447208740143
-30.0016455841678
-31.902114274679
-32.9596465380745
-32.3029760841434
-31.5069041114571
-32.7546653283376
-36.1346690039405
-39.5636835567083
-41.463340231341
-42.7176383582594
-45.3247336523987
-49.4673457363388
-52.8850658941579
-53.5358742511566
-52.2152062565672
-51.660920333844
-53.0562908884811
-54.2556407373277
-52.0933229781716
-46.1336927012859
-39.3892949544925
-35.1654424794042
-33.7886649539697
-32.9305536023296
-30.7827628145525
-28.0823480486858
-26.7793001918007
-27.4128671647563
-28.5818406026127
-28.8922925851524
-28.5940978692906
-28.8234323050148
-29.7315240332929
-30.1986773950172
-29.5129315240476
-28.6029065661647
-28.9770708239918
-30.673401509137
-31.9789064606304
-31.4107433205102
-29.4421116901873
-27.7404274783673
-26.9447904977729
-25.9396199417851
-23.5893450582578
-20.5923182616635
-18.8937711989815
-19.3186301907148
-20.5078256846487
-20.609882919856
-19.5759710616804
-19.0813217460325
-20.1967229979461
-21.9112570057953
-22.5006410322858
-21.9426471536132
-22.1097807675364
-24.3488137515549
-27.5636468995439
-29.3880888714471
-29.0437943304269
-28.2168570352624
-28.7963512654442
-30.4058885237818
-30.966380336139
-29.5658308166503
-27.8234659822008
-27.8303171430061
-29.2458900624789
-29.3518398777918
-26.1130001374238
-20.3942908260727
-14.5499969679704
-9.31526480967771
-3.13898349921582
5.14576860666022
13.8995852427877
19.8704833931378
21.6326253112379
20.8479858335728
19.6909778360093
17.8338171031096
13.0466273820265
4.693309625175
-4.58010164576095
-11.457705209231
-15.648735175709
-19.7732325305878
-25.3973404693954
-30.391267539129
-31.3491069420595
-28.2177898734148
-25.0320388890881
-25.3360671757557
-27.829006201343
-27.9523103304255
-23.8312443817717
-19.226266240927
-19.4826694384902
-25.0950249090908
-30.6968121059177
-30.8510150870781
-25.801972623928
-20.5253997267574
-18.674582063967
-18.9811725080495
-18.046512288444
-15.2201639882997
-13.0423678779441
-13.0753212707697
-13.2119028251403
-10.3923744793048
-5.08336445889861
-1.20835908358641
-1.26938868090436
-3.12973982036058
-3.03580002312499
-1.05902213056747
-1.45460834960177
-6.91461912027235
-14.1673323770293
-17.2946895645738
-15.1457893939878
-13.223819079061
-16.9839503035412
-24.8146761184947
-30.1295608963061
-30.4783060747674
-31.8150089564395
-41.4100113462412
-57.5822012916465
-69.5530088027114
-68.4181524842222
-55.3082428585826
-35.1695842124183
-3.12048017274066
57.9317851772687
161.528200795581
299.853226616152
445.553394253351
573.442492522021
677.961375779884
765.357127608998
829.255131925637
840.437032697183
768.076534591615
613.348829521844
418.642397695132
238.824739677881
101.021055120589
-8.03382679604798
-116.874348803059
-234.619953804363
-341.586814738387
-410.408565744528
-431.815255927522
-419.485108010468
-394.803045864056
-372.066885371926
-357.564240849985
-355.734718774834
-369.04781212149
-391.159696211554
-405.617573625083
-396.924890412594
-364.200615944974
-322.036207189126
-286.712921644901
-262.496456598647
-242.144750759019
-219.006887812986
-195.512620086267
-178.842620533476
-170.611576425809
-163.755854389974
-149.954831482051
-128.163159145374
-104.588580836517
-85.5049460398731
-72.0751296587842
-62.1133043952213
-54.469279080861
-49.6497824952305
-46.8389884632738
-42.7806478331781
-34.9322710059313
-24.7465056521754
-16.3062937352826
-11.7414361699789
-9.26963238192941
-6.21232074620979
-2.69334297985583
-1.00457378286922
-1.75945072846942
-2.45490689236927
-0.628438874091231
2.88837450896183
5.60744321814424
8.03725873439103
14.5315498722468
27.9136091275199
44.1896437169909
55.0202192666619
56.5927396101862
54.8069786439227
59.7527085561594
74.7053801564742
91.8417957241554
99.774834213204
94.7855125691251
83.6986529645245
76.0595759616086
74.9476554760653
76.0746503539527
74.5017175228412
70.2514511048905
67.092269799308
67.6262012592491
71.1870866321566
75.9669694131215
81.1493039707923
86.0333351548466
88.4897421636458
86.3869962025556
80.8869383809036
76.6910915516896
77.5085996625685
81.5777646724471
83.0690335728157
78.452399913427
70.5668420764355
65.4750191172625
65.7510364458708
68.1141478175428
67.9426587442543
64.8642863522476
62.6438077930028
63.9513923863637
66.8692692643781
67.427462848335
64.6553360537074
61.6363567827173
61.4298657778163
63.293383748052
63.9936813585641
62.2594605078813
60.4730896687061
61.4961610499455
64.9000510406632
67.510379551598
67.4382894769228
66.2852370784118
66.7411718955059
68.8517488297667
69.85029156587
67.6672123305266
63.4500174272771
59.8679839879866
57.5783917380327
54.5652994155491
49.1595128576424
42.6723468099565
38.1421735917067
36.8448749998192
37.1061562086446
36.8368070223804
36.3090374915647
37.4851540829293
40.8821025963145
44.2548120659271
44.9558584800696
42.9403457435936
40.5166434301603
39.2165814957333
37.9069450159164
34.5640364311493
29.2766295242517
24.4486459900108
21.902986382336
20.6824775482303
18.41576693665
14.4326653495217
10.5566326248488
8.59611481748598
7.87557646448469
6.02463967813232
1.92366036235941
-3.07623529122442
-7.17191510765542
-10.5820678700247
-15.1618875412627
-21.7078037318071
-28.5754122714572
-33.4605422053604
-35.9903020384738
-37.7422873370945
-39.7785388464476
-41.0798576135408
-40.0010424766904
-36.762876068977
-33.5613652818347
-32.0390955886775
-31.4076522087165
-29.6939176055473
-26.4681377651002
-23.4585866469194
-22.2673900701271
-22.2522689440675
-21.4198292165505
-19.1721514744549
-17.2655957265272
-17.674623340744
-20.1248970144767
-22.4947685216971
-23.5202139774532
-24.249039373622
-26.3946254273671
-29.8426040147165
-32.6369625383395
-33.4435593136294
-33.2101751116106
-33.8417094803088
-35.673668779861
-37.0759207612161
-36.6427873707095
-35.0056897013346
-33.8820932343588
-33.7094746514249
-33.0766823780132
-30.6998022146635
-27.258138547157
-24.6213730876661
-23.5270721550148
-22.8275093710776
-21.2638881066811
-19.3112283538547
-18.5963028938912
-19.7321196815167
-21.5469711754923
-22.7146151813271
-23.4712363337061
-25.0436700477289
-27.6843689864602
-30.1982915274603
-31.6784624932151
-32.8578518339924
-34.8746189148627
-37.0773386640571
-37.3605100599857
-35.2775320957197
-33.8440394073554
-36.7948016239032
-43.8685971978291
-50.0975575008741
-50.8799999596319
-47.3034715995912
-45.0746494859251
-47.7320591026996
-52.0087968808812
-51.1132678656158
-42.3196033747687
-29.9362828389651
-20.1938140177978
-14.3295991348889
-8.18744739066194
1.50909595162116
12.2336219330888
18.186252205688
16.9484314082142
11.9300383339128
7.82442598074667
5.10397559034379
0.463180628218595
-7.78012724111713
-16.6256344389812
-21.6690224701463
-22.3402867903045
-22.2581608077921
-24.3644957789998
-27.3099493358032
-27.7605916341104
-25.3895301843996
-23.7994393166458
-26.0929618022288
-30.960474668879
-34.4867224745687
-35.2783728852322
-36.0844063513801
-39.7391485520079
-44.8513763788985
-47.0798130088852
-44.4411915411877
-39.6755930448538
-36.5167174226299
-34.8063717213241
-30.9994006292936
-23.4690125984613
-15.5362537339995
-12.0089894775695
-13.5906373647953
-16.4599768660771
-17.5824779652085
-18.6995687922475
-23.612751106827
-32.290798357042
-39.7094061622498
-41.2216101211563
-37.6055739059733
-33.2647535879332
-30.0909698114273
-25.2808544566669
-16.0861981292243
-5.0340852940409
1.69938575003312
0.941178841840625
-4.5436310030959
-10.6804441717197
-17.7248588210757
-28.7460127525152
-42.7956651635826
-52.8591108255071
-53.0769760051869
-46.6362076217488
-42.98480749661
-46.1133307314423
-48.4527198056012
-39.4324399004949
-18.7635982724332
3.74321927905237
24.4197954377178
58.5569444517863
130.558822931152
248.214961700744
389.685795560505
520.637971361839
624.439754908293
710.736439756424
790.771134645001
847.476833585847
838.061070995935
732.154301615344
547.003399238763
340.610562373268
166.97590066479
37.6345312979536
-73.6061064963474
-191.776510929649
-310.537271304025
-399.882540625083
-438.384806766549
-433.20984010832
-409.596108483162
-386.506716709954
-366.459015703911
-346.298031179303
-330.570160568504
-329.315748777334
-343.914590615761
-359.878604667159
-356.869709417905
-326.000848974621
-276.86164197747
-228.709783912405
-196.175001234451
-182.322289241617
-181.558539823439
-185.738678082191
-187.764257403884
-182.949233552331
-170.341524260902
-153.247794949048
-136.862155532086
-124.123009805674
-113.924388323398
-103.540586942469
-92.0796868532944
-80.7682548055207
-70.3825169320606
-60.0221125437202
-49.2658395994707
-40.5051111018182
-37.3764663862971
-40.3797870321076
-45.1758330850534
-46.374312076671
-42.7732305454308
-37.8136166909445
-34.69475246186
-32.2036437961226
-26.4092615245289
-15.955847133037
-4.13090388414484
4.99143074596845
11.4512959421393
19.1001735473715
30.4570856920609
43.2704329454639
53.2042455928505
59.287446983935
65.1607507199594
74.3154873642104
85.0504581263841
91.4414370007359
89.5090115126556
81.6083022701435
74.1309340168243
71.205038326659
71.2357129525459
69.4794642206806
63.2277740659733
54.1227606093769
46.056563589775
41.7067007384304
41.1248341250385
42.7516707977177
45.0037874854476
47.106305794386
49.2680769780231
52.5048347041322
57.916674301118
65.5864263203982
74.1805604823057
82.015591064737
88.5961301727212
94.6991275975089
100.651975433181
104.856587256617
104.629653881898
98.6686496713021
88.2881627984133
75.9330936058161
62.8390423405689
48.7944780343258
34.2435504300085
21.8479582117748
15.1625943622314
15.7057369417621
21.8260574520072
30.6357610208615
40.5688593260545
51.5357708947376
62.867845401261
72.0944528780842
76.4352249877157
75.2930634096927
70.673006230526
65.0375019280198
59.2525725423713
52.972202273751
46.581466627977
41.9147583019085
40.7510745020515
43.0781361958468
47.3778304407711
52.4946458242146
58.6379315498476
66.3350098931415
74.8994859551135
82.5407850020809
87.9728444822153
91.3989555528348
93.6715736334135
94.9039293704852
94.4603461394545
92.2541189835487
89.4266075367375
87.320413474192
86.0311263356544
84.459055652861
81.7886403499196
78.4137225874601
75.1269204471538
71.8224663980226
67.6684950241496
62.6449255897803
58.299949092366
56.4352782461116
57.178146654687
58.8508354251462
59.7929435491961
59.7348100179736
58.9223751353552
56.277780166128
49.3569426567376
36.6176902824333
19.3579819273033
0.824643108285262
-16.5550010041735
-32.4874447880877
-47.1922344404336
-59.1620656564355
-65.4659240043901
-64.4795468519788
-57.6989641465914
-48.3095490318633
-38.2128663636286
-27.1180849746507
-14.6383295951748
-2.50618465764421
6.07871205789335
9.25014066228177
7.972019087148
4.4807550952685
-0.219845172484893
-6.6687286460373
-14.9322315746608
-23.1781993464215
-28.8942209966793
-31.2700246886439
-31.7308344550085
-32.0277910274211
-32.408726034292
-32.1215661086898
-31.3016874339819
-31.4710173095807
-33.8312838707803
-37.6044547500479
-40.7214805788597
-42.092422985797
-42.5813894544722
-43.4812686992331
-44.5479422507367
-44.201139312444
-41.6056114566589
-37.8402740962399
-34.5650177474896
-31.9233415679266
-28.4726045360525
-23.3018600001534
-17.625343165181
-13.7927460952145
-12.9720162499274
-14.4006989627593
-16.9689936590695
-20.8546463191795
-26.9810655172556
-35.0824449476121
-43.0918590513228
-48.8534748405581
-52.0870831040576
-54.1761246614633
-56.1637542501365
-57.5935749969572
-57.5826720945925
-56.4923414217891
-55.8076171237531
-56.3089933984389
-56.9628138820812
-56.0325966469159
-52.9942394987382
-48.8506737333406
-44.6619456477498
-40.4654513547212
-36.0426994089762
-32.231343226659
-30.5734698860713
-31.4159706516524
-32.9918777276427
-33.0426341228011
-31.2359039896062
-29.3779130268761
-29.0918778497628
-29.8843778821229
-30.0404222439629
-29.0824156816524
-28.4422092716914
-29.3665941742739
-30.8506855093724
-30.520142407271
-27.5369255499225
-23.7979887091522
-21.747693656053
-21.4879011129877
-20.8256166229467
-18.100404252117
-14.0389978075923
-10.2862362642844
-6.8345332323058
-2.13064281347228
4.10661432696948
9.41648293285119
11.1634599401201
10.3165949512232
11.2195171171764
16.6563320362715
23.7756909644861
26.287669156476
21.200836903726
12.6018955769302
7.88771782583369
10.3823617658257
16.3801994052634
19.5026861699536
17.0753306665005
11.6317717343122
6.94921121774672
4.10012661070055
1.77917154584932
-0.860280699779072
-3.28986846468533
-5.37813453655187
-8.33429806158802
-12.6331553724271
-15.7769696912434
-14.0445722446245
-7.29027118417067
-0.836678465545965
-0.916948327996128
-7.99659613825424
-15.8588893304215
-18.2156412242807
-15.4811271138335
-13.4973428367042
-15.2980467863211
-15.7705013303991
-6.45310273448081
14.026822368656
35.811146715743
45.9611172655668
41.5884162002505
34.533432850607
42.0629168692127
71.7658925426543
114.330371012859
150.229237723449
163.809048801363
152.795967036958
126.641253921038
97.058364915179
69.5664661514564
42.3382439062695
11.6488334281668
-22.0202918361137
-52.7747223767362
-73.466396189014
-80.6633572207923
-75.5748831242329
-60.7121103745991
-36.6513239662992
-2.54316711013037
41.2891328017601
93.495435681279
155.695340007209
234.88529684208
338.570300381724
465.360939279426
601.34037879268
728.11854037896
834.694306793072
918.34212636794
971.073027714557
967.602415890672
874.671431349244
680.677811892349
418.776602084181
156.144468654861
-47.4582057303128
-176.89094412009
-261.225724426239
-338.026480185749
-417.998625507362
-482.107755283983
-507.927775407348
-493.82089994276
-457.421793650835
-416.280730115774
-376.179772584502
-338.474825112163
-312.175204364183
-311.479232784993
-339.970916437492
-381.742397219445
-412.895220487876
-422.363382338374
-419.075068981151
-418.034110838707
-422.279657594772
-421.59693566451
-408.000871798791
-387.876943916068
-375.317790168076
-374.501867517342
-372.649979129863
-352.994463977504
-313.968813621061
-273.622858519669
-254.626250037167
-265.572464113729
-296.223911437703
-328.066105403668
-347.07716284364
-347.752626385298
-329.953121963176
-296.554148261922
-254.439047101343
-214.067945415571
-184.298007688806
-166.661895592271
-155.736551790317
-145.514554289941
-134.394945512168
-123.240127940552
-109.865604593603
-88.0811616300018
-53.8692236093839
-12.1884094534349
23.6945472043729
40.6505106280893
34.2123277981168
10.0175392745779
-21.5286758850784
-51.5250620258244
-75.3497718792767
-92.2829811909169
-104.315278130671
-114.83104441135
-126.565620002476
-139.54984077926
-151.122146232386
-158.499991759868
-161.345046475626
-161.452288359631
-160.057696776719
-156.179495585952
-148.039495210155
-135.630927010147
-121.069111748586
-106.336742818917
-91.4654309211466
-75.5340683637036
-59.0147419780994
-44.122939833
-32.4805782668928
-23.0807901305219
-13.318586626829
-1.92003598676985
9.89981007827463
20.4705501713154
30.2068862001904
41.3546716588159
55.3026388584097
70.9666624159152
86.2993516059822
100.872638085864
116.109697907722
132.862366429808
149.527270491949
163.227661437231
172.695325156612
179.430364696298
186.002519145593
193.802116047653
202.701979738866
212.150480205474
221.501558290109
229.234669026689
233.197941084993
233.06754706343
232.635587137739
238.363213098086
254.378378718478
278.708839188938
305.023652267964
328.377146757799
348.965647767736
370.170038360897
393.63170939198
417.144182340712
437.282908593334
452.882299873981
464.844524477826
472.832360718514
473.575613270382
463.51886513911
442.949162863944
416.635097756789
390.014935638026
365.116596161474
340.455215232552
314.333076487792
287.307215838351
261.271728252108
237.006601206043
213.536682869337
189.783304390515
165.928503099578
142.626577387965
119.396580095646
94.7137428184266
67.9222623460445
40.4639578430593
14.6909904995105
-8.2843580771311
-28.9297329266474
-47.4233309427012
-62.1509280841994
-70.766852998744
-72.6982007201873
-70.0022586487397
-65.4525967533279
-60.1383638332112
-53.3669374715468
-44.6685288749834
-35.0953743165826
-26.0971871400574
-17.5331086244769
-7.55108854897201
5.3695587210074
20.7577696825909
36.9613771176851
53.3560406159498
71.1055528495555
91.5232538503424
114.187579376692
137.262961636097
159.590653288766
181.781845405708
204.809375106214
227.868169117665
248.341734350707
264.117590055841
275.467090714875
284.126151817265
290.678946809012
293.554462919901
291.017716048562
283.708958981048
274.319515264726
264.349623054065
251.714364665389
232.486210721039
205.377455741927
173.893756446722
142.994371205546
113.073044662861
77.7558805747729
28.9438172954503
-34.7352825807586
-104.033446237242
-164.124269743142
-204.742677344937
-226.703411789173
-239.372662635664
-251.940909942413
-266.559320223005
-278.778598835959
-283.410118347691
-279.423740022108
-269.799010551068
-258.039849858572
-245.871839137551
-234.049393804124
-224.038590870559
-217.697310591799
-215.256951862906
-214.49223464123
-212.560397411754
-208.491640937737
-203.355326900213
-198.057569449794
-191.78814221464
-183.274545007497
-173.203754495791
-164.372595191401
-158.876600288052
-155.609160065288
-151.351075519919
-144.461071715293
-136.851080557862
-131.842068503537
-130.448760923733
-130.512679796241
-129.532144844306
-127.496541961416
-126.220441003619
-126.272770307169
-125.671121142493
-122.13067793696
-115.96329457273
-109.850442060892
-105.798120861496
-103.251339939422
-100.752040765109
-98.7555320302601
-99.6193438135066
-104.561048082543
-111.583890176195
-117.315354919722
-120.60802569381
-123.315004186988
-127.250377113883
-131.375385415336
-133.018474820602
-131.57202623557
-129.652032375861
-129.911522106746
-131.528707586544
-131.080226290615
-126.868151855361
-121.099732751534
-116.973549600402
-114.479698205139
-110.630909926802
-104.034110952434
-97.6358257765087
-95.4459128331546
-97.0240843563224
-97.1235467672265
-91.7936717693654
-83.7199951341208
-79.7556965801527
-82.9979296066229
-88.8835856762651
-90.3369066538212
-86.0394532240917
-81.9403468122541
-84.2530478260207
-92.4099182125053
-100.159105907112
-102.810403397141
-101.482099256036
-99.7578515445971
-98.0263286566284
-93.1209781699936
-83.1818389960449
-70.6147255291806
-59.0111729824171
-48.4877052487788
-36.0783811903228
-20.5103720989758
-4.20905974163266
10.7694570157527
26.9323558549645
48.406678576506
73.347766658232
92.2065364555576
96.3892655028788
87.9415163248289
77.5045350847133
71.5405041877912
64.4631949558755
46.8865992944733
20.8722477593562
1.9982672599697
2.52949190367682
14.3663929452863
14.027447852699
-12.7407680351092
-53.8373080952787
-81.8146318333663
-81.3272782678066
-61.2495255314014
-37.3482273185245
-6.91340237720181
52.8432900428775
159.208854828691
301.129968544313
446.218695478729
568.41521243795
661.982521047922
725.585913942581
740.051636626333
674.666133963954
522.54037405129
325.487939203391
153.511570520616
52.4158992958194
10.8853293606791
-19.4440689775068
-72.724173474018
-139.627153789974
-186.532156125231
-196.591137550487
-186.324149519431
-183.685573113583
-197.285869771426
-211.931518775875
-211.16973986154
-196.911753826266
-184.017332308104
-180.200632495735
-177.713541592221
-165.751523714612
-146.055138854589
-131.695796448082
-131.345261604326
-139.059772250953
-141.531943657641
-132.892729298311
-119.196456516427
-108.947499301114
-102.948978466054
-95.5956768084341
-84.0144122215568
-72.2306852651958
-65.5381051278975
-63.4796030379405
-60.885470468176
-55.0277407356005
-48.9723729857577
-46.857011832804
-47.8161604435497
-46.8077001584858
-41.0953782855835
-33.670618345206
-29.2596596557404
-28.4992621592094
-27.9589345240336
-25.4392692552851
-22.8200958110458
-22.3893227333386
-21.9684872604094
-16.3041763971007
-3.83103215540403
9.91716472936412
17.4516188651125
17.3664674294531
15.4178852768739
17.1144708523779
20.8908035524405
20.364658382058
12.9606955728714
4.2738739829334
2.73281757823295
10.8351261268958
23.0368799010822
32.0656734369242
35.7119791416221
36.7320972004225
37.6349128420503
37.8099750412829
36.1126635797497
34.2892278063001
35.8538865477853
41.7108242784715
48.5647371575926
52.5757377295207
53.7179880546287
55.299328594189
59.4029281269753
64.253797714989
66.8388835678249
67.1582852651066
68.4247272751179
72.9497294550673
79.1199590989474
83.3726649279815
84.5263147723263
84.8625663986612
86.7499766119653
89.4271741449028
90.1817309669633
88.233841751066
86.0683175969082
86.3913876453508
88.6820650973023
89.8158703984348
87.8877969033044
84.260651711105
81.3395112459254
79.2259674660104
75.7532171920524
69.7783377891262
63.2363652134104
59.1219361283706
57.9852884209321
57.5010498069947
55.6185997821668
53.1298483087777
52.3497787743511
53.7896523565072
55.3204334204106
54.9493280976301
53.4888088271661
53.5137044416762
55.9099935125216
58.5209432196864
58.67181174463
56.3047806099834
53.7134090983275
52.3571168836941
51.0182841867375
47.6944046474908
42.6287120556972
38.3763217725093
36.7325077810921
36.50038675632
34.9874939091253
31.2649769446288
26.9968268090598
23.9209921897184
21.4575335672325
17.6437226617248
12.0895283584587
6.92455246909028
4.37017382010248
4.06639886105527
3.64616471906969
1.80027939110089
-0.168181282183227
-0.26821231159439
1.40767920505853
2.77535591833805
2.57207097833548
2.08622962449662
3.39960556496981
6.37281870372116
8.34965690425388
7.07095271143613
3.12380250653612
-1.12949911537375
-4.60791141644992
-8.48206330474279
-13.8261222569572
-19.1838786398048
-21.4790526041071
-19.3359790645906
-14.6575369579355
-10.4644298135967
-7.74742611802843
-5.25820180229344
-2.27063281713477
-0.484849013317886
-2.43738288169322
-8.42254721397597
-15.940019103463
-22.4501921751728
-27.9715921147277
-34.3036920452796
-42.0283859470905
-49.2354876963017
-53.5720204695415
-54.8816625064676
-55.0273662716847
-55.2485521409228
-54.5960811287201
-51.4729794438275
-46.1773921505768
-41.0552077825205
-38.0471711374631
-36.8049872004578
-35.7149582824394
-34.3092064443959
-33.811912401726
-35.1945038810267
-37.5150594354295
-38.9281600748865
-39.1115463621661
-39.8607898812306
-42.9566155497583
-48.0055863935607
-53.0033093387334
-56.7807570911876
-60.028947923395
-63.5506874551313
-66.182362329695
-65.3909517995891
-60.0510231796978
-51.9255434268671
-43.8972487638574
-37.1154036431509
-30.5756470974421
-23.4543917370017
-16.9441612754297
-13.0614948820437
-11.9651349024248
-11.3717378119224
-8.96814481780983
-4.8039385118604
-0.654406169781989
2.71436468678033
6.73515039345187
13.1255432904683
21.4510438176449
29.4715451398703
35.8956613662198
41.914579411935
49.3992656833495
58.0185485111481
65.0508526383819
68.2636238953715
68.2833103619277
67.5139018704815
67.0865594942232
65.8033871388844
62.360824986962
57.8064350985693
54.8588804600885
54.8347627300729
56.1059814329422
56.0939940209148
54.278559889559
52.4494527538451
52.0614241521662
52.293605402693
51.3780898148713
49.3510729304227
48.4341510532336
50.3641199730184
54.0689406151175
56.7318782444204
56.9105851889298
55.7205967356459
54.6748782029847
53.21153270778
49.3537477065585
42.7173858210651
35.7826868443534
31.4451661018604
29.7462605896165
27.9481173866871
23.9496849162436
18.7534148610462
14.8927904398839
12.9530865513302
10.7935819347221
6.52693747565364
1.31440099117057
-1.83519942048803
-1.87390138095725
-1.21956023739902
-2.90144750227005
-6.92952868227583
-10.5455905503539
-12.0109583545842
-12.9521275932154
-16.1280813401172
-21.5114545557604
-25.9199403730852
-26.889799711791
-25.8679665679357
-26.5154719768149
-30.2085297061057
-34.540561272663
-36.7821528471029
-37.730375018512
-40.766186299492
-47.243593304764
-54.3568636558007
-58.5532236054104
-60.1385969958661
-62.7822798821557
-68.1666715187719
-72.7769736190698
-71.6254674943796
-64.7661136860778
-58.2302411947659
-57.5817422952109
-61.8423544857563
-65.6740933550199
-67.4716048722622
-73.012615672681
-89.1767111738942
-114.647368819402
-139.03401365053
-152.243766934916
-153.615402783296
-150.573436622268
-149.172854189688
-148.085557486239
-141.899870472351
-126.8998168822
-99.956330696424
-52.5572406240078
28.3449428106844
148.049051263965
292.538373513656
433.790728016407
550.274708028136
640.620264850801
712.543025316454
757.494543622281
742.403954016623
635.255401822074
442.827990283887
219.480359941262
31.3282609309789
-93.2661712063308
-178.825543537899
-268.805061876108
-377.680475267849
-477.306506386246
-528.472470883094
-521.770598893308
-485.422330288113
-455.763921841085
-444.856825515178
-437.999208693371
-417.955379703865
-385.221356381819
-353.394656111798
-330.013218850241
-308.141616052248
-277.646276109857
-240.248341020521
-209.21629019512
-194.623001484965
-192.420137295243
-189.776216854826
-179.09120117801
-163.864002624699
-151.052378265988
-141.051180465992
-127.76692076726
-107.464473185586
-84.370942054567
-66.153673070746
-55.5211210053545
-48.4054302910595
-40.0964652210993
-30.8119753026766
-23.9125890261281
-20.0874963481025
-15.7710852056752
-7.84083146370335
1.93939042482521
8.860972426106
11.179073626983
12.3187415615322
16.5563497049383
23.7889444028972
30.0308034306751
32.7561602675263
34.051570685642
37.6229344838073
43.7703106822754
48.9504454668738
50.419250524247
49.8375901308004
51.1875607102267
55.7879904848865
60.857164986465
63.3232451318849
63.7807048735342
65.4763092718577
69.8172745385877
74.3911646296076
76.082755969991
75.1640225180179
75.0118567711317
77.8608959849877
82.1226502975442
84.6568029972761
84.8962159391551
85.4139443468429
88.2993861405195
92.2160338638035
94.0464384417301
92.9551871427147
91.5321858651115
92.5258225792856
95.4329357958883
97.3433620470563
96.8405503580371
95.809201669383
96.8270893515897
99.6402747820135
101.390076605795
100.295676034689
97.953503248164
97.2360111064453
98.5291182245863
99.1927545180666
96.9003752360452
92.4871925989917
88.6626638270416
86.3917133098296
83.7502373509477
78.7338936532668
72.2782357890496
67.4841349079152
66.0237126288092
66.3598484378634
65.9917458773704
64.6892843760991
64.4959520822757
66.6341128906773
69.5327152000483
70.6487664492598
69.6837712597097
68.934322884014
70.2992096421598
72.8635376532879
74.1863869681183
73.5151856885373
72.6387591018727
73.2761501206858
74.5332820268236
73.8883743270168
70.4773263116607
66.3564602222733
64.0392213273688
63.4989605841549
62.5379747023115
59.9913685531262
57.4971643007966
57.4560393252341
59.844065260689
62.0876729257986
62.2084458672785
61.1493907668187
61.2583328461829
62.9399512661458
63.88418244754
61.8918425715743
57.6019476704789
53.5687813478966
50.9325495806783
48.0620134249368
42.9161380086445
35.9638510175378
29.782070026452
25.8479776194027
22.741553092633
18.1074281418968
11.7725713940399
5.91740893254099
2.11545301303493
-0.800261640782459
-5.19274463893275
-11.4330603059123
-17.2988541749812
-20.7824737211711
-22.6196010255305
-25.2013487470431
-29.2994917912762
-32.9288813112861
-33.8645363565076
-32.5153556414869
-31.3823187172725
-31.8266875293128
-32.4148403811153
-31.0204123842027
-27.9006653430795
-25.6677062771214
-26.1558169292666
-28.2651303221435
-29.5690070653761
-29.5248564869266
-30.0531011513778
-32.7658691346295
-36.5698809553081
-38.8639235201088
-38.7806403068349
-38.2061422404588
-39.242270170214
-41.4700463198772
-42.6152460268397
-41.6950214790995
-40.4370202550458
-41.067857545494
-43.4034430218914
-45.1145929844584
-44.8279254603929
-43.9455431695569
-44.7567434760935
-47.3461546937901
-49.4233355212072
-49.3283708334396
-48.2275639123807
-48.5551261338786
-50.7379802597468
-52.554316478556
-52.0078140599983
-49.9118645998863
-48.7132437982921
-49.0643435481925
-48.7031801408239
-45.2251995193518
-39.1931074624197
-33.5193909821317
-29.9100228299787
-27.0173524518674
-22.7062513631497
-17.4055610560887
-14.0502602617367
-14.587204880683
-17.5649887230864
-19.960807171688
-20.8867419372088
-22.3964963852556
-26.4524585570669
-32.1409090268179
-36.8190439504678
-39.6111438239939
-42.5384399888418
-47.7205129400667
-54.330038305755
-59.3402051601888
-61.0880656061766
-60.9558471815992
-61.0095702748667
-60.8580783246122
-58.0519025907633
-51.5706952661779
-43.7013405788296
-37.6277838942006
-33.7539279269524
-29.5781757954704
-23.3277235296585
-16.5711197350366
-12.3179625070419
-11.0847975367189
-10.1780418399037
-7.25756429226518
-3.545222017226
-2.3944845187539
-4.98984969133544
-8.76643193932514
-10.633651783611
-10.7953742219655
-12.1685998513591
-16.2038201535571
-20.6728494837813
-22.3954913358529
-21.315156211246
-20.4965746666276
-21.9965621828873
-24.0617656374866
-23.4004238094676
-19.5508758132219
-15.5417412634536
-13.9330176746989
-13.5007795369594
-11.0318089753999
-5.88324536190586
-1.17366838978526
0.137176332522102
-0.830945281221588
-0.232148801391354
3.51983560364932
7.67331220992146
8.77492713216222
7.25727026224299
6.85250744883907
9.52188600144178
12.6415072064726
12.3342073196367
8.67971640267413
5.87589040294214
6.97927040903313
10.0809720192682
11.0032315411309
8.97872030314907
7.70422888309902
10.2410280224386
14.5536542568994
15.853680867676
12.8729201522076
9.67886611692114
10.313575005242
13.205221535397
13.0238567030879
7.96839544421813
2.93271721363412
3.91622958933351
10.4828155773722
16.0320216237874
15.7606197006482
12.0764520103161
10.3541267522849
10.6258520188951
6.43902402492141
-7.16826546886582
-26.9301140743316
-45.0081205622824
-58.4314665096162
-71.5011076051476
-87.3137967002232
-99.5695800714396
-96.5331545731657
-73.1164193603175
-35.0376884591801
11.8321826047518
73.6181694218865
164.221208575406
286.653307725466
422.41912029568
544.739533632761
642.144729992338
722.819195021075
790.744646846516
821.057663657815
769.409454670009
614.194165529303
389.305932990387
168.031667984841
7.78491896553141
-91.4406971400537
-173.815505447847
-274.65995011501
-382.950929531351
-455.92354875047
-466.419659230935
-431.542057123649
-395.091474502499
-386.299351307398
-398.483803922449
-404.831958372326
-388.573454662036
-355.119755546519
-319.282590818154
-287.88715084782
-257.517366562929
-225.210924194366
-195.615041474241
-176.161053615707
-168.296382968358
-166.39819081525
-164.568024496443
-161.66629769321
-158.817088833724
-154.368505948764
-144.149625690423
-126.847463791853
-106.944459681049
-90.7596667634531
-80.2222354557088
-71.9487924404741
-62.3757413332084
-52.2165817971289
-44.8705552962809
-41.3774462787868
-38.6579236446511
-33.1550821343125
-25.0263042844003
-17.6479908571851
-13.3942688683098
-11.1615518050001
-8.41933268689162
-4.65767057067834
-1.68843742672815
-0.736047901519919
-0.427496899971727
1.65675221218955
6.00340805200244
10.6329638762801
13.5491186551726
14.9188743414171
16.3652952571019
18.657936385363
20.9899254758126
22.635109642453
24.5190391279272
28.4465755978741
34.9414820011948
42.4961106207856
49.1465859631371
54.3076280556265
58.642130485515
62.4429501654669
64.8840369838526
65.1511343535257
63.8382295822654
62.6285192464521
62.5780833231794
63.1689527514927
63.2794666318918
62.7513444853996
62.563409002252
63.5291037163654
65.3258443028607
67.0946324371338
68.68853365167
70.8004984477865
73.7344426007113
76.4201809754901
77.0081400482132
74.4053890825161
68.9982524153507
61.9076403568092
53.9243214458639
45.4710358450863
37.4165073528197
31.3938372838293
28.9409508651113
30.3389995659758
34.4535924143778
39.7036268119707
45.0422318047938
50.022944022517
54.2426452617409
57.1032797943788
58.2182438543324
57.8543832491143
56.7616878390934
55.5437685134485
54.2716267288052
52.7012884623528
50.7537755139558
48.7260091041787
47.1260301387202
46.4284568747621
46.9791656584028
48.9800742989608
52.4070756415815
56.8914179441838
61.7111383237675
65.9447999109995
68.7120654409756
69.4250207101927
68.0081066690028
64.9913251668177
61.3499950094695
58.1198271568566
56.0391250646483
55.4494594314821
56.3902244294871
58.6306131932139
61.581516965206
64.350152440566
66.1324232071959
66.6798480348957
66.3406681911466
65.5782644162994
64.4819108392866
62.8028880931133
60.3880686933273
57.3824213728132
53.9208602985464
49.7930021376354
44.6882146216956
38.8612460464732
33.3814407012715
29.5066511547984
27.7689835658666
27.7446128153708
28.6624760967798
30.0084990877471
31.3983847797785
32.0696182807027
30.934181367597
27.4019094829625
22.0646940059348
16.3392993832642
11.3746179725933
7.40827107284364
4.16131098654265
1.55869887646772
-0.244488861893998
-1.48603849519744
-3.04319130215377
-5.73534051578862
-9.42754598567594
-13.0721830655398
-15.7123823536626
-17.2795660254321
-18.3173760816657
-19.1607660438016
-19.7359150590456
-20.1871599683891
-21.3045291169627
-23.9331214469289
-27.9609749538859
-32.1902034432524
-35.3699374849239
-37.2076743874023
-38.2167448273167
-38.7734158418743
-38.7396695619241
-38.1392351546957
-37.8280985878043
-39.0035120236523
-41.9511881845716
-45.5749090143723
-48.3872388713529
-49.8231529424808
-50.3489502634683
-50.4139248860428
-49.7628297623972
-48.0429038665992
-45.7900432405361
-44.2741825176211
-44.19009110831
-44.8066612372775
-44.7164975978515
-43.3113916014113
-41.1973292841538
-39.1768094703479
-37.2898480319149
-35.2239295903935
-33.4278302640778
-33.1954828705067
-35.3410639314422
-39.0867605897223
-42.6854083646498
-45.1169108540759
-46.7924072043355
-48.490900879447
-50.0742567925302
-50.7728137101048
-50.6294652810153
-50.9871830174547
-53.0782702703943
-56.3605445701729
-58.7811021059157
-58.78730978517
-56.6711699346719
-53.6908102150317
-50.2877387284479
-45.8294262747949
-40.1647986672682
-34.7335288764348
-31.4681464913792
-30.6874809531543
-30.6684532922514
-29.5335548537617
-27.1352604072265
-24.6647857588782
-22.7273172176642
-20.6044825847943
-17.7095469079921
-15.1304503943972
-14.8917002277272
-17.6131138972682
-21.5477840417871
-24.3507482829239
-25.4082661782741
-25.8261546765988
-26.2871163585484
-25.8276391922859
-23.3008319378953
-19.5335378990574
-17.0401810718958
-17.3237476004592
-19.1371899604632
-20.0274283074616
-19.251054557439
-18.3203533888178
-18.5581808478601
-19.0486099267743
-17.8623143892775
-14.9582383426191
-12.7008429402781
-12.9705465570751
-14.5019747576802
-14.0676109880738
-10.1948563619406
-4.69260664402357
-0.0447304179974779
3.80143832272138
8.85865033457011
15.4400089965772
20.4890659264228
20.5932698146344
16.1171837559114
11.0590404818902
8.56586568376547
7.72991236553483
5.72006564334244
2.29689305110841
0.529680347849624
2.56510864536715
6.09521110020063
6.57660452100266
2.72446362568509
-1.77309263322158
-2.66993824946524
-0.0306330935388139
2.762066692825
4.31801514139775
7.39137970563647
14.6143354280254
23.5443088922448
28.2109329806643
25.7019946732214
19.0248946395678
12.0353921840338
3.32732841386959
-11.5958700951153
-31.4914631472434
-46.069127811593
-45.3012509198645
-32.1338874976767
-22.5308076338794
-30.2535981376994
-52.6053866394018
-73.6457328350381
-80.9446948114565
-75.3516608252632
-62.0791757086946
-35.7631710049135
18.8869741358544
108.780729515789
218.902055646564
322.948631576305
407.804746762643
481.381413981863
551.038819788518
597.357946875654
579.294708871381
473.289384039961
306.488297916873
143.977979571502
37.0342946206833
-16.916104162752
-61.8715602880605
-132.257336565375
-216.986065354679
-273.970622197872
-275.909740890436
-237.687033745564
-199.894668086652
-190.822960303032
-207.340535386287
-228.46435690027
-239.585638606433
-240.385261005512
-234.690487301539
-221.323678398377
-198.128023017869
-170.552773818105
-150.146806541392
-143.235715957936
-144.302728718761
-142.965562093873
-135.889802069488
-128.806320609278
-126.787956390975
-125.915544065062
-117.25641030999
-98.0625394632549
-76.007302737191
-61.2650710735223
-56.2656574614121
-55.0882134739912
-51.9212366471861
-47.3378682352846
-45.2860946264379
-46.1301222963074
-45.4444410685729
-39.7757548568624
-31.2361210775999
-24.7706324882315
-21.9379245237216
-19.4848509136075
-14.3126452340337
-7.91478549872378
-4.32337156289767
-4.43398684835824
-4.37694376759515
-0.146777403747144
7.55704012226818
14.4748573275396
18.1909828935443
20.6714963557382
24.8877212038191
30.3610909311736
33.6880497626422
33.2738763857437
31.8593580354683
33.3928885715831
38.2864684232892
43.155302733751
45.1964613491595
45.3932371907864
46.5356454880334
49.0140578543024
50.1635733164397
48.016488189788
44.361787757243
42.9327036275739
45.0103129812831
48.1109975643475
49.3214955693569
48.8012461907825
48.9603814938693
50.6924046156684
51.8984656184138
50.3303359298385
46.9063402083125
44.9765922089856
46.3795744250717
49.3667791112778
50.99112389604
50.7220514798608
50.5939191461408
51.9314020157575
53.2353516787555
52.146126787239
48.8482328267347
46.2884719444457
46.7805661395899
49.3447731486254
51.1546913687842
51.0841089941626
50.7088518871371
51.6389621965182
52.9613305458788
52.3354881804376
49.2987694040815
46.3045070430699
45.9798297945921
48.0855273638707
50.0540044765096
50.2873890220051
49.8628574432856
50.5502967993157
52.0058276382882
52.0401194958045
49.6494277392247
46.7160856864853
45.9934395350831
47.9021204664995
50.239997209897
51.0754661393521
50.9682599518748
51.6951494630001
53.3963456165978
54.14135879017
52.5830417005179
50.1231669708768
49.5635224016609
51.8527562707898
55.0847717330494
56.9632192630713
57.4279787892145
58.039938286242
59.13413986505
58.7604121733732
55.0079220266635
48.6945003053617
42.7806481281457
39.1215729869159
36.6755832142392
33.3854640371205
29.1466366638536
25.9235116786873
24.9408816932947
24.8028511554858
23.1524934681423
19.7317764110314
16.7660243265155
16.0803100227974
16.6634068467172
15.8280570743119
12.4212718370572
7.91334813075919
4.07602974933876
0.490897133538539
-4.70376457010103
-11.8098644241042
-18.3832881586668
-21.6079399685864
-21.2987727916322
-19.7618584465344
-18.8272970768413
-17.9758808031411
-15.8789758431883
-13.0612134757179
-11.9255921813363
-13.969332675001
-17.8457289504639
-20.8827222181549
-22.1461546119711
-23.1429697571367
-25.4131419921261
-28.332611891097
-30.0409756539861
-30.130755676102
-30.3527240138352
-32.2889068653791
-35.0804676855279
-36.2990709242761
-34.8879693411337
-32.3359565858766
-30.592615486531
-29.5620995462493
-27.5321771355182
-23.9045050909332
-20.4472100592284
-19.2457359540503
-20.004639594207
-20.3406163793146
-18.8045563956277
-16.7281456588332
-16.4868072712634
-18.4766561355378
-20.7849367692981
-21.9343078822801
-22.9686241931847
-26.0100051037763
-31.1452370926001
-35.8114422815649
-37.6258427368181
-37.0702646252583
-36.6028921730285
-37.4364964045686
-38.2306887582942
-37.3256457518149
-35.3960284006044
-34.8524576227701
-36.7001539854655
-39.0338043822705
-39.2529333373685
-37.1779802128162
-35.0511813453877
-34.5199041366029
-34.6562488226476
-33.602633193499
-31.5172348788351
-30.7163318916262
-32.6801715795702
-35.8751757945847
-37.3735901749087
-36.2500611071796
-34.3584251131467
-33.5518259560172
-33.1273416648614
-30.9441313417831
-26.6888470751735
-22.7960684819273
-21.6096918866009
-22.4471633917636
-22.4922042254781
-20.432172589759
-18.0904252280434
-17.915280677604
-19.6802160244253
-20.8179480963077
-19.9654019319927
-18.9511688509789
-20.4555090671881
-24.3462789376392
-27.5652467153417
-27.8235826595005
-26.3164044321677
-25.9150265474393
-27.2603015575866
-27.9617597071724
-25.9618676384159
-22.5269633800009
-20.7640642573849
-21.5335494452105
-22.1952454121183
-19.9510635070976
-15.4347506253813
-11.8080682018038
-10.5707450473739
-9.69512897952105
-6.61365812720467
-2.04362571088848
0.604212823181609
-0.375529354021513
-2.59620921322269
-2.51686070886221
0.0423710943704414
1.77213681112397
0.357995321173291
-2.37565142286718
-2.92205205246833
-0.928905543811041
0.129928713003698
-2.45004068540426
-6.75728475622138
-8.40338864822609
-6.003654769113
-2.78403123645657
-2.11414942256535
-2.89579555551013
-1.0853261115888
4.53863806464739
10.1523053196146
11.5102668944004
9.49625898852679
9.07222684424392
12.675713991063
16.746169609583
16.3298310941409
12.0581520602347
10.2308122800064
15.4137943516995
24.8301451586945
31.7494044201318
33.4184469480713
33.1210624091729
33.8725091856845
32.7382975639045
24.1877347782082
8.38813063862821
-7.40845909325145
-17.8435724366569
-27.7708446445598
-47.8546334612988
-80.8816825337598
-115.080299443356
-133.439737613648
-128.398408091635
-104.22102832773
-65.036152467328
-5.53459781842851
81.5720924761511
189.941156810822
297.757339668837
385.887188306121
455.065419614883
518.044065847625
572.000548499132
584.765350678873
518.274979751672
370.539215223327
190.8505053557
46.2721779464951
-31.2552627073051
-65.0562950855873
-101.795067409876
-161.8992169657
-223.059188041929
-249.903756579731
-234.232536331766
-203.002447017095
-189.67058852872
-203.000524350882
-225.066759359295
-234.880922835663
-228.412011407413
-215.79769700839
-205.124989341343
-194.413580555231
-178.763039457337
-160.017304673136
-145.715694714818
-139.94047550845
-138.85779192901
-136.310672067072
-131.333935590852
-127.790299950962
-127.466862931916
-126.448514806136
-119.647108910841
-107.333011550913
-95.0491580875592
-87.0949500937058
-81.9295325056538
-74.9821449325261
-64.7646602081012
-54.4165344697224
-47.2086881939928
-42.2649382736503
-35.9558467583568
-26.7612464713647
-17.143825529193
-10.282576986877
-6.23119042395767
-2.41782286398612
2.5788511577187
7.18373546750802
9.19745588952519
8.97404843688373
9.12095555051306
11.2427084342133
14.113975397721
15.5774020724021
15.471605430029
15.7033579391836
17.5601201631585
20.0182324967555
21.3155983559785
21.598661313704
23.0413920696096
27.2485736873374
33.3420320662585
39.1533895459059
43.8322740727153
48.4249973979919
53.8016216593168
58.8443269970344
61.3894880459846
60.7172856713666
58.3584653478444
56.2349544839206
54.5979526395445
52.3509043020116
49.1252943682858
46.2431006117004
45.3073059060618
46.3362877591785
47.8854713595096
48.9130350186379
49.9013310570426
51.8511624962672
54.6147519756168
56.815430316713
57.4005516080904
56.7297191746372
55.8276222900504
54.9232814684887
53.2713976240851
50.4253833467721
47.1593833760635
44.7597055043578
43.6313159531415
43.0530528077294
42.3239985066434
41.6914970930246
41.8324427746105
42.6847436800286
43.3057574626644
42.9996749692876
42.2001708493296
41.9134600426869
42.4659128936032
43.2146080212848
43.545848623044
43.7428216348384
44.5199805885976
45.8813755259784
46.9116243348177
46.8483250944489
46.0282144175604
45.4431441465791
45.5041897866907
45.6719728531202
45.4249930602998
45.2055437461861
45.9945958349532
48.0290053360129
50.3769255305034
51.9803483279213
52.8124098926419
53.6164160165814
54.5707049746248
54.6742958129073
52.7257134645675
48.6704430570717
43.5932724845522
38.3988709491691
32.9291491393267
26.6637720490549
20.0428319152987
14.6157285103876
11.7418896598363
11.4335385841121
12.7111428917166
14.8804483336086
18.0352104693854
22.23785483978
26.632216955113
29.799318843709
30.9662129213708
30.534484615392
29.3120418713428
27.5266672692336
24.8937489395079
21.5022389664631
18.163724927433
15.6518779628355
13.8393896448073
11.9321471788149
9.52905104213342
7.10681416605567
5.2947557606773
3.94059615979961
2.25316001784918
-0.158491129973982
-2.76572254200573
-4.85252771010698
-6.53037028203522
-8.64938100050648
-11.6765408335965
-15.003812465606
-17.6008484874103
-19.1564051792438
-20.2249216015751
-21.2481943966151
-21.834719667772
-21.3138199889744
-19.8306294951651
-18.4781799334322
-18.2268749675403
-19.0177480550742
-20.1679299070397
-21.4802300730699
-23.5206225364307
-26.6857729864
-30.3626160449883
-33.3941437608997
-35.3016695594799
-36.6552526956726
-38.0948229075628
-39.3199420235608
-39.4295125073437
-38.1790362658605
-36.4579515099431
-35.3064412683613
-34.7594424947705
-34.0693878295541
-33.0147899969789
-32.5021112520357
-33.565766496365
-36.021810686523
-38.5587496884837
-40.1912770853014
-41.1966163473332
-42.3282648510398
-43.4051936215533
-43.2405678828069
-41.1004778926988
-37.7935572944894
-34.8949725063662
-33.0336361959694
-31.426029746107
-29.2247422102516
-26.8642393717809
-25.5939041439808
-25.8092310215564
-26.4252136610126
-26.1853035471657
-25.2239908896777
-24.8252264547069
-25.6806083848221
-26.9401955422937
-27.309222176628
-26.7291895633626
-26.3989818014376
-27.1073507163566
-28.1259071649898
-28.1900538551174
-27.2934004241993
-26.87349267786
-28.0580834002654
-30.234885758015
-31.8315323743725
-32.2842737380739
-32.5778787956381
-33.6232219963967
-34.651793453251
-33.8602705193037
-30.585122592903
-26.2021519851835
-22.5379288098348
-19.8185548502379
-16.8015750215574
-12.8738651200042
-9.29581279850479
-7.88234810287894
-8.80583244533277
-10.4066904516431
-11.2864556367408
-11.9583621498821
-13.9151367319339
-17.3898635654172
-20.8131589177133
-22.7033013718687
-23.467614029962
-24.6941565662062
-26.8670527152963
-28.5744378563634
-28.3021284649631
-26.4195008306581
-24.653272416527
-23.7008572244672
-22.1972376233248
-18.5154193647283
-13.0703076219026
-8.01286632932113
-4.61552825606104
-1.78730551201535
2.24023661325299
7.2292612314443
10.8730601640368
11.5912911295916
10.5767253240644
10.3314626272501
11.5032450682597
12.1445426457848
10.4077439861002
7.14855517078179
4.95808012479554
4.83932893037074
4.92828927229612
3.02791926291684
-0.351414818153572
-2.51881593439224
-2.07467715923094
-0.717845025067788
-0.916025903143609
-2.53605693694245
-3.06521512544478
-1.26679456716157
0.73783283121379
0.169801556709857
-2.17122713804759
-1.95645705221142
3.71119112860277
12.3738569934481
18.4824424355203
19.3203174332818
17.2137344943316
15.1986082184803
11.7681807608348
1.77612716697249
-17.2004782690849
-40.9222223244676
-62.0520395680491
-76.8902687449775
-87.0655924714426
-94.7176668857366
-98.1620222511088
-93.8028471174091
-80.7265751626187
-60.0045232024423
-28.2656876362876
25.0476479739137
109.699078016582
222.768033952159
347.432192654748
466.104329172523
573.05499000385
669.379808720754
743.907347687129
764.594434413046
698.346560067745
545.394902305107
352.076944991099
182.16270158622
68.9500891904229
-6.44860167848
-88.6958319326874
-199.694840541767
-316.037218476882
-393.12923981955
-409.021263643417
-383.251173397189
-354.923182805289
-346.450149181851
-350.075767200415
-345.810385406914
-326.212295839601
-301.017523306221
-281.170336540387
-264.506511220027
-239.915715062014
-203.184429426732
-164.755825458251
-140.601438284685
-137.084131981308
-146.104239862769
-153.919441706184
-152.596573634486
-142.89247644609
-128.850172392805
-112.606941322854
-94.6653346477882
-76.7389562840889
-61.9943489430094
-52.4199418994043
-47.2982225548138
-44.7805177283818
-43.9469761212347
-44.2788265783695
-43.6425482209161
-38.5403691024425
-27.4940067477439
-13.7161604228803
-3.19892962986139
0.443822686199947
-1.03068144150669
-2.82618109192664
-1.96396126925627
0.666123545367011
2.69280172159393
3.57119749407376
4.84365257713405
7.64750575942005
11.0856906453083
13.5137376821621
14.8091484650966
16.537871897488
19.8642689376964
24.020910767384
27.3243732662382
29.3496468961691
31.4238197824444
34.8587967962705
39.2586336136578
43.0437757933421
45.411043033019
47.1558790449595
49.3717973212756
51.8300678832604
53.1932748602273
52.7643602121394
51.4767436885422
50.8554401086008
51.3145172413567
51.9587419700834
52.0462814386501
52.120789641936
53.3158608948364
55.766378923472
58.232985350525
59.4577323929051
59.5225963915671
59.496739630642
59.8828608824973
59.9026922672629
58.5335399431048
55.9194053718516
53.3052970297857
51.5729265098293
50.2682186221239
48.3647504002376
45.7594232687051
43.5605241105821
42.7963669176536
43.2017486743775
43.6185189051824
43.4613632913456
43.3562770858416
44.1688720929201
45.7331397649591
46.9558245708544
47.1638829651563
46.9486956513165
47.4240971835185
48.8683227180222
50.4891940862278
51.560986833993
52.3978534997517
53.8771582141002
56.1590838635957
58.3183024866525
59.4028389309089
59.5423471372367
59.6397517234592
60.0344101120975
59.899263690603
58.2063080542723
55.046783026969
51.6004239751962
48.7874190876347
46.3624366544257
43.6522488020858
40.9791306022052
39.8497021860761
41.5196161294753
45.640178842336
50.6493665776756
55.4037124722312
60.0145339942885
64.9172170336234
69.4991632954886
72.1842449488483
71.9780438325278
69.5557425682889
66.5037473760514
63.6346730757526
60.4262734495128
56.1581048440079
51.1616919902143
46.5355032454935
42.7423096406377
38.9851589854298
34.2283198698075
28.5587623100932
23.1225653600876
18.7211084788793
14.8874621926516
10.6139282363503
5.72951308501988
1.09115389596144
-2.64865262637595
-6.01834461499349
-10.0819528342696
-14.9618867611839
-19.4770480666377
-22.4402139160419
-23.9988725289281
-25.3225624908727
-27.0750953769368
-28.6827001531777
-29.3472297998033
-29.4314447575223
-30.313822754484
-32.8021310143244
-36.1203064040544
-38.800388866155
-40.370915627122
-41.7047209524273
-43.6279607129503
-45.6451791291963
-46.4639380421699
-45.6286843175115
-44.1056106162034
-43.0301729814507
-42.2493406096033
-40.5830228187161
-37.4930533761969
-34.0024653815106
-31.6719527267011
-30.9552015040826
-31.0276312569888
-31.2124802660285
-32.0226328627718
-34.3786964834983
-38.0345346975785
-41.3597355041063
-42.8875589211557
-42.7161792664281
-42.0213905057721
-41.3940708714999
-40.2194811044665
-37.8752805720075
-35.0512851398247
-33.2919246442362
-33.2375897105533
-33.8485797799647
-33.688893273592
-32.6631749404931
-31.9821419376481
-32.4406536077691
-33.3098509545921
-33.3249090829998
-32.4449213001938
-31.9876647562874
-32.8717800710199
-34.2529027740163
-34.4102884052236
-32.8215713126603
-30.7756392173679
-29.7464622297613
-29.6615323270468
-29.3124609062157
-28.2956246688982
-27.8098079658551
-29.1385747435385
-31.7633871041369
-33.6466514784027
-33.435968692705
-31.8091775466824
-30.2742444410377
-29.0657510771786
-26.9526669373978
-23.2017994541114
-19.0096210561142
-16.3518654860536
-15.6369641399555
-15.2406234253373
-13.6172680270687
-11.2933784785244
-10.145163691898
-10.9067662712089
-12.2063578369381
-12.4289194251621
-11.9308574220183
-12.5908167323304
-15.1840419359134
-18.0352979223438
-18.8442299807279
-17.4306471905709
-15.8642516559774
-15.8051416753627
-16.5332826366884
-16.2442995694652
-14.8449704329317
-14.4214230771852
-16.5920693520607
-20.163736194902
-22.2753578745165
-21.7041291300093
-20.1088972382069
-19.6067379940064
-19.8832548615726
-18.686262083102
-15.0793241954144
-11.0816601960992
-9.339405223097
-9.73951503892725
-9.44370544467199
-6.45763248715467
-2.17737899809937
0.416787067438813
0.580612592432036
0.60752786234055
2.52066332376061
5.05389451845015
5.06022457165447
1.65198915497794
-2.38296783744918
-3.91366809133029
-3.30081761709967
-3.6894145163954
-6.64664587069712
-9.95676060742004
-10.6323400106195
-9.19530531334709
-9.33938148602154
-13.0965571912487
-17.8331488190076
-19.3459341783755
-17.2869497732166
-15.6646942280061
-17.3098353011984
-19.3395684856868
-15.9506684526051
-5.59649145018098
6.47118109958573
13.8938081209182
16.2365366851139
18.401834183726
22.9973428565002
25.4537401677044
18.5552664535695
1.12339479377349
-19.9519025524794
-36.9443938996773
-48.780897841281
-59.7319938774115
-71.8443501506209
-81.5847822494403
-84.7689354286509
-81.7203924474894
-73.7638649344891
-54.8930748522084
-11.702290980014
64.0613301164563
163.601001296465
266.069434254535
357.507510321646
441.23448007531
523.944085584402
591.249052343392
604.389611464069
530.64536758885
380.739269235111
211.937604246714
86.8744615864207
24.859428938363
-6.77283201187376
-53.2213373705275
-125.466334351281
-192.889506979274
-219.230297170174
-201.353403524475
-171.030529512186
-161.912525063541
-179.317153068
-202.622350109121
-212.107753650604
-208.126654994012
-204.275869028704
-207.485209000833
-209.97583585597
-200.448119469344
-178.737356928897
-156.411337695503
-144.254878483679
-142.271840260442
-142.527528583947
-139.045314519056
-132.346526682645
-125.142488732557
-116.935073471724
-104.945605661104
-89.1667195537844
-73.8979022450347
-63.3860316680782
-57.2846902799314
-51.7728539427095
-44.6605436488083
-37.8205332632048
-34.0993923795821
-33.0873216136999
-31.3306462526346
-26.5639585489515
-20.3950574128413
-16.1020768682944
-14.5535497973938
-13.4398725630399
-10.4961747419039
-6.32504958011471
-3.26260752811675
-2.04404156160193
-0.765564644285506
2.55875528179817
7.27421360326009
10.7402720041949
11.4694217554968
10.7432054848775
10.8117155227534
12.174709642506
13.4148657102777
13.5588697788109
13.6830228680031
15.6210060662543
19.5030222585796
23.3625636278171
25.3396895680266
25.7056953377323
26.263133004158
28.0620800840711
30.3879775146216
32.1449598576565
33.6148414942668
36.192327948952
40.4378027999412
45.0046486153415
47.8667128638206
48.3519970852926
47.5458020351652
46.7568033149298
46.1112932190137
44.9714623312148
43.4050525608335
42.6225758639959
43.7472504045126
46.4958786710922
49.4571438330015
51.6083297196022
53.2026986621046
55.0607950561771
57.3334921164959
59.340163228904
60.5530921595445
61.2986455405466
62.20963077235
63.1841124088317
63.2772741870003
61.7244450801088
58.8181251452187
55.5648750305322
52.621048620872
49.8758926086512
47.1179674541598
44.7617101433862
43.5567639799421
43.6076955436568
44.027196168765
43.7987967956734
42.87884198108
42.2178258489162
42.6951870886725
44.2754048941076
46.3485262675503
48.6792531885365
51.6334205841168
55.3371713234139
58.8758672376996
60.6836807907949
59.8279167801961
56.7652023758388
52.7528160459297
48.6796038493231
44.6791258317822
40.8057286972334
37.6987812032265
36.2372313616511
36.5573813697406
37.7000959351993
38.4259630844314
38.3066461321051
37.8659926402153
37.7106767208469
37.7815045445208
37.6003297996509
37.0625254449782
36.644277134174
36.7100036312291
36.8380574030255
36.1214341542434
34.1733465516384
31.6391198596876
29.5852827603975
28.4990900835855
28.0687023982068
27.8843232837019
28.0320048036644
28.744671791176
29.5754722147072
29.2750751903224
26.7267737695706
21.944538301634
15.990801777687
9.94169088309239
4.13439465157506
-1.50664466511052
-6.67113799836524
-10.5679810244091
-12.7316809783987
-13.6844005686405
-14.5235211207923
-15.8478941945738
-17.2836551114473
-18.1299553601761
-18.2655286003547
-18.2012105156178
-18.327205979115
-18.4453261797073
-18.2386710537746
-18.0180383169488
-18.6599450730931
-20.7043484928167
-23.726802413821
-26.7994176514181
-29.4668716453151
-32.0085520902334
-34.7177451482036
-37.2450290063665
-38.9605558842637
-39.8768284990592
-40.8237362432644
-42.4821924029805
-44.4239376461662
-45.4203944441537
-44.7245060532673
-42.7746041458862
-40.4863775570339
-38.1128375870073
-35.2050579316512
-31.7303419151351
-28.7988204534276
-27.8589626454422
-29.1994564941362
-31.5922377252288
-33.5696659300162
-34.8082439708905
-35.9864212649745
-37.4529673610319
-38.5493123423129
-38.5130840616683
-37.7413462818151
-37.6372386907572
-39.0730091758899
-41.3402155497951
-42.9049138361241
-43.0212261782001
-42.2103193287871
-41.1409873477764
-39.5402151265592
-36.6616280761448
-32.6842144377001
-29.0778814466762
-27.2738640156806
-27.2336683382327
-27.7199184577862
-27.902156251714
-28.2147633382383
-29.4057111658032
-31.1449649739311
-32.1646642567794
-31.8333525659031
-31.0589942243306
-31.2010284682774
-32.2975004900275
-32.9085370840953
-31.8388472595548
-29.5466695871978
-27.4326376102794
-25.9861217992963
-24.2896252175315
-21.575382577736
-18.7317025009764
-17.6104119781352
-18.8564715883739
-21.0190434656298
-22.1463698329145
-21.8679091137992
-21.3305981982803
-21.184928536959
-20.4127444393012
-17.673132999859
-13.4223777745927
-9.88741934366091
-8.71586331391818
-9.24291821914409
-9.62521899640075
-9.37428382997848
-9.94909665338767
-12.6043392435418
-16.3751928839101
-18.9954178693184
-19.6688128109384
-20.0271538131319
-21.8609140911083
-24.4866135202029
-25.2577518222393
-22.7098347671555
-18.3235886414504
-14.5868464745987
-11.8620829815435
-8.20220416357535
-2.41607257067244
3.6889022225886
7.03612143649038
6.94250678691904
5.9880327846613
6.85245510042928
9.12311403042924
10.1791661042501
8.9422249980548
7.47241362489189
8.1965561827023
10.4099132883697
10.835505050311
7.75430384915928
3.37876333412052
1.25066945986724
1.94286674417312
2.68746627506022
1.44727297887524
-0.0230041073009968
1.5952928899329
6.42680666323531
10.5245087853573
10.4256060940927
7.43377571623324
5.91896869946509
7.58450425589254
9.10691030460103
6.39997875446389
0.0812778619647752
-5.10103190069268
-6.35371628695505
-6.50688591109158
-10.2170464930933
-17.4286768696135
-22.7190346746686
-21.7146093466735
-16.4727705591432
-12.9285136769227
-13.950092085877
-17.4202300515981
-21.8419019699842
-31.181426418125
-50.898337587478
-79.0548264005183
-104.339108882877
-114.9927733311
-108.029348235724
-86.4484517366883
-47.6198059951686
20.5295230309421
126.73827244767
260.245618623774
392.720791462663
500.418420130337
582.576582982098
652.525879235306
708.956624329443
721.546889662968
653.265909237407
500.3458351458
306.635851465421
132.689500829933
8.27170657640792
-83.7195655794647
-176.748260658267
-277.913166632789
-358.8699307542
-387.780475005265
-365.073782842283
-324.234307034193
-299.384960070656
-296.623221863393
-297.80630515082
-287.084256355345
-267.607102371869
-252.118402182888
-243.450388725121
-230.382550795843
-202.679576483591
-165.282277341856
-134.112730629711
-119.330377238678
-116.34878115265
-114.012521431733
-108.322596569038
-104.929531446037
-108.913902689145
-115.878357579909
-115.51702632696
-102.824155129157
-83.3707077159565
-67.2239219948241
-59.5513572120856
-58.2478485270461
-59.0163169833689
-59.9298792113127
-60.4295339663061
-58.3161340745098
-50.5428301319056
-37.2633008971306
-23.15514645929
-13.2319338255086
-7.81471612443062
-2.87145262787281
4.68144054710006
13.3032805877055
19.1448762572099
21.0925380054778
22.0715988221771
25.2129595530512
30.02412757733
33.3683936371095
33.6601338436546
32.7091576997059
33.0232979551596
34.3707496352405
34.1710343726672
31.0973702786545
27.1057357841628
25.2911326417146
26.4148679991001
28.5003433823943
29.7499050564071
30.8010135497214
33.4657856337869
37.8524399408503
41.8111632995658
43.4461675744639
43.3760922214936
43.8276882351532
45.8243240983484
48.1194455394311
49.1036952530189
49.0202729419815
49.5667116245218
51.5203858772876
53.6095670734539
54.1246365660607
53.1276322390765
52.3771583558464
53.1104242477689
54.5639898185945
55.0401712651756
53.9865539154094
52.3664882900162
50.9933091330047
49.1971916682274
45.6580886893281
40.3013445816463
34.7511260366244
30.7533706427334
28.5962694640014
27.4408016714492
26.8973231238063
27.6225308135117
30.1674741556051
33.734491582018
36.6367770685743
37.9668519048063
38.3575347287959
38.9061899697315
39.7180525835467
39.9476613704449
39.1713900730399
38.16398026385
37.9950572566618
38.6420863092841
38.9888231869225
38.2641601328529
37.0845994051071
36.775524527144
37.8646928022175
39.6601503865099
41.3601213259369
43.1606163079329
45.905031924042
49.7873929528132
53.8620393268005
57.0348855886068
59.2767586888507
61.5330377887397
64.4945759881077
67.8037221875722
70.6133704436943
72.6442032084334
74.3284836251111
75.9324764193595
76.9199347107529
76.4643120594975
74.4729023842727
71.8131891326882
69.4710723558714
67.7072044686458
66.1823586310036
64.7086211158377
63.5264266339924
62.7541931548985
61.8339214473763
59.8181359391074
56.2209717879051
51.4094653267755
46.1078112291838
40.6967945992628
35.1541821233011
29.5531389865406
24.3051552708058
19.756554648159
15.6958539020274
11.4962110548825
6.7860785230638
1.84016541877441
-2.75745064474328
-6.70329453769677
-10.0796516379377
-12.9426720677901
-15.0567557574783
-16.1994605055219
-16.6398230141868
-17.109385269233
-18.2188330562256
-19.9816371893522
-21.9685726813854
-23.8387123108929
-25.5901949993402
-27.3215482530495
-28.9456385295575
-30.2975280820473
-31.4830437778826
-32.958382509486
-35.1757160309211
-38.1875027495723
-41.63759909364
-45.0759148177951
-48.1894610518229
-50.7598632513588
-52.5711284438935
-53.5174129863487
-53.8015908765129
-53.9123040870511
-54.3179723699083
-55.1740978419675
-56.3186167980775
-57.4751420731075
-58.3832430335192
-58.7682019240575
-58.3341692749729
-56.9195733536917
-54.6755531159494
-52.0348564304773
-49.4724844276487
-47.2938973193451
-45.6079244694323
-44.3924660904008
-43.5098060200745
-42.7167053714105
-41.8062816570497
-40.8271428160304
-40.1282039545369
-40.1203246232177
-40.9909387079022
-42.6732086816936
-45.0237885450874
-47.8724983959424
-50.8177505090776
-53.0986520400901
-53.9067074681629
-52.9617404810237
-50.7464762291353
-48.1079924317025
-45.6669976037384
-43.6834030067659
-42.3988400302767
-42.2256140321866
-43.3761897457085
-45.3699413356428
-47.1666251992906
-47.9502930415182
-47.7191977596089
-47.0048242378201
-46.1057739037116
-44.8152967623373
-42.9362645224695
-40.7952308719701
-38.9503319818127
-37.4113750713779
-35.4591252508325
-32.4587981932464
-28.7411239239653
-25.4310972314698
-23.3845656021576
-22.5217690642844
-22.3185798531284
-22.6822532730801
-23.930863610355
-25.8416450902245
-27.1081719516321
-26.1613135553656
-22.5625812600924
-17.3390043753926
-11.8716588295591
-6.72833804888404
-1.82915719537232
2.47104493870455
5.03622593568423
4.99245449657936
2.87123229148172
0.27909946942064
-1.64510202467758
-3.14222141933081
-5.05317166829803
-7.44944652313707
-9.48081261746584
-10.5593930357764
-11.1732458924793
-12.1272460059869
-13.1948384903146
-13.0706316926965
-10.8395295648147
-7.11303197647817
-3.33892591767403
-0.178517168440948
2.9135634663578
6.40593192995784
9.56182989498172
11.1725012275908
11.2846254553319
11.513109585964
13.2571862443608
15.9771152935516
17.7993110554204
17.7555936434752
16.7729178927649
16.1340983218246
15.5395605420077
13.5427306762522
9.95908527508703
6.9913722588454
7.24541870646966
10.8908763988038
15.5634631316295
19.1911751682763
22.0828352021318
25.5291410415492
28.8649190917235
29.2231422938779
24.765584199132
17.3201417073725
10.6887473640569
6.42796811828062
2.52441606934705
-3.04256515711707
-8.32949959906476
-8.55929485157459
-1.57813301694997
8.97431282140245
17.0171687762287
20.0996720160538
20.8391619685899
22.1221393285156
22.3830282973186
17.1371930181684
4.75834943327266
-11.141767882858
-25.9390908203259
-39.2337001709471
-54.0839907877396
-71.3407072035269
-86.9822872883419
-96.2182302420397
-98.2062401575254
-93.4870369383628
-76.4904893534505
-34.5097587531984
41.4872691175
144.689353449598
254.605636204361
353.951913382299
441.272841986408
522.214594150168
587.444344290928
605.179319563392
544.23483361798
408.571377126124
245.720528583336
114.261311555699
38.5283746930786
-5.11426265872881
-56.9665147845513
-130.385437816701
-200.306089917571
-233.030991923205
-223.107765988846
-198.38802103412
-190.977250820413
-207.558062959918
-229.290809030267
-236.600640067965
-228.791393185344
-218.927940697166
-214.636068973556
-209.31760030606
-192.525802560044
-164.755445644964
-138.540522832157
-125.73139049476
-126.608353577325
-132.196559113884
-134.637460765494
-132.718264323101
-128.218971493626
-120.617671123299
-107.894658285691
-91.3323865399305
-76.4528588234887
-67.8486897756
-64.3492227381402
-60.8491912983577
-54.5347912859053
-47.6666281352504
-43.7185564522285
-42.2371388766577
-39.1472485680061
-31.9348457355132
-22.8840939175611
-16.2789599079544
-13.307423374257
-11.1136118393177
-6.84009708299681
-1.16500112366488
3.10851756750303
5.17014521236944
7.3804127661762
11.9824732089556
17.792684600322
21.290397708505
20.7343295910364
18.0714768165035
16.4007105970149
16.4844552975697
16.7666098516048
16.5134490653391
17.5824905582541
22.2954709912474
30.1828675939172
37.9428327468631
42.8050087349912
45.1218783291819
47.1015452819429
49.5977683211527
51.2104623639799
50.6925827302024
49.2297937766368
49.3837664869107
51.9730148634069
54.9490608491621
55.7785647751545
54.3449704354528
52.7918447410156
52.7189262558189
53.4489796141172
53.4758202980382
52.9358225341196
53.6590775615325
56.6577599710533
60.3725188609858
62.0692120891257
60.7181605374897
57.8161746490866
55.3059282169962
53.4172764803674
51.1413401389207
48.4330398113104
46.9535682798617
48.1836500608575
51.3257226562744
53.8077389428486
53.8854988369629
52.163026771487
50.2834307367706
48.6664869922164
46.2556463157829
42.4492921962032
38.4629134978889
36.1483235857314
35.716808169325
35.3516191355106
33.3211749647927
30.008168382574
27.3909273892801
26.7559885422363
27.5700065642748
28.7780536692507
30.5838037579484
34.2108323880358
39.905259783848
45.8493112315647
49.5581368268083
50.1744618411748
48.9512875468111
47.5216220499849
46.256981575806
44.6652627357859
42.9706113978866
42.497125691104
44.1856223679258
47.1713478434857
49.3828960445167
49.5573235540984
48.2756106385547
46.9144897145504
46.0399617524409
45.2997527360711
44.705578586963
45.2852620969311
47.978000069499
52.1216347221977
55.6000218850164
56.6694179300005
55.3302372376745
52.6841328580986
49.277590223222
44.6400684237471
38.5208818195936
31.9865910613261
26.6734052145616
22.9544954525179
19.3470944062203
14.0469267155596
6.8327457807243
-0.881122371626116
-7.75251514205683
-13.7550950860337
-19.4755842778094
-24.5751103535472
-27.5972039052767
-27.5048457311416
-25.0280317435431
-22.0818685988362
-19.9213394309628
-18.2339846381928
-16.1207231705361
-13.5600577844059
-11.5076235991537
-10.6974926610577
-10.8908273936243
-11.5953400264243
-13.2118352908492
-16.9429224372967
-23.434962747599
-31.8224188664266
-40.3544623633021
-47.775676131795
-53.7667419156283
-58.1307212511758
-60.1370311463908
-59.166919767956
-55.8993979639819
-52.3284542565725
-50.2716889599484
-49.9824147077044
-50.4312026816084
-50.7752041534491
-51.1178617938659
-51.7143093457267
-51.9066927456201
-50.4583145965133
-47.0572746905168
-43.0695896240785
-40.4158061692072
-39.7742075123291
-40.1868028353181
-40.4115866312147
-40.237768808409
-40.1782347078206
-40.1702264640854
-39.2258955452259
-36.6596104192973
-33.3200189111723
-31.0971159060098
-31.1229032102304
-32.7677634639183
-34.5553310852619
-35.7342075141175
-36.5390226271679
-37.0259683456448
-36.3035377650797
-33.4225520056913
-28.8697601715551
-24.6238004586038
-22.4632234671172
-22.4596836759999
-23.4032719358596
-24.4854011090625
-26.0365223035249
-28.4691461204032
-31.026234633989
-32.2310410205399
-31.64132147109
-30.637878062747
-31.0604875854613
-33.229218421903
-35.7290003203191
-37.1447531303147
-37.5054545173784
-37.6683946107127
-37.6307801876354
-36.1821316991556
-32.5106128907464
-27.6910792924391
-23.9729534198016
-22.5537674756936
-22.507121005689
-22.121362941193
-20.8834591281334
-19.6173305573746
-18.7905353585101
-17.4441340381849
-14.3486741516955
-9.94196265418564
-6.39802088467104
-5.48911047720986
-6.77845732721467
-8.34203760056046
-9.03686768602814
-9.42285438281595
-10.3016670500768
-11.0266166333487
-10.0435688611695
-7.09759750794843
-4.16783894577803
-3.68304839904141
-6.0697746103914
-9.61854292818404
-12.7287058704273
-15.5837537039313
-19.160112809031
-23.0777594337694
-25.385001009421
-24.7765629418924
-22.371388306324
-20.5638797302612
-20.2366109738005
-19.847732699317
-17.5526490703391
-13.580400321537
-9.76039194551544
-6.9005353911086
-3.64943663591424
1.45231621174108
7.38322944780884
11.135525823515
10.9991638221041
8.56878492416217
6.85668221786935
6.87363234134974
7.05769640182372
6.19558843165811
5.79080375984209
8.45652568166027
14.2321745387346
19.7619218533016
21.7884298967036
20.7404964387669
19.8346943732474
20.8173770596323
21.9019392857894
20.6351060235065
17.8352742491709
17.0990590566118
20.1508264992401
24.0913536791608
24.5269722653211
20.9175549979807
17.2273742046687
16.7743906465914
17.8301525797468
15.8783345913912
9.85983549124262
4.23053458947081
3.77135308711809
7.58138856410163
10.0995136194186
8.00710213288152
3.98055476648132
2.1814814990565
1.47641586968999
-4.03614717425151
-17.0746396168749
-32.2708712796869
-41.9076300056565
-45.991943463122
-53.2982926629682
-70.3510904809801
-91.1719075499508
-101.269915309646
-92.1250446342353
-68.2300157249674
-36.8318445534138
7.34067028906132
81.5707709598141
196.058765074536
337.467103360535
475.858133900365
588.689016631566
673.805371425886
735.381037792935
760.590123826847
719.49225916303
595.123180555859
412.405812976855
229.513238870957
93.8011517802041
5.04030288300769
-75.6549483492621
-179.893316756464
-296.655067396641
-383.111805729334
-408.004482535248
-381.561677149496
-343.657725915142
-326.932022270394
-333.859948734972
-345.943183409567
-347.655942066468
-337.623121961853
-320.695586868881
-297.367475358888
-265.147391738431
-227.204301190029
-193.84450588791
-173.372377788274
-164.061002460224
-157.754002491988
-150.260473655225
-144.930594508864
-145.072854293367
-145.815782883612
-137.06082621355
-114.928644158799
-87.80498096409
-69.0855961444897
-64.4839215069386
-67.8864063878717
-69.2784195934919
-64.6212242643949
-56.9750645923843
-49.876142725864
-42.624791906864
-32.8138855595223
-21.2305112148616
-11.7692481522769
-6.5451462344849
-3.14755920614591
2.04360903083116
8.87756097121299
13.486815573305
13.3934804018564
11.0187731048123
11.0581072127569
15.1371390335681
20.5017308529056
24.0674232305561
26.2892884946386
29.912839388362
35.618406069461
40.5731756580188
41.8554616161261
40.1965714051855
39.1150253325618
40.6085225735043
42.9864791911638
43.4671572387715
41.9197213465175
40.8411777056069
41.8211371615941
43.3786418382751
43.0866807313196
41.1078967481133
40.3849062854706
43.1668859208735
48.3529853412583
52.9898478074829
55.8088314300278
58.1683927323716
61.3893534631012
64.2977542348537
64.4196736166448
61.301874349387
57.529122083194
56.0026281399731
56.9202769735238
58.2204027781805
58.6746815688548
59.4402334710671
62.1030822538076
66.0027066879313
68.5715904288234
68.3560490846018
66.7643860372755
66.2244239062564
67.1313322110749
67.5089684294393
65.7026798675704
62.4795731194687
59.816256412601
58.121677651239
55.7075065514943
51.2706048848587
46.0830534672287
42.9080931231683
42.9398060257394
44.6402875692007
45.8494120596249
46.306584712213
47.3268269945049
49.2603426001738
50.3300298118624
48.566394150197
44.3729503954482
40.3297542754517
38.4042559473989
38.0821352891101
37.6725377086764
36.8881236574689
37.233809656127
39.7615107890769
43.2955371809929
45.6054290563637
46.0702386208558
46.3687296715048
48.2888290951988
51.4818313977319
53.9941405877581
54.7465088705124
54.6575377078749
55.0269011101504
55.472862677455
54.2653312193434
50.6457765002638
46.0468322698808
42.5640554368404
40.6386782338377
38.8964966045575
36.2038285590974
33.128078181944
30.9177596878694
29.521770828215
27.4541220990957
23.7773495680661
19.559301694619
16.7890847818717
16.0856600166426
16.1265099883172
15.4423429250068
14.121259263062
13.1774363517394
12.5542350237209
10.618524878804
6.01131970085282
-0.499450253696894
-6.64339968970024
-11.042922740947
-14.3766616585126
-17.9431714519879
-21.6566523150996
-24.1741306719634
-24.9306795058378
-25.2581606287584
-26.9561098452617
-30.0875103796986
-32.8584806193124
-33.7555468964902
-33.2033825933648
-32.7000387997948
-32.7268297821683
-32.2729234705201
-30.5520655098535
-28.4922919346207
-27.871176281664
-29.149459913123
-30.8536897822275
-31.3519738395251
-30.7246756747544
-30.3445807337532
-30.855847052797
-31.3551849259753
-30.8979781254313
-30.2376709905683
-31.302360668499
-34.9157914813381
-39.6874795200515
-43.5559682276183
-46.0217490452896
-48.2153160427902
-50.8193310798532
-52.7082694483694
-52.2002882053015
-49.3014908680292
-45.9320751864745
-43.7382907677188
-42.2817318575646
-39.9355767642212
-36.2907130166302
-32.9212519422793
-31.5429058009718
-32.0211414958744
-32.8311137496489
-33.279256344944
-34.4573300246379
-37.6147203947726
-42.1072242079244
-45.685209652142
-46.8186702507813
-46.0952679606417
-44.9893538752988
-43.776232407635
-41.4195008591632
-37.5155815726538
-33.545561781544
-31.5772245015381
-31.9936571151775
-33.192861429655
-33.6469064136416
-33.6219595493146
-34.3607725511865
-35.9469941093905
-36.8288244045825
-35.7165456181357
-33.3176951445104
-31.518289503361
-31.0078915745555
-30.4592359387008
-28.3530891297406
-25.045166892515
-22.3601878042649
-21.296367359324
-20.9309552012757
-19.975016843692
-18.828782812515
-19.2733895143565
-22.0951788670742
-25.7585258696598
-27.9214785506129
-27.8562250989974
-26.6757683522716
-25.2376825740775
-22.708233206729
-17.826288480876
-11.1649670478264
-5.2182947768136
-1.99189707008569
-1.15273180412447
-1.10724726590421
-1.47909793745215
-3.58447877032595
-8.24328464748451
-13.9681302277157
-18.1804398777372
-20.0200348101969
-21.0254639422659
-22.6902641788326
-24.1171470124429
-22.9895859700219
-18.6824882972128
-13.3537874752665
-9.41662306779354
-6.64040286611153
-2.77402424192714
3.02892648011252
8.54216851224951
10.9468803591122
10.3518445851141
9.69467998765891
11.005731821105
12.8500029346108
12.3236933281808
9.00302438017475
5.59331655081855
4.34432317382817
3.98213859127658
1.36115361666253
-4.18805691848289
-9.5451996695173
-11.3770826912158
-9.98760598711004
-8.37652449801746
-7.78991630027241
-5.81902115597092
0.203973527122976
8.9464798599553
15.8265802520597
18.141596192342
17.9705735789759
18.9377597052274
21.0233394950073
20.3995129397206
14.7492999674038
7.10443229337351
2.90902152446702
3.90243929460316
6.79537412977874
8.46514719054989
10.5669907633021
16.9970836731589
27.3019478210965
35.1211685135063
34.5254561606155
26.3764871298791
16.1025184927013
5.42212348045049
-10.7946866469632
-37.3596257958417
-69.9302987936987
-96.4860541022858
-108.318570875394
-106.712887046474
-96.067691748625
-72.0532910821032
-21.5699584678027
62.6786689343698
170.064285346299
278.943509498062
376.083619050004
464.273194750166
546.013832661202
601.95294659743
594.447933917693
500.835114700907
344.172725925513
185.233001484624
77.4631556670138
26.8283998512346
-4.33887897665663
-54.824630075473
-127.142651246297
-190.670605502368
-216.727045186522
-206.314326913084
-184.64272950865
-174.48925937416
-179.326672717464
-189.944508843807
-200.057748303727
-210.546832439025
-220.971626160039
-223.867435544268
-211.561741375133
-186.846761444089
-162.742357635537
-150.215713118305
-147.96347840234
-145.871999574408
-137.240208003212
-125.113145054847
-116.412357446021
-112.523674954298
-108.088942577394
-98.4433810782391
-85.5960205364328
-75.5679261472192
-71.2447238422842
-69.8387385353841
-67.2510166730924
-62.8720685197622
-58.8190972297524
-55.6221153153649
-50.825289641617
-42.3964925483308
-32.0166507242201
-23.5213572507486
-18.4169167505097
-14.3623826823985
-8.56211894608997
-1.56167578178833
3.46841159711701
4.88282169426588
4.68209033370577
5.98644824931755
9.33592915760916
12.5972138858785
14.3142832396535
15.8642607339221
19.5831080491522
25.4777118764919
30.9489006970555
33.8735689272592
34.9833755261199
36.5238840334193
39.125188250476
41.0544403981928
40.7189786303533
38.9693987179741
38.1206367762945
39.0338640211013
40.142019608507
39.6653915760086
38.0499226887058
37.4400893228294
38.9524397319756
41.3548621646525
42.8030479799371
43.2403265910132
44.2851263604759
46.8348231208401
49.6220853279247
50.6416003125374
49.5666291695343
48.0282020909523
47.4817622838419
47.491187813429
46.5772762720885
44.3471728593037
42.023249625711
40.7339668238873
39.9228382086531
38.0166545443366
34.4646178497018
30.4886497741141
27.6478068289379
26.1737217017512
25.1994167852059
24.3832600310054
24.6003661466559
26.7315419251748
30.20783778483
33.3160928603207
34.9204572896478
35.3960107694414
35.6647956496589
35.7467313821067
34.7998835944097
32.531251531785
29.9768905565085
28.5070483452472
28.3226332364569
28.4169508634401
28.0387974338082
27.7154767864791
28.5113920390355
30.5579577141038
32.8325735534268
34.456914254991
35.7423585304284
37.5666915453483
39.9251145777211
41.6270233890776
41.6021332630174
40.1490729280107
38.5339948253945
37.508152691488
36.6865349615979
35.5208265212194
34.4546932140638
34.6262870631479
36.4534495370303
38.9616915064914
40.7733036233284
41.5277345224098
41.9793533015489
42.769345857145
43.5532197934615
43.5927525143058
42.9213279824434
42.4443082214112
42.7936617305487
43.434090758373
43.1904367055782
41.5100554403164
38.8671799806356
35.9121866675129
32.6131072743608
28.5435997459628
23.8385095173794
19.4120657768734
16.0523752615497
13.5595206099173
11.0697416956218
8.1433360235955
5.20240280372733
2.80933941818818
0.839348922498104
-1.29031381315796
-3.64948411538581
-5.45173458984622
-5.89899553616299
-5.17582408528416
-4.31068324354566
-4.07383331536649
-4.31233468478211
-4.51342462013733
-4.76436638897886
-5.79220538861429
-8.03497624638742
-11.0043559449265
-13.8132387334575
-16.1977319395503
-18.7192463768295
-21.9181942551575
-25.5412162942749
-28.8084370206512
-31.2906713926018
-33.2134232246126
-34.8541119881007
-35.9470726042377
-35.9678213049497
-34.9326895585264
-33.6242839852157
-32.9109283528826
-33.020376020269
-33.6443590824617
-34.6058586354516
-36.0985593047619
-38.1772415517443
-40.283732373116
-41.5886335238772
-41.8072014257595
-41.4516285923818
-41.1866910106177
-41.1226905953666
-40.9284913849231
-40.5141606994173
-40.2651131312143
-40.4588881100411
-40.6734971307993
-40.0755042134943
-38.3145344322879
-35.9085708070813
-33.636673318911
-31.7342143964431
-29.9020220277357
-28.0146836251883
-26.4758557791242
-25.6888535858718
-25.3714334456307
-24.7119686859725
-23.2525092742205
-21.3907380242448
-19.8734658156286
-18.9721624407062
-18.4094563440776
-18.0417163729903
-18.2586844683545
-19.4730640145208
-21.379770880789
-23.0574552215591
-23.8848660496437
-24.1271930132319
-24.4521554807022
-25.0461411639013
-25.5106512665642
-25.6239559802885
-25.8420347210744
-26.7628902007849
-28.2403065614932
-29.3976875537906
-29.6280644805582
-29.3120730964848
-29.3061344574499
-29.8735082989998
-30.4748278129713
-30.6598736322556
-30.7743346100773
-31.4193710608602
-32.3366210616049
-32.2896601573482
-30.2746183912398
-26.604111394092
-22.4904009699343
-18.6795925008989
-14.922655917365
-10.9267738037097
-7.40065524853331
-5.63091748204796
-6.00647116501709
-7.41594228662407
-8.39945149661682
-8.65487355951698
-9.01352427934861
-10.0057435953472
-10.9874290103841
-11.0068732023739
-10.1984754500877
-9.72840135229342
-10.2634244402064
-10.9894586696075
-10.5508128903088
-8.72414366782311
-6.62004351873043
-5.15919333486601
-3.90714796792587
-1.8780215493759
0.795656386361168
2.70132942649682
2.86948185449602
2.11623409085055
2.09977951344358
3.21434905790022
4.10142804432129
3.48454068945927
1.89662900675148
0.93143689006822
0.978810724670424
0.565066287151531
-1.63787279007598
-4.73495648904088
-6.35586666882443
-5.43735333127371
-3.43031257450293
-2.29342488036066
-1.94262499163358
-0.659260369497979
2.01963946760589
3.95024927549611
2.72675052478883
-1.17420939927399
-4.75565089701917
-6.16298832728808
-6.80761134295091
-8.82965628246529
-11.0564630011542
-9.15120172493332
-0.527448031516229
11.9090000995642
22.2696810809358
27.7514441804178
30.7324614155052
34.1465400179165
36.0898233540246
30.9418062514363
16.0636169183418
-4.25227654558773
-22.6997226596692
-35.936284195722
-46.0815178746736
-55.6439607912919
-63.4294117338944
-66.9277367729193
-66.5618631370283
-63.4940426188445
-52.0117641085283
-17.8772193584409
50.5208710559289
148.089643142916
253.550421075127
347.337843448255
427.467197637741
502.684630407137
568.039832312863
592.601500443351
540.402707514877
408.593794774675
242.188081819631
104.24617003001
26.6198501776293
-10.8235765059509
-52.3452176307122
-119.441713306766
-192.539729331953
-236.442741237503
-238.556842764411
-219.19825548458
-207.384212228979
-212.533108226009
-222.101784230041
-222.378138651504
-214.857748638928
-210.507701692658
-212.812637418199
-212.298794525379
-198.529438487136
-173.531515738041
-150.171404416418
-138.414518521001
-136.351966974091
-135.282082843076
-130.559505726158
-124.643497547855
-120.548778212889
-116.075631814767
-106.598867095421
-91.8899477876406
-77.3061016888534
-67.7791690981331
-62.7291258148749
-58.3741288569702
-53.6944473490025
-51.5492093079288
-53.3836213209553
-55.0413040934485
-50.1136651432966
-37.3324968980922
-22.8040525903659
-13.9650496262554
-12.2814358908726
-13.0475341532726
-11.7403227674198
-8.71745878549205
-7.00133001246918
-7.02059186823161
-5.57681710781842
-0.121168746327349
7.70141542552664
14.0439422778774
17.6506289834735
21.0710489487815
26.8181775959975
33.7054910768513
38.2259270442533
39.0673711135731
38.763751515496
40.3656931073517
43.5774491122101
45.38163000097
44.1751729095278
41.902784045916
41.4859924715667
43.0986771077067
44.2297677437653
43.3186051689045
42.0172677984224
43.0584653949348
46.5966304696614
49.8827770109289
50.673847770455
49.8701653700966
49.9950948331539
51.6774692202512
52.8636744526642
51.745190194529
49.407055692894
48.6039548139264
50.2498682300304
52.244804606296
52.1609947712224
50.2383854925674
48.8095468300454
49.0478197275748
49.4315606880673
47.9431938233609
45.0050349019837
43.1783108428424
43.9712371448083
45.944581191557
46.5836428195992
45.4440210882191
44.4565333906608
45.0946526007658
46.2569154376532
45.7070224102202
43.1376039964548
40.7472392225994
40.5188659972417
41.7652514760564
42.1625012014979
40.8978361344497
39.7938215932274
40.9643431409915
44.1183903916767
47.0409078963347
48.5474583856285
49.9521587508473
53.087028018581
57.4872695380962
60.4692028840146
60.0469730983092
56.9649726909666
53.3516520004649
49.9268556087358
45.4711891981381
39.1379788726532
32.3821227842783
27.8231749957736
26.4539153037204
26.787588605287
26.9642607125799
26.9860154627274
28.2137432106272
30.9887083225737
33.7137700279
34.6847376801977
34.2090817223375
34.1363131613927
35.3850719622011
36.7335100027181
36.4542933710974
34.5872241653469
32.8162690540782
32.1456311014548
31.524074203901
29.2933362742696
25.536154225431
22.1563831316066
20.5177385933542
19.7251080855657
17.8125029958061
14.2778749690438
10.6441857414925
8.35753446874804
6.8573242604783
4.39572427164631
0.501088406060163
-3.22384819509452
-5.07390017859255
-5.4074233357655
-6.16181008868957
-8.37039287941341
-10.9518025043859
-12.3207735852365
-12.6136970807238
-13.5298761595705
-16.0007479690407
-18.8246359363002
-20.1394564363048
-19.8276478815244
-19.6846857001959
-21.1251179562874
-23.448073896658
-24.9269635252798
-25.2326507858644
-25.9347966806209
-28.3961662745842
-31.8628128654618
-34.3184901620781
-35.0148482405215
-35.3579837909616
-36.9902784150666
-39.5997370962979
-41.3300649723504
-41.2127897357747
-40.3802408380147
-40.4663488576647
-41.355506970389
-41.3062448401913
-39.3099429266522
-36.5595729415812
-35.0684805478115
-35.245798323007
-35.6008655637038
-34.9085295974591
-33.9063233793812
-34.2497035351788
-36.1405311898996
-37.8426308427716
-37.7985349345034
-36.5844602532493
-36.1223546169867
-37.1848044710755
-38.4810202034339
-38.5030900914573
-37.640942976552
-37.7240936322514
-39.5875519493811
-41.910423499853
-42.8996505384036
-42.606129441247
-42.8034715170815
-44.584541127207
-46.8578725119391
-47.7271089869222
-46.9028270348863
-45.9324568505983
-45.9618293082636
-46.0575895968931
-44.3855967794643
-40.7139637674703
-36.8958251711679
-34.6380681341575
-33.4740397258443
-31.6077483435789
-28.4833130148379
-25.6254697389439
-24.5985756122703
-24.8075865470993
-24.1353017307026
-21.6589310522469
-18.8792291531461
-17.802317628855
-18.363941554931
-18.5783937509371
-17.2042417706162
-15.3783548597073
-15.0270257708638
-16.1534773959692
-16.6351919114849
-14.8684672907327
-11.8110209777276
-9.73106305782173
-9.30561813638611
-8.88869792863146
-6.88614791682159
-4.04120899059749
-2.55258044122185
-3.18094692626861
-4.21782787416037
-3.73946974957502
-2.17920545010369
-1.78648710875544
-3.67148230982571
-6.37716120772979
-7.90893016856227
-8.51150266680857
-10.4170550159018
-14.8033620971566
-19.9920812676929
-23.3684816620557
-24.5682578628246
-25.7100790640656
-28.3101321543799
-30.9603240732478
-30.9356116988599
-27.7099182910959
-23.7413426240719
-21.4023551795408
-20.0309311199409
-16.9959331095458
-11.4050676386437
-5.54740449533206
-2.09838677721675
-0.730721720397119
1.36600672026577
5.6808774493682
10.297390822015
12.3137745024401
11.584639025336
10.7998492759337
11.7650026383894
12.8651703040856
11.2043138004912
6.66672626853697
2.44419900672226
1.16501273414353
1.67320971123155
0.798380322447095
-2.13959843456261
-4.12787116053296
-2.35106175893902
1.88082641440786
4.5253669756328
3.9510705964308
3.12476139686802
5.77756863620454
11.3879116546673
15.5819105244974
15.5887128235662
13.6817836176989
14.0356010135287
17.081452246041
18.8818703640526
16.5059501299561
12.3347173923875
11.4239403343096
15.1818297320423
19.6228679371056
20.4387671656015
17.9137982589185
14.8368609205815
10.3099569240901
-1.34994151208859
-23.7714004232992
-52.1105800819591
-76.0566313644007
-89.156891627348
-92.0700915679635
-84.5116528099705
-56.604543134321
6.13208542960908
106.159920726143
224.835479969424
334.730274840748
422.308376804816
494.757701980729
560.702927535592
606.085887292651
596.223705711713
507.820540306712
358.977882338583
202.761163828619
86.6992257447511
17.4207382676096
-34.8240679939928
-98.6523344783837
-171.238171192769
-224.716086532029
-238.021789500265
-217.970283010916
-189.605977508708
-171.212562414997
-162.934757832289
-157.605426178335
-155.628998661364
-164.284371486155
-184.218624375891
-202.655623198147
-203.844135727233
-185.191273546655
-160.139769643018
-144.518485170197
-141.992327690436
-143.946872993399
-141.524734633716
-134.583470741719
-128.447068866374
-124.982439359316
-120.094038478377
-109.902804334093
-96.5424914869006
-85.837172290277
-80.1814785802412
-75.944423184847
-68.4637348333176
-57.9539786934885
-48.9329023015683
-44.3708968016815
-42.2613833365047
-38.70231205116
-33.1027263028182
-28.7625621907926
-28.3653502882973
-30.3675010569172
-30.7571133709416
-27.6468235969152
-22.8530549970311
-18.8761666131981
-15.5813894749072
-10.8314048475209
-3.86577710167593
3.26317550778537
8.05909930470988
10.5286334647501
12.8620034139315
16.4209694696945
20.0724890880023
21.956924637241
22.194126522345
22.8922302916931
25.4813879863995
28.9058396275684
31.0051801536847
31.2219735223694
31.131779454619
32.2378617518943
34.0218103604635
34.7729593051224
33.9916766889605
33.1369767776066
33.7479671189001
35.4367294647395
36.3733916621501
35.5929724702752
34.1187054557157
33.5202253251895
33.8829466739969
33.8477548685178
32.5834011617847
31.0208844339588
30.7076368885569
31.8025299708355
32.8530135244286
32.6475358772521
31.739684432527
31.7050989458562
33.150778518535
35.0631318678452
36.2636643896258
36.9796815492911
38.4388080863681
41.0310385060131
43.4710510035331
44.0936644778023
42.6624532331875
40.4447817860677
38.5628678194099
36.7959046078532
34.3085118957102
31.2132717020738
28.8171590685441
28.1813806476057
28.8574916160678
29.4360059872153
29.2004838664237
28.795980828649
29.1549349303041
30.176388074768
30.8906572636568
30.8227218812058
30.6893994435511
31.4793395393468
33.1220512823175
34.5023702203509
34.8188948767344
34.5438022724401
34.7838584697006
35.9234058925067
37.3160161631544
38.3576023648233
39.4427548198862
41.4863579769999
44.6212976833317
47.8045057073824
49.9016785037288
50.9029307026004
51.7551901282393
53.0861237371722
54.4940349186342
55.2787188591997
55.5686284866418
56.28728497002
57.9557649498106
59.8936747323482
60.8977991058095
60.5747081033967
59.6631871905016
58.9900027093159
58.4432589261774
57.2639925081119
55.1928789549389
52.8949179096716
51.0705643850079
49.4296269069814
46.9183055206408
42.9653027722066
38.1808293535902
33.645393875759
29.7362384916462
25.9885864606679
22.0779351678446
18.5179394132372
16.0696398036491
14.6167772091519
13.0390739024766
10.3548708898677
6.74233063395429
3.17430686210921
0.173576238270101
-2.69618166507878
-5.9949249248843
-9.41654239051275
-12.0496535486968
-13.62039891502
-15.083027373559
-17.6938614590011
-21.6496459254532
-25.9632900110433
-29.6905488524369
-32.914325750821
-36.2543721034186
-39.6300242681387
-42.0000154257953
-42.5192703687551
-41.6538400241578
-40.7763639736072
-40.6873321364761
-40.8918851919933
-40.5014828097787
-39.5549020941035
-39.0473097032032
-39.6676267406605
-40.93625295043
-41.8977611870978
-42.4600290523688
-43.5879432335701
-46.0304135744126
-49.1812075783275
-51.5398028537234
-52.2097220984539
-51.5764747363783
-50.4151100183905
-48.7242459511675
-45.8900166701651
-41.9622705815402
-38.2849337009217
-36.5051391179176
-37.0834534767904
-39.0982593113729
-41.5000697089496
-44.161998035043
-47.4397842392404
-50.9812801185352
-53.5214612539672
-54.0554053030953
-52.8948640321831
-51.2049737700827
-49.5861552055765
-47.5125106657672
-44.3047581553714
-40.2970533423594
-36.6287441167412
-33.9547753099952
-31.8310824737869
-29.6215680073514
-27.6908039030453
-27.1969103436197
-28.6418946654782
-31.0471974720139
-32.8830714305992
-33.6067918439766
-33.859723985606
-34.1474395905388
-33.856498911679
-32.0200107416634
-28.8595629395633
-25.9719723732748
-24.7214034141463
-24.782603531282
-24.6856477118397
-23.6688194092056
-22.455100588302
-21.9913843221056
-21.9021254343878
-20.8194022293296
-18.2505573545741
-15.5064289430643
-14.3300885293025
-14.8662309324418
-15.5560213168525
-15.1033541195506
-13.9705353957247
-13.4773344022829
-13.7503656951986
-13.3315483283226
-11.0783035263678
-7.88343686259255
-5.84659241911841
-5.8211152232696
-6.45904737042052
-6.01741041932799
-4.61097705485464
-3.98881375887339
-5.14540852654273
-6.9485989354939
-7.65426290196927
-7.33394250365043
-7.93292013996638
-10.7258798758643
-14.4096998693151
-16.3596877685199
-15.5094483655447
-13.1986052350821
-10.9968644537711
-8.49683303607584
-4.09207412806096
2.2759069896794
8.17469901888599
11.0419223433173
10.9512194215749
10.2121487611504
10.3120093986619
10.2104936647772
8.21043307525854
4.81352199137769
2.54834490520337
2.77994107120649
3.71846477551823
2.50035591183666
-1.14153121952137
-4.40658972900143
-4.91026803254478
-3.6356285878414
-3.41820285751057
-4.8998585818624
-5.39771759129256
-2.42809269659057
2.64096781517487
5.81272049765876
5.29827702721881
3.78965494097522
5.10661899731457
9.48749571018148
13.6802373319034
15.6742779725308
17.6063908008056
22.6566943521545
29.9200194730797
34.3692235507987
32.4619425426376
26.1180327026845
19.5377367470347
13.0252468955254
2.71054676299616
-12.4766699095978
-25.8949180257254
-28.688949845725
-20.9044479998949
-14.4099999150357
-21.9563911613201
-43.6415423182243
-66.6025313752799
-78.5966683989785
-78.9711867656273
-73.3730289040181
-59.3028541142008
-22.5466342788537
48.1823059410596
145.134804496791
245.35272561355
332.447290120905
410.219879541209
488.866950134813
557.835110360195
579.945530815057
521.053315583348
387.851641180427
231.654014409593
108.882768156132
35.7146028170497
-17.4230721612483
-86.9910459655028
-174.82772441017
-246.66142783317
-269.145547090134
-244.047077331238
-204.93659965944
-184.049796759828
-186.396524872534
-194.949700542841
-194.688465742129
-186.478999450466
-179.270380545152
-175.604702854724
-169.541687612285
-157.024031802886
-142.952856776502
-135.483868506971
-135.701164618729
-136.391306135384
-131.134092094636
-121.664764948224
-114.376953737731
-111.189241701121
-106.876907863036
-96.0799534317854
-80.6731883241957
-68.0619132281154
-62.7516983019858
-61.7854401033043
-59.2336193180622
-53.4596155178035
-48.0456561694665
-45.9674123255171
-45.1038175098739
-40.8045053059959
-31.7918704218046
-21.6298831045989
-14.1391604573835
-8.97500007524086
-2.97304619768039
4.91194821416246
11.7835143262618
14.4182534782269
13.4377016464573
12.5839209376431
14.1513135840726
16.5123287719408
16.7220934812483
14.5570465415234
12.7341901094018
13.286537012755
15.0480719702638
15.5007192768227
14.3741328045767
14.1741301252052
16.9900815189796
21.816590302699
25.8321791872824
27.844084615321
29.4003768491184
32.308766268896
36.0378288582295
38.4739625322986
38.9373557210962
39.3635193362093
42.0286626470872
46.76179862483
51.219752360734
53.7735948701677
55.2326908051741
57.3051610631788
60.0183516043019
61.5805542436701
60.8183510525816
58.8941467051485
57.9938458156225
58.6773461345929
59.3021390510381
58.1832752606249
55.6352303348967
53.3344466387867
52.0244704513513
50.679265120673
48.1736600092231
45.1342675314824
43.4313032293726
43.91817177612
45.3248434271531
45.6823566930672
44.3989219615861
42.4019949855273
40.4115430162437
37.8232768247922
33.7167321974686
28.56823402645
24.2898453826991
22.445741127909
22.8872878958131
24.4468080098192
26.6208271962194
29.9846405817837
34.9117355980393
40.4805303259652
45.1431359910477
48.2920973625743
50.6219985097299
52.8054011279255
54.2781626966966
53.7885315160464
51.0028492736515
47.0508513244486
43.3157810696675
40.107588228801
36.9702931772156
34.1238428524786
32.9577605411985
34.7250532242377
39.01462307378
43.9723587753254
48.0426195505136
51.0882073074767
53.6208006405462
55.3637303706711
55.190146906753
52.5734017442288
48.5985844066138
45.0858612622925
42.8133046995226
41.0017338062182
38.6099654988356
35.7100297212248
33.2212293672445
31.4985356787646
29.7475897525812
27.0704695753726
23.7365322578143
20.9564909425274
19.406550649725
18.3857402834458
16.6567918771143
13.8514537653797
10.664882685065
7.72223487287052
4.73124830013723
1.0678103031679
-3.04062764288633
-6.4017301932327
-8.07372057472696
-8.40512944195158
-8.60365751535248
-9.418619946038
-10.5930891098601
-11.6471654785026
-12.8000222722575
-14.7404653322889
-17.5768886136164
-20.4347948195958
-22.3216813831895
-23.2058866003818
-23.9800178937268
-25.4272974530529
-27.5364164628931
-29.9327835562047
-32.6620061637227
-36.1509293063147
-40.3848265914301
-44.4810263361408
-47.3461772545681
-48.6501850622004
-48.9080859757214
-48.6299756201342
-47.7038157436293
-45.802410904563
-43.1745491066784
-40.637622874587
-38.6805415910424
-36.8454383292
-34.2690126684513
-30.7708249689396
-27.1400878473726
-24.2792305239823
-22.3081771565471
-20.7410585665183
-19.4286066556343
-18.9787398358586
-20.0844366648046
-22.6319430649697
-25.7454908201908
-28.7114423990946
-31.6178382746385
-34.9511905113184
-38.7231018971286
-42.2238651337967
-44.6227822418038
-45.5820387422974
-45.1683287994027
-43.3592252144548
-39.9423384631179
-34.9838517852641
-29.2227890996491
-23.8412930968147
-19.8732081203083
-17.9025206040431
-18.1987750403332
-20.8299075814241
-25.4519004941146
-31.1120623041073
-36.5307617126867
-40.7102919202057
-43.2365811273457
-44.0198522016583
-42.9642022845124
-40.1040311325876
-35.9967595955006
-31.678419769851
-28.0218531902962
-25.2063790314173
-22.9737269235423
-21.3512219413952
-20.8776025000103
-21.9981328185641
-24.419265553793
-27.3095388182013
-30.1142109189559
-32.8979759944014
-35.7380249479686
-38.0001042472844
-38.57178451053
-36.8999650614288
-33.5742509953004
-29.7177675399246
-25.9585271941582
-22.2643540141022
-18.734161423206
-16.1289726268522
-15.27600983388
-16.0511765824725
-17.3173050469483
-18.0052258411727
-18.0213276332218
-17.8781178820572
-17.6318152224606
-16.6215886128159
-14.3883460644701
-11.493700532805
-9.03251845974197
-7.39900908220497
-5.95046888055424
-4.07822971296414
-2.29560423536896
-1.86035836819435
-3.37083470325157
-6.16633720811526
-9.30270812495901
-12.7273087784859
-16.9618183266848
-21.6445410107239
-24.9792461354986
-25.1012300894106
-21.8392982060916
-16.6881147131257
-11.0225342687849
-4.84810869735612
2.33651145195886
9.82385670914176
15.5921838751643
18.1701034320813
18.1462563077182
17.3395019923593
16.6560442034052
15.3753285058846
12.695018747942
9.33153176010055
6.9031257799702
5.87741502135192
4.93364906448146
2.76935427854036
0.0139793730660998
-1.40588500633532
-0.755686660236217
0.45708209291565
0.382454059353122
-0.775426945248995
-1.12653387824973
0.153426496336124
1.40597396109702
0.530052522122034
-2.04264211764096
-3.45513803062371
-1.72066267976066
1.98624803570878
5.06574325920592
6.94533328793152
9.53595356151092
13.9709391359217
18.1241512549299
18.6393821852075
15.0982015664786
10.6823577362834
8.11563700004922
6.23540463793938
2.12250319865399
-3.84048489241115
-7.30220123758903
-5.65823435584866
-3.01463203151383
-6.88132238794149
-19.4229818667532
-34.2514877360109
-43.8211641490305
-48.4362631909014
-54.008391807307
-59.2656397801198
-48.5040865928378
-2.30649940875824
82.7377618241015
188.008570622053
289.795510337817
380.88087660091
470.112471460065
557.883219010639
616.561292102777
604.269158645145
504.107796504647
348.408236687736
198.300496452657
94.9289715333308
30.2861100938761
-33.4801801568813
-117.912269278413
-203.970820392177
-253.105684178539
-248.360074543668
-211.320746489703
-179.870416034559
-173.770228982941
-183.968127013945
-191.530680953421
-190.401690384106
-189.262663928106
-195.480201489677
-203.633381113848
-201.818071016627
-185.949313183528
-164.234037648077
-147.951402994176
-140.939938120765
-139.266133275724
-138.396907829006
-137.147409856602
-134.618031267357
-126.986687915401
-110.665822934174
-88.2908060054143
-68.71447915603
-59.2607818597532
-58.7123200513328
-59.297830582831
-55.2866996582123
-48.1223057326003
-42.7828758822846
-40.8568911764438
-39.0779208856202
-34.3580989392976
-28.1233477320789
-24.3262361601542
-24.1279866515084
-24.3904587232131
-21.7624664643799
-16.7716385719174
-12.6147176210985
-10.5266010440243
-8.01635700639605
-2.24864804568194
6.01064508419574
13.1004818912256
16.8257594680563
18.755410247265
21.6228158644519
25.4683993541596
27.6567288299512
26.6185732202313
24.2378587205192
23.6885315920186
25.5850574029981
27.4903839253828
27.3453818827246
26.2535828909202
27.0051929300776
30.3795494699038
34.1232439089647
35.8845694503306
36.1704687105836
37.4454342690113
40.6379046450704
43.7140784767524
44.201187052509
42.3378516311446
40.7537296699578
41.1694531491386
42.4624936252833
42.5430229730749
41.4305970497423
41.3981574498334
43.9905257850725
47.8689453474004
50.3355701698949
50.5590253931771
50.3320095704032
51.4696323672527
53.3355002982633
53.7273879783375
51.8822388388779
49.5916633976754
48.9487542217096
49.6842717156499
49.5645852284786
47.3010581579577
44.1771020805885
42.3423307809686
42.0862468817641
41.6572386000379
39.7786538562624
37.4889831375327
36.8957842671146
38.5226878217717
40.7328385243341
41.9240975139796
42.558849551841
44.3839989371951
47.9420369653573
51.687120783811
53.8330886270953
54.4428647469881
55.0115489765867
56.173735591156
56.6534437512116
54.8896369674336
51.1892512393496
47.5453100221416
45.337747201592
43.9121706751869
41.8410024668415
39.1151549298142
37.3079872553687
37.4768295834292
38.5991102596521
38.6656503730894
37.0646025327892
35.1869513749167
34.5040954532904
34.6516554169256
33.9975369006494
31.8829828941293
29.5439318985723
28.4925549633748
28.4990619828397
27.8360800691999
25.4707238248355
22.3463211433144
20.1121958839569
19.0014263323948
17.6256270582169
14.8880558697258
11.433172781478
8.71195900120683
6.93441619277618
4.66540975208846
0.644646116411751
-4.5351436937031
-9.08303888790404
-12.1315657039449
-14.554651169947
-17.4608535301593
-20.4223953578644
-21.8451233646428
-21.0395348067487
-19.2714296419257
-18.3665185704978
-18.627644743497
-18.7245996834935
-17.653518950886
-16.1858786068514
-15.9241825502991
-17.2230919291686
-18.7115832617294
-19.0525180144776
-18.6602792122925
-19.1622645200482
-21.3219602064703
-24.1064597096259
-26.0518517120278
-27.0958178378177
-28.4963588645373
-30.9984251298872
-33.6812301712058
-34.9776808876634
-34.5018693485272
-33.311163354361
-32.3375262423775
