Value(μV)
-18.4064750671387
-22.6981410980225
-23.8425846099854
-20.3138828277588
-22.2212886810303
-31.2814712524414
-26.7036952972412
-18.6925868988037
-16.5944385528564
-10.9675893783569
-9.25092315673828
-7.53425693511963
-0.286111027002335
-1.04907369613647
-5.34073925018311
4.1962947845459
16.2129573822021
12.4935140609741
6.38981294631958
8.20184898376465
7.53425693511963
3.24259161949158
-5.24536848068237
-8.67870044708252
-1.14444410800934
-0.667592406272888
-5.34073925018311
-0.190740674734116
12.1120328903198
29.7555465698242
51.5953521728516
55.3147964477539
38.5296173095703
23.6518440246582
13.8286991119385
13.6379585266113
21.839807510376
22.5074005126953
12.9703664779663
0
-6.77129411697388
-7.15277528762817
0.190740674734116
10.0138854980469
3.43333220481873
-14.2101802825928
-24.2240657806396
-28.8018417358398
-38.8157272338867
-50.0694274902344
-56.0777587890625
-55.3147964477539
-56.7453536987305
-63.5166473388672
-63.7073860168457
-58.4620170593262
-50.1647987365723
-37.099063873291
-35.1916542053223
-45.0148010253906
-53.8842430114746
-65.137939453125
-74.2934951782227
-76.3916397094727
-72.5768280029297
-60.3694267272949
-53.6935005187988
-57.6990547180176
-54.2657241821289
-44.8240585327148
-39.2925796508789
-30.8999900817871
-27.2759170532227
-29.1833248138428
-23.6518440246582
-22.125919342041
-22.6981410980225
-17.6435127258301
-15.5453653335571
-9.34629344940186
-0.9537034034729
-0.858333051204681
6.58055353164673
16.5944385528564
4.10092449188232
-11.8259220123291
-12.588885307312
-19.1694374084473
-36.1453590393066
-50.9277610778809
-64.5657196044922
-81.827751159668
-101.950889587402
-111.678665161133
-92.986083984375
-37.8620262145996
40.2462844848633
134.66291809082
268.467498779297
442.041534423828
618.285888671875
751.422912597656
803.685852050781
774.311767578125
685.712768554688
549.333129882813
370.704498291016
141.434219360352
-144.199951171875
-404.560974121094
-553.529479980469
-640.984069824219
-712.893310546875
-729.583129882813
-681.89794921875
-610.560913085938
-530.926696777344
-440.515594482422
-354.491546630859
-271.233245849609
-205.523086547852
-175.099945068359
-140.385147094727
-103.190704345703
-78.8712692260742
-19.4555492401123
70.4786834716797
136.284210205078
167.184204101563
173.287902832031
160.317535400391
140.671249389648
121.215698242188
100.424964904785
90.5064544677734
100.329597473145
113.490707397461
121.120330810547
129.608291625977
140.480514526367
135.998107910156
116.44718170166
103.095336914063
91.1740417480469
72.0046081542969
61.99072265625
65.0425720214844
73.0536804199219
85.6425628662109
92.1277465820313
87.1684875488281
78.394416809082
69.4296035766602
62.0860900878906
53.8842430114746
45.0148010253906
43.1073951721191
43.7749862670898
39.5786895751953
40.6277656555176
43.9657249450684
38.2435073852539
35.4777679443359
30.2323970794678
14.9731435775757
7.24814605712891
3.147221326828
1.33518481254578
16.8805503845215
27.8481388092041
20.409252166748
17.4527721405029
13.1611070632935
-0.572222054004669
-0.286111027002335
8.3925895690918
7.15277528762817
2.47962880134583
3.43333220481873
3.71944332122803
-2.00277709960938
2.67036962509155
11.8259220123291
9.34629344940186
8.3925895690918
8.48795986175537
4.48240613937378
3.5287024974823
2.5749990940094
0.286111027002335
0.286111027002335
0.286111027002335
4.7685170173645
15.1638841629028
20.409252166748
21.9351787567139
24.5101776123047
22.7935104370117
16.8805503845215
10.204626083374
5.43610954284668
4.00555419921875
6.96203470230103
10.204626083374
8.10647869110107
6.58055353164673
7.15277528762817
3.8148136138916
-3.147221326828
-11.7305517196655
-12.6842555999756
-8.0111083984375
-9.06018257141113
-7.82036781311035
-1.71666610240936
3.147221326828
6.1037015914917
-4.29166507720947
-24.7009181976318
-36.6222114562988
-43.0120239257813
-43.0120239257813
-34.0472106933594
-31.3768424987793
-25.5592517852783
-11.9212923049927
-16.6898097991943
-34.4286918640137
-44.6333198547363
-49.0203552246094
-50.355541229248
-50.4509086608887
-46.0638732910156
-36.2407302856445
-32.9027671813965
-29.9462871551514
-26.3222141265869
-31.0907306671143
-33.4749908447266
-33.8564720153809
-36.9083213806152
-35.9546165466309
-41.962947845459
-53.6935005187988
-58.9388694763184
-56.6499824523926
-47.2083168029785
-42.9166526794434
-50.0694274902344
-55.7916488647461
-61.7999801635742
-71.6231231689453
-71.1462707519531
-68.2851638793945
-67.8083114624023
-58.7481307983398
-52.7397994995117
-50.9277610778809
-48.4481315612793
-52.7397994995117
-58.652759552002
-58.4620170593262
-52.8351669311523
-47.8759117126465
-46.9222068786621
-44.9194297790527
-46.3499870300293
-47.3990592956543
-38.6249885559082
-28.2296199798584
-23.8425846099854
-24.0333251953125
-24.6055469512939
-24.0333251953125
-19.2648086547852
-9.34629344940186
2.00277709960938
10.6814785003662
9.63240432739258
7.34351634979248
13.256477355957
18.2157344818115
19.360179901123
19.1694374084473
20.0277709960938
26.226842880249
31.1861019134521
34.2379531860352
36.0499877929688
39.2925796508789
40.6277656555176
35.4777679443359
38.6249885559082
53.121280670166
61.1323890686035
56.2685012817383
52.9305381774902
53.5027618408203
47.6851692199707
47.8759117126465
54.5518341064453
49.0203552246094
41.1999855041504
40.4370231628418
37.8620262145996
30.2323970794678
23.9379558563232
24.0333251953125
27.3712882995605
30.8046188354492
29.0879535675049
23.5564746856689
27.2759170532227
31.7583236694336
25.177770614624
22.6027698516846
23.6518440246582
20.9814739227295
21.4583263397217
21.6490669250488
16.022216796875
11.1583299636841
5.05462789535522
-2.67036962509155
-9.537034034729
-14.4009208679199
-11.5398111343384
-7.6296272277832
-5.7222204208374
2.76573991775513
8.0111083984375
9.15555286407471
16.4990692138672
18.4064750671387
21.4583263397217
28.6111011505127
30.1370277404785
41.0092468261719
50.9277610778809
42.3444290161133
37.8620262145996
43.7749862670898
40.1509132385254
31.2814712524414
28.3249912261963
26.1314735412598
23.2703628540039
26.0361022949219
29.9462871551514
27.943510055542
22.5074005126953
15.7361059188843
18.0249938964844
26.0361022949219
21.0768451690674
10.1092557907104
5.91296100616455
1.62129580974579
-0.858333051204681
2.1935179233551
4.57777643203735
9.44166374206543
23.0796222686768
30.995361328125
25.177770614624
25.0823993682861
27.8481388092041
23.2703628540039
20.0277709960938
10.9675893783569
-3.43333220481873
-0.47685170173645
12.4935140609741
13.7333288192749
14.2101802825928
16.1175880432129
5.91296100616455
0.190740674734116
5.05462789535522
8.20184898376465
7.6296272277832
0.858333051204681
-3.8148136138916
-4.38703584671021
-4.95925760269165
0.381481349468231
0.667592406272888
-5.91296100616455
-2.76573991775513
-3.91018390655518
-10.9675893783569
-3.24259161949158
4.29166507720947
3.05185079574585
7.24814605712891
11.3490705490112
6.00833129882813
-2.38425850868225
-6.77129411697388
-6.86666440963745
-10.0138854980469
-19.2648086547852
-26.5129547119141
-29.9462871551514
-31.5675830841064
-29.4694347381592
-23.7472152709961
-17.8342533111572
-16.4036979675293
-16.6898097991943
-13.5425882339478
-6.86666440963745
0.667592406272888
-0.286111027002335
-5.7222204208374
0.762962698936462
5.81759071350098
-6.6759238243103
-18.9786968231201
-17.738883972168
-9.06018257141113
-4.57777643203735
-6.00833129882813
0.0953703373670578
9.34629344940186
6.48518323898315
2.00277709960938
2.76573991775513
-1.52592539787292
-8.96481227874756
-13.6379585266113
-12.302773475647
-10.4907369613647
-21.839807510376
-25.6546211242676
-7.15277528762817
13.7333288192749
37.099063873291
50.4509086608887
37.5759124755859
24.5101776123047
21.4583263397217
15.5453653335571
12.4935140609741
12.3981437683105
5.7222204208374
-2.00277709960938
-9.44166374206543
-18.6925868988037
-19.4555492401123
-21.9351787567139
-28.8972129821777
-24.4148063659668
-25.8453617095947
-37.8620262145996
-45.300910949707
-51.9768333435059
-58.652759552002
-68.3805313110352
-72.6721954345703
-60.3694267272949
-51.3092422485352
-52.8351669311523
-52.453685760498
-46.4453544616699
-42.8212814331055
-46.3499870300293
-55.9823913574219
-65.6147918701172
-60.7509078979492
-46.9222068786621
-41.8675804138184
-46.7314682006836
-45.1101722717285
-36.3360977172852
-36.6222114562988
-39.197208404541
-37.1944313049316
-30.8046188354492
-24.891658782959
-22.5074005126953
-14.1148099899292
-15.2592544555664
-25.0823993682861
-20.0277709960938
-14.687032699585
-17.0712909698486
-16.5944385528564
-13.5425882339478
-10.1092557907104
-15.0685138702393
-23.3657341003418
-27.2759170532227
-31.2814712524414
-36.3360977172852
-47.3036880493164
-58.1759071350098
-65.3286819458008
-81.6370086669922
-108.817558288574
-132.087921142578
-135.521255493164
-105.479598999023
-41.7722091674805
25.8453617095947
109.96199798584
251.491592407227
430.978576660156
618.190551757813
761.627563476563
809.884948730469
779.366394042969
685.903503417969
545.995178222656
377.761901855469
142.578659057617
-152.783279418945
-399.220245361328
-548.474853515625
-651.66552734375
-725.196044921875
-739.40625
-691.339599609375
-611.228515625
-516.335021972656
-418.294311523438
-327.120269775391
-236.423065185547
-173.669387817383
-149.731430053711
-132.46940612793
-121.311073303223
-91.5555267333984
-6.1037015914917
87.9314498901367
137.237915039063
152.497177124023
152.020324707031
143.055511474609
127.700881958008
104.525894165039
78.5851593017578
59.6064605712891
61.1323890686035
76.7731246948242
90.7925643920898
105.76570892334
117.973114013672
122.360145568848
118.259223937988
104.049041748047
92.4138565063477
83.2583084106445
70.8601608276367
74.7703475952148
97.2777481079102
111.1064453125
106.433296203613
96.0379333496094
87.6453399658203
77.5360870361328
67.4268264770508
64.756462097168
61.99072265625
55.219425201416
55.6009063720703
57.6990547180176
55.0286865234375
56.7453536987305
55.5055389404297
47.8759117126465
41.0092468261719
31.3768424987793
19.9324016571045
11.7305517196655
10.5861072540283
14.3055505752563
20.8861045837402
27.0851764678955
22.6981410980225
17.357400894165
20.7907333374023
22.7935104370117
20.3138828277588
14.7824029922485
9.44166374206543
7.24814605712891
5.62685012817383
7.0574049949646
10.4907369613647
14.5916624069214
23.8425846099854
33.4749908447266
30.1370277404785
17.8342533111572
12.9703664779663
10.3953666687012
2.8611102104187
1.23981440067291
7.24814605712891
14.5916624069214
19.4555492401123
17.738883972168
12.6842555999756
11.7305517196655
11.3490705490112
7.43888664245605
0.9537034034729
-0.858333051204681
3.33796191215515
11.1583299636841
24.891658782959
30.995361328125
30.5185089111328
37.3851737976074
42.9166526794434
38.148136138916
26.6083240509033
9.34629344940186
-1.52592539787292
8.77407169342041
22.6027698516846
23.4611034393311
23.6518440246582
27.1805477142334
19.9324016571045
7.24814605712891
0.572222054004669
-7.34351634979248
-14.4009208679199
-14.7824029922485
-12.6842555999756
-6.86666440963745
-4.00555419921875
-6.48518323898315
-10.8722190856934
-25.177770614624
-46.6360969543457
-58.9388694763184
-56.936092376709
-46.1592445373535
-36.0499877929688
-30.70924949646
-29.1833248138428
-28.9925842285156
-38.3388748168945
-52.6444282531738
-60.274055480957
-72.2907180786133
-83.4490509033203
-79.729606628418
-69.6203460693359
-61.8953514099121
-60.7509078979492
-57.2222023010254
-52.1675758361816
-62.1814613342285
-74.2934951782227
-71.5277557373047
-70.0018310546875
-78.6805267333984
-83.925895690918
-71.8138656616211
-56.2685012817383
-53.7888717651367
-44.7286911010742
-37.099063873291
-44.251838684082
-45.4916534423828
-43.679615020752
-43.4888763427734
-46.2546157836914
-48.8296127319336
-39.0064697265625
-34.3333206176758
-39.2925796508789
-38.8157272338867
-34.7148017883301
-34.2379531860352
-35.1916542053223
-31.8536930084229
-27.7527694702148
-28.9925842285156
-33.9518394470215
-36.0499877929688
-31.2814712524414
-25.7499923706055
-25.2731399536133
-23.4611034393311
-14.0194396972656
-9.44166374206543
-12.7796258926392
-10.7768487930298
-7.43888664245605
-5.1499981880188
6.29444265365601
12.9703664779663
1.62129580974579
-2.76573991775513
4.57777643203735
6.48518323898315
5.91296100616455
4.00555419921875
4.00555419921875
5.34073925018311
5.34073925018311
14.687032699585
23.6518440246582
26.1314735412598
24.9870281219482
20.7907333374023
20.7907333374023
22.9842510223389
28.8018417358398
30.0416564941406
24.6055469512939
33.3796195983887
51.7860946655273
58.2712783813477
55.887020111084
58.1759071350098
52.9305381774902
39.2925796508789
38.7203598022461
39.9601707458496
32.04443359375
30.1370277404785
32.9981384277344
34.2379531860352
42.630542755127
50.2601699829102
42.1536903381348
32.9981384277344
31.3768424987793
31.1861019134521
33.8564720153809
40.2462844848633
44.5379486083984
45.5870208740234
46.1592445373535
40.5323944091797
25.4638805389404
18.5018463134766
22.6981410980225
19.8370304107666
12.6842555999756
11.8259220123291
10.6814785003662
7.34351634979248
10.0138854980469
15.8314762115479
23.9379558563232
31.5675830841064
30.995361328125
27.943510055542
22.8888816833496
14.687032699585
13.256477355957
14.4009208679199
11.5398111343384
10.9675893783569
16.30832862854
19.9324016571045
12.1120328903198
-0.9537034034729
-2.47962880134583
6.6759238243103
11.8259220123291
9.25092315673828
4.86388731002808
4.29166507720947
7.43888664245605
9.72777462005615
15.9268465042114
24.3194370269775
22.3166599273682
12.2074031829834
-0.572222054004669
-3.8148136138916
4.57777643203735
7.72499752044678
8.67870044708252
15.4499950408936
15.0685138702393
9.25092315673828
4.29166507720947
-2.09814739227295
0.572222054004669
-2.47962880134583
-22.6981410980225
-27.8481388092041
-16.7851791381836
-6.6759238243103
4.1962947845459
9.82314491271973
4.86388731002808
-2.47962880134583
-1.52592539787292
4.00555419921875
-1.71666610240936
-5.7222204208374
8.0111083984375
20.5046234130859
16.022216796875
6.6759238243103
4.38703584671021
5.7222204208374
5.7222204208374
2.95648050308228
-4.1962947845459
-7.0574049949646
-2.76573991775513
3.147221326828
6.00833129882813
0.286111027002335
2.09814739227295
8.20184898376465
-6.58055353164673
-16.5944385528564
-10.8722190856934
-15.1638841629028
-17.0712909698486
-13.256477355957
-19.1694374084473
-25.5592517852783
-18.787956237793
-9.72777462005615
-13.6379585266113
-15.35462474823
-7.15277528762817
0.9537034034729
6.77129411697388
8.48795986175537
11.7305517196655
22.7935104370117
32.4259147644043
28.7064723968506
14.8777732849121
6.38981294631958
10.0138854980469
13.6379585266113
11.2537002563477
8.48795986175537
9.44166374206543
10.1092557907104
1.33518481254578
-7.0574049949646
-5.1499981880188
-3.62407302856445
-0.0953703373670578
0
-9.537034034729
-11.8259220123291
-10.5861072540283
-11.4444408416748
-11.8259220123291
-12.302773475647
-5.91296100616455
-3.62407302856445
-9.06018257141113
-13.256477355957
-19.5509204864502
-22.5074005126953
-15.6407356262207
-14.4009208679199
-26.4175834655762
-30.2323970794678
-20.2185115814209
-12.3981437683105
-6.29444265365601
4.95925760269165
25.0823993682861
42.7259140014648
41.8675804138184
29.7555465698242
15.35462474823
5.05462789535522
4.1962947845459
3.91018390655518
-5.43610954284668
-15.9268465042114
-14.7824029922485
-8.20184898376465
-4.38703584671021
-6.1037015914917
-16.30832862854
-20.3138828277588
-19.7416610717773
-27.7527694702148
-29.0879535675049
-28.0388793945313
-41.0092468261719
-55.7916488647461
-61.323127746582
-56.6499824523926
-48.5435028076172
-48.9249839782715
-54.3610954284668
-55.219425201416
-45.8731346130371
-34.810173034668
-39.5786895751953
-49.3064651489258
-45.4916534423828
-43.2981338500977
-46.9222068786621
-45.300910949707
-48.4481315612793
-48.066650390625
-32.5212860107422
-21.5536975860596
-22.3166599273682
-21.7444381713867
-22.6981410980225
-24.6055469512939
-24.0333251953125
-24.2240657806396
-18.5018463134766
-11.3490705490112
-8.48795986175537
-5.91296100616455
-3.71944332122803
-0.858333051204681
3.147221326828
5.53147983551025
4.67314672470093
4.67314672470093
0.47685170173645
-8.3925895690918
-17.6435127258301
-29.5648059844971
-42.630542755127
-65.0425720214844
-101.187927246094
-129.989776611328
-133.232360839844
-111.1064453125
-67.4268264770508
-2.76573991775513
79.729606628418
196.65364074707
368.797119140625
562.494262695313
715.75439453125
798.345092773438
798.535827636719
723.288635253906
597.590576171875
436.033203125
218.493453979492
-63.9934997558594
-331.125823974609
-509.086883544922
-625.438659667969
-713.179382324219
-747.608093261719
-709.936828613281
-637.741455078125
-546.281311035156
-441.469299316406
-354.014709472656
-276.573974609375
-207.049011230469
-164.418472290039
-140.385147094727
-120.73885345459
-94.7981185913086
-37.6712837219238
50.2601699829102
122.169403076172
151.924957275391
157.361053466797
149.731430053711
124.076812744141
91.8416366577148
70.2879409790039
53.7888717651367
45.2055397033691
58.652759552002
80.111083984375
100.615707397461
114.825889587402
112.346260070801
107.291633605957
100.234230041504
81.9231185913086
72.0046081542969
73.2444229125977
79.06201171875
93.8444137573242
104.525894165039
106.624038696289
106.433296203613
100.901817321777
91.6508941650391
78.1083068847656
62.4675712585449
53.8842430114746
46.2546157836914
44.8240585327148
57.6036834716797
62.3722038269043
57.0314636230469
56.8407211303711
51.5953521728516
41.2953567504883
32.9027671813965
24.0333251953125
20.1231422424316
21.3629570007324
20.9814739227295
21.5536975860596
19.6462898254395
16.6898097991943
18.1203651428223
16.022216796875
17.8342533111572
22.4120292663574
20.5999927520752
17.5481433868408
11.1583299636841
9.63240432739258
19.6462898254395
24.3194370269775
26.1314735412598
36.1453590393066
39.5786895751953
29.9462871551514
20.409252166748
13.7333288192749
2.09814739227295
-4.48240613937378
-2.5749990940094
-10.6814785003662
-16.8805503845215
-1.71666610240936
9.82314491271973
2.09814739227295
1.04907369613647
8.29721927642822
2.09814739227295
-4.29166507720947
0.9537034034729
1.23981440067291
-3.62407302856445
1.23981440067291
7.53425693511963
4.86388731002808
1.14444410800934
-9.25092315673828
-20.9814739227295
-16.4990692138672
-14.4009208679199
-22.2212886810303
-20.5046234130859
-8.20184898376465
-0.381481349468231
2.28888821601868
1.81203651428223
-9.06018257141113
-17.5481433868408
-24.7962875366211
-34.1425819396973
-28.9925842285156
-22.125919342041
-20.5999927520752
-17.8342533111572
-16.9759197235107
-13.7333288192749
-13.5425882339478
-26.6083240509033
-34.7148017883301
-34.810173034668
-41.8675804138184
-38.9110984802246
-27.2759170532227
-26.6083240509033
-27.7527694702148
-23.4611034393311
-20.5046234130859
-28.4203605651855
-47.6851692199707
-56.3638725280762
-55.3147964477539
-60.6555366516113
-64.9472045898438
-64.2796096801758
-58.5573883056641
-51.3092422485352
-49.5925750732422
-51.8814659118652
-50.832389831543
-51.7860946655273
-60.4647941589355
-63.8981285095215
-62.3722038269043
-63.1351661682129
-54.2657241821289
-45.1101722717285
-41.4860992431641
-31.8536930084229
-28.8018417358398
-35.382396697998
-36.9083213806152
-32.1398048400879
-27.7527694702148
-26.5129547119141
-23.3657341003418
-17.2620315551758
-13.256477355957
-16.4036979675293
-15.8314762115479
-8.48795986175537
-7.24814605712891
-10.204626083374
-13.3518476486206
-14.0194396972656
-7.24814605712891
-0.572222054004669
3.147221326828
9.44166374206543
10.5861072540283
7.24814605712891
9.72777462005615
13.7333288192749
11.9212923049927
9.15555286407471
10.6814785003662
10.6814785003662
3.8148136138916
4.48240613937378
11.4444408416748
8.10647869110107
1.14444410800934
-1.71666610240936
3.5287024974823
13.256477355957
12.7796258926392
10.1092557907104
13.4472179412842
12.4935140609741
4.00555419921875
-4.7685170173645
-4.7685170173645
-0.0953703373670578
2.8611102104187
5.91296100616455
11.4444408416748
22.125919342041
22.8888816833496
16.8805503845215
19.4555492401123
21.839807510376
23.5564746856689
23.9379558563232
20.6953639984131
24.6055469512939
30.8046188354492
29.278694152832
33.1888771057129
42.630542755127
37.9573936462402
32.3305435180664
39.1018409729004
39.5786895751953
31.6629524230957
26.8944358825684
26.0361022949219
30.995361328125
41.7722091674805
50.5462799072266
53.121280670166
50.4509086608887
44.1564674377441
38.5296173095703
39.4833221435547
41.0092468261719
40.8185043334961
43.0120239257813
41.1999855041504
35.382396697998
31.7583236694336
31.6629524230957
31.5675830841064
32.4259147644043
34.7148017883301
29.5648059844971
26.6083240509033
28.3249912261963
21.5536975860596
23.7472152709961
32.5212860107422
28.4203605651855
22.3166599273682
18.5972156524658
17.5481433868408
20.3138828277588
18.4064750671387
13.4472179412842
11.5398111343384
13.8286991119385
15.7361059188843
10.0138854980469
2.76573991775513
3.24259161949158
8.20184898376465
7.43888664245605
4.29166507720947
-1.33518481254578
-6.86666440963745
-0.47685170173645
3.24259161949158
-3.71944332122803
-3.91018390655518
0.762962698936462
0.190740674734116
1.04907369613647
6.58055353164673
12.302773475647
17.5481433868408
22.8888816833496
24.9870281219482
19.1694374084473
15.35462474823
25.4638805389404
34.0472106933594
29.0879535675049
21.6490669250488
16.7851791381836
10.204626083374
-0.47685170173645
-12.0166625976563
-17.2620315551758
-18.2157344818115
-20.8861045837402
-18.6925868988037
-8.77407169342041
-11.9212923049927
-23.1749935150146
-18.787956237793
-16.6898097991943
-27.4666576385498
-33.6657295227051
-26.9898052215576
-15.2592544555664
-12.6842555999756
-15.35462474823
-10.5861072540283
-4.7685170173645
-6.48518323898315
-9.63240432739258
-9.34629344940186
-11.5398111343384
-15.4499950408936
-15.9268465042114
-12.7796258926392
-12.7796258926392
-21.4583263397217
-35.4777679443359
-39.9601707458496
-34.5240631103516
-34.1425819396973
-36.431468963623
-39.197208404541
-40.1509132385254
-28.3249912261963
-18.787956237793
-16.4036979675293
-5.7222204208374
0
-11.9212923049927
-18.5018463134766
-13.4472179412842
-10.8722190856934
-9.9185152053833
-10.8722190856934
-7.91573810577393
-3.5287024974823
-5.05462789535522
-5.1499981880188
-13.1611070632935
-22.6981410980225
-17.6435127258301
-12.4935140609741
-14.1148099899292
-9.15555286407471
0.190740674734116
-0.0953703373670578
-4.38703584671021
-6.38981294631958
-11.5398111343384
-19.1694374084473
-24.4148063659668
-30.2323970794678
-37.099063873291
-34.3333206176758
-23.0796222686768
-17.5481433868408
-15.0685138702393
-16.2129573822021
-26.226842880249
-28.0388793945313
-18.5972156524658
-13.6379585266113
-10.1092557907104
-4.95925760269165
-4.57777643203735
-8.10647869110107
-9.44166374206543
-5.91296100616455
6.1037015914917
14.0194396972656
3.43333220481873
-2.47962880134583
4.29166507720947
-5.24536848068237
-22.8888816833496
-23.6518440246582
-24.1286964416504
-30.5185089111328
-25.177770614624
-12.2074031829834
-11.7305517196655
-17.357400894165
-4.48240613937378
20.5046234130859
37.7666549682617
52.6444282531738
63.3259048461914
56.1731300354004
42.2490615844727
34.0472106933594
25.5592517852783
18.5018463134766
18.8833274841309
20.5046234130859
22.0305480957031
25.9407329559326
26.226842880249
22.0305480957031
13.5425882339478
7.82036781311035
-0.190740674734116
-18.2157344818115
-25.2731399536133
-30.0416564941406
-44.9194297790527
-57.2222023010254
-59.8925743103027
-45.300910949707
-29.0879535675049
-29.7555465698242
-28.2296199798584
-15.4499950408936
-5.24536848068237
-6.6759238243103
-12.8749961853027
-12.7796258926392
-16.30832862854
-24.4148063659668
-22.8888816833496
-13.1611070632935
-6.00833129882813
-8.67870044708252
-14.0194396972656
-8.20184898376465
0.667592406272888
0.286111027002335
-6.38981294631958
-12.1120328903198
-15.8314762115479
-15.6407356262207
-4.95925760269165
1.81203651428223
-5.24536848068237
-7.91573810577393
-0.0953703373670578
0.572222054004669
-9.9185152053833
-18.1203651428223
-22.9842510223389
-27.943510055542
-26.3222141265869
-27.8481388092041
-38.0527648925781
-49.9740562438965
-66.2823867797852
-91.9370040893555
-122.455513000488
-137.714767456055
-121.311073303223
-80.9694213867188
-18.0249938964844
55.1240577697754
142.197174072266
284.20361328125
469.031341552734
646.706298828125
781.273803710938
826.383972167969
779.747924804688
672.647033691406
526.730407714844
358.973968505859
127.510147094727
-161.366607666016
-386.63134765625
-522.820190429688
-623.531311035156
-685.80810546875
-693.914611816406
-642.319213867188
-554.101684570313
-468.459106445313
-389.778564453125
-318.632293701172
-257.881408691406
-202.089752197266
-167.851791381836
-146.679580688477
-118.73607635498
-92.6045989990234
-39.6740608215332
50.9277610778809
124.458290100098
149.349945068359
145.916625976563
133.136993408203
110.057373046875
79.3481216430664
53.4073905944824
45.2055397033691
48.6388740539551
54.7425765991211
71.1462707519531
90.3157119750977
98.3268203735352
91.6508941650391
68.8573837280273
42.5351715087891
26.7990646362305
17.5481433868408
12.4935140609741
19.2648086547852
36.0499877929688
57.6990547180176
76.1055297851563
79.5388641357422
70.0971984863281
54.7425765991211
45.3962821960449
41.8675804138184
36.3360977172852
37.3851737976074
46.3499870300293
51.5953521728516
52.7397994995117
52.9305381774902
49.1157264709473
48.6388740539551
50.355541229248
41.0092468261719
33.3796195983887
36.7175827026367
38.148136138916
40.2462844848633
39.197208404541
32.9027671813965
34.3333206176758
37.5759124755859
35.9546165466309
32.9027671813965
29.6601753234863
35.1916542053223
42.9166526794434
42.0583190917969
38.5296173095703
34.2379531860352
30.995361328125
30.6138782501221
39.2925796508789
51.4999847412109
45.7777633666992
33.761100769043
27.657398223877
18.787956237793
9.537034034729
5.34073925018311
8.96481227874756
11.1583299636841
6.86666440963745
3.71944332122803
-3.43333220481873
-10.0138854980469
-9.82314491271973
-19.2648086547852
-30.1370277404785
-24.2240657806396
-17.8342533111572
-21.1722145080566
-21.4583263397217
-17.738883972168
-13.256477355957
-6.86666440963745
0.190740674734116
2.8611102104187
-12.6842555999756
-27.657398223877
-18.9786968231201
-11.2537002563477
-10.5861072540283
-3.62407302856445
-3.5287024974823
-14.2101802825928
-22.6981410980225
-26.7990646362305
-35.2870254516602
-38.6249885559082
-28.1342506408691
-18.787956237793
-13.3518476486206
-9.25092315673828
-11.4444408416748
-14.687032699585
-15.2592544555664
-14.1148099899292
-21.4583263397217
-39.6740608215332
-35.2870254516602
-13.1611070632935
-10.3953666687012
-16.8805503845215
-19.9324016571045
-20.5046234130859
-15.2592544555664
-20.409252166748
-36.1453590393066
-42.0583190917969
-49.3064651489258
-61.5138702392578
-51.3092422485352
-29.1833248138428
-27.8481388092041
-33.9518394470215
-36.7175827026367
-50.832389831543
-68.7620162963867
-73.2444229125977
-71.2416458129883
-68.3805313110352
-56.1731300354004
-45.300910949707
-40.913875579834
-34.7148017883301
-31.2814712524414
-38.0527648925781
-48.3527641296387
-55.1240577697754
-58.1759071350098
-56.5546112060547
-52.8351669311523
-45.7777633666992
-34.0472106933594
-24.891658782959
-19.9324016571045
-18.2157344818115
-17.2620315551758
-17.2620315551758
-18.1203651428223
-20.5999927520752
-24.7009181976318
-17.8342533111572
-5.53147983551025
-2.95648050308228
-1.71666610240936
-2.09814739227295
-6.1037015914917
-6.00833129882813
-2.28888821601868
0.190740674734116
-1.52592539787292
-0.572222054004669
6.58055353164673
9.63240432739258
5.91296100616455
3.147221326828
6.96203470230103
11.4444408416748
9.34629344940186
5.91296100616455
8.29721927642822
11.2537002563477
14.4009208679199
14.8777732849121
12.7796258926392
20.7907333374023
26.7990646362305
21.7444381713867
16.9759197235107
12.302773475647
7.24814605712891
8.20184898376465
11.9212923049927
12.2074031829834
12.588885307312
14.9731435775757
16.8805503845215
17.9296245574951
11.635181427002
3.33796191215515
10.5861072540283
19.4555492401123
17.4527721405029
18.6925868988037
20.0277709960938
13.256477355957
11.1583299636841
20.3138828277588
26.226842880249
25.9407329559326
25.7499923706055
22.8888816833496
22.8888816833496
25.5592517852783
29.0879535675049
28.8018417358398
18.8833274841309
24.4148063659668
34.3333206176758
24.6055469512939
22.7935104370117
29.278694152832
29.278694152832
31.6629524230957
29.0879535675049
22.8888816833496
27.5620288848877
35.0962867736816
33.9518394470215
32.9027671813965
34.0472106933594
26.7990646362305
21.3629570007324
27.0851764678955
31.6629524230957
27.8481388092041
19.9324016571045
18.5972156524658
28.3249912261963
37.1944313049316
41.1046180725098
44.1564674377441
38.4342460632324
28.6111011505127
23.1749935150146
18.8833274841309
18.2157344818115
21.5536975860596
22.6027698516846
20.8861045837402
15.9268465042114
9.15555286407471
8.48795986175537
10.5861072540283
15.4499950408936
17.0712909698486
8.86944198608398
8.58333015441895
18.9786968231201
27.2759170532227
31.7583236694336
30.4231376647949
25.5592517852783
27.657398223877
23.6518440246582
6.58055353164673
4.00555419921875
7.82036781311035
-1.9074068069458
-8.96481227874756
-7.82036781311035
-6.38981294631958
-9.63240432739258
-10.9675893783569
-11.1583299636841
-25.177770614624
-28.7064723968506
-15.7361059188843
-12.0166625976563
-5.43610954284668
5.1499981880188
2.95648050308228
-7.34351634979248
-16.022216796875
-12.588885307312
-5.81759071350098
-8.0111083984375
-12.2074031829834
-16.7851791381836
-12.8749961853027
-1.9074068069458
0.381481349468231
-2.1935179233551
-0.667592406272888
2.00277709960938
-6.48518323898315
-13.3518476486206
-5.91296100616455
-2.5749990940094
-2.8611102104187
-2.67036962509155
-8.67870044708252
-11.0629596710205
-11.635181427002
-14.4962921142578
-13.4472179412842
-12.6842555999756
-12.8749961853027
-10.1092557907104
-8.10647869110107
-5.81759071350098
-1.52592539787292
0
-3.147221326828
-8.3925895690918
-9.06018257141113
-7.72499752044678
-8.29721927642822
-3.43333220481873
-2.8611102104187
-6.48518323898315
2.95648050308228
2.09814739227295
-13.5425882339478
-12.588885307312
-4.95925760269165
-8.29721927642822
-17.357400894165
-14.687032699585
-5.1499981880188
-8.20184898376465
-9.537034034729
-7.0574049949646
-10.1092557907104
-8.48795986175537
-9.44166374206543
-17.738883972168
-22.5074005126953
-21.2675857543945
-18.3111057281494
-12.6842555999756
-2.76573991775513
-0.0953703373670578
-7.15277528762817
-13.256477355957
-13.3518476486206
-10.0138854980469
-10.3953666687012
-6.86666440963745
-1.23981440067291
-4.48240613937378
-3.62407302856445
-3.71944332122803
-6.1037015914917
3.05185079574585
2.38425850868225
-5.62685012817383
-1.81203651428223
-2.38425850868225
-6.58055353164673
-5.05462789535522
-2.5749990940094
9.34629344940186
31.3768424987793
40.7231369018555
35.2870254516602
38.2435073852539
40.4370231628418
28.5157318115234
18.6925868988037
7.6296272277832
-11.1583299636841
-17.4527721405029
-9.25092315673828
-0.0953703373670578
0.0953703373670578
-11.2537002563477
-15.8314762115479
-14.4009208679199
-28.0388793945313
-38.9110984802246
-33.8564720153809
-32.1398048400879
-41.1046180725098
-51.0231323242188
-50.5462799072266
-35.4777679443359
-20.2185115814209
-23.3657341003418
-30.995361328125
-25.0823993682861
-21.2675857543945
-29.4694347381592
-34.7148017883301
-33.5703582763672
-33.9518394470215
-32.7120246887207
-24.6055469512939
-18.5972156524658
-20.9814739227295
-22.2212886810303
-22.5074005126953
-25.8453617095947
-25.0823993682861
-24.6055469512939
-28.8018417358398
-28.3249912261963
-24.5101776123047
-13.6379585266113
-3.91018390655518
-9.9185152053833
-13.8286991119385
-8.29721927642822
-8.10647869110107
-12.1120328903198
-14.2101802825928
-17.6435127258301
-24.7009181976318
-28.9925842285156
-34.3333206176758
-48.066650390625
-56.1731300354004
-61.99072265625
-87.6453399658203
-119.59440612793
-132.087921142578
-119.403663635254
-94.3212661743164
-47.8759117126465
34.810173034668
125.507369995117
245.960113525391
426.591522216797
603.980346679688
716.994201660156
763.534912109375
752.185852050781
681.134948730469
563.734069824219
405.228576660156
183.206420898438
-81.827751159668
-314.722106933594
-461.592437744141
-549.905395507813
-608.081298828125
-609.702575683594
-574.41552734375
-538.937805175781
-477.328552246094
-404.847106933594
-355.922119140625
-316.820281982422
-299.939727783203
-290.307312011719
-251.205474853516
-211.245300292969
-178.247161865234
-134.090698242188
-86.4055252075195
-22.4120292663574
61.5138702392578
128.36848449707
148.205505371094
128.177734375
101.187927246094
82.1138610839844
65.2333145141602
59.0342407226563
68.4759063720703
87.0731201171875
103.572189331055
105.002746582031
102.237007141113
97.7546005249023
80.3971939086914
63.8981285095215
49.4018363952637
41.0092468261719
58.2712783813477
82.4953460693359
94.5120086669922
100.043487548828
96.800895690918
84.0212707519531
74.0073852539063
70.3833084106445
58.0805358886719
47.1129493713379
59.5110931396484
79.8249740600586
88.8851547241211
91.8416366577148
92.5092315673828
89.5527496337891
83.8305282592773
71.9092330932617
60.3694267272949
62.4675712585449
63.039794921875
55.1240577697754
62.4675712585449
74.198127746582
67.7129440307617
61.8953514099121
65.0425720214844
58.2712783813477
50.1647987365723
52.5490570068359
47.017578125
33.4749908447266
28.5157318115234
27.3712882995605
20.8861045837402
17.357400894165
22.125919342041
25.5592517852783
31.3768424987793
37.1944313049316
25.8453617095947
14.3055505752563
17.0712909698486
15.8314762115479
14.687032699585
22.4120292663574
26.4175834655762
18.2157344818115
10.8722190856934
13.5425882339478
13.5425882339478
6.00833129882813
-5.91296100616455
-13.4472179412842
-11.0629596710205
-2.09814739227295
6.58055353164673
4.67314672470093
-0.572222054004669
-2.76573991775513
-5.81759071350098
-7.72499752044678
-11.8259220123291
-22.0305480957031
-27.1805477142334
-20.5046234130859
-15.7361059188843
-15.35462474823
-9.72777462005615
-5.91296100616455
-2.47962880134583
1.52592539787292
-10.2999963760376
-29.0879535675049
-40.7231369018555
-49.8786888122559
-45.8731346130371
-29.6601753234863
-23.9379558563232
-27.0851764678955
-20.409252166748
-9.25092315673828
-16.4990692138672
-27.657398223877
-26.4175834655762
-28.7064723968506
-33.1888771057129
-29.1833248138428
-22.3166599273682
-19.074068069458
-16.7851791381836
-15.1638841629028
-22.6981410980225
-34.9055442810059
-39.2925796508789
-41.1999855041504
-47.2083168029785
-47.1129493713379
-42.2490615844727
-41.8675804138184
-42.630542755127
-49.2110939025879
-62.6583137512207
-72.9583129882813
-83.1629333496094
-91.5555267333984
-92.8907089233398
-92.6999740600586
-82.3999710083008
-70.0971984863281
-72.3860855102539
-72.1953506469727
-61.7046089172363
-60.6555366516113
-64.1842422485352
-57.9851684570313
-55.5055389404297
-58.9388694763184
-50.1647987365723
-37.7666549682617
-34.3333206176758
-35.0009155273438
-35.4777679443359
-31.0907306671143
-31.1861019134521
-42.8212814331055
-48.6388740539551
-44.3472061157227
-43.2027626037598
-42.0583190917969
-35.8592491149902
-35.9546165466309
-31.7583236694336
-21.839807510376
-24.4148063659668
-24.0333251953125
-15.0685138702393
-10.204626083374
-7.72499752044678
-7.72499752044678
-8.77407169342041
0
13.6379585266113
17.738883972168
12.8749961853027
3.8148136138916
5.62685012817383
16.1175880432129
16.7851791381836
16.1175880432129
14.7824029922485
17.8342533111572
28.1342506408691
31.0907306671143
36.1453590393066
42.8212814331055
37.4805450439453
32.9027671813965
35.1916542053223
37.4805450439453
40.6277656555176
42.4398002624512
44.9194297790527
50.832389831543
52.8351669311523
50.0694274902344
44.0610961914063
36.0499877929688
26.226842880249
18.8833274841309
17.357400894165
21.1722145080566
28.8972129821777
32.3305435180664
28.4203605651855
27.7527694702148
30.70924949646
30.5185089111328
35.6685066223145
47.3990592956543
58.2712783813477
66.1870193481445
67.9990539550781
61.5138702392578
48.066650390625
38.9110984802246
42.5351715087891
49.0203552246094
51.1185035705566
52.8351669311523
50.355541229248
42.7259140014648
33.1888771057129
24.5101776123047
24.0333251953125
27.5620288848877
33.4749908447266
41.962947845459
38.0527648925781
30.4231376647949
36.3360977172852
37.099063873291
23.2703628540039
18.2157344818115
24.4148063659668
31.3768424987793
35.4777679443359
25.8453617095947
17.0712909698486
21.1722145080566
18.0249938964844
10.2999963760376
6.29444265365601
7.53425693511963
13.1611070632935
13.7333288192749
14.4009208679199
15.6407356262207
14.0194396972656
13.0657367706299
10.1092557907104
8.48795986175537
3.62407302856445
-6.6759238243103
-13.1611070632935
-20.0277709960938
-19.7416610717773
-12.4935140609741
-17.2620315551758
-21.3629570007324
-18.5972156524658
-19.9324016571045
-22.6027698516846
-26.226842880249
-29.9462871551514
-24.5101776123047
-12.8749961853027
-5.62685012817383
-2.95648050308228
1.71666610240936
2.67036962509155
0.381481349468231
5.1499981880188
7.0574049949646
3.24259161949158
-1.23981440067291
-5.81759071350098
-1.9074068069458
3.5287024974823
4.00555419921875
2.5749990940094
-1.33518481254578
-4.67314672470093
0
4.95925760269165
8.48795986175537
11.3490705490112
7.24814605712891
5.43610954284668
3.147221326828
-2.8611102104187
0.190740674734116
-1.23981440067291
-12.302773475647
-16.8805503845215
-15.1638841629028
-13.8286991119385
-13.9240694046021
-13.9240694046021
-13.7333288192749
-15.1638841629028
-16.2129573822021
-16.6898097991943
-24.5101776123047
-30.0416564941406
-20.5999927520752
-20.7907333374023
-31.2814712524414
-24.5101776123047
-11.635181427002
-5.05462789535522
1.14444410800934
-0.572222054004669
-9.72777462005615
-13.8286991119385
-13.5425882339478
-8.96481227874756
-5.81759071350098
-4.10092449188232
-2.1935179233551
-10.9675893783569
-18.5018463134766
-12.3981437683105
-4.10092449188232
-3.62407302856445
-12.1120328903198
-15.35462474823
-5.1499981880188
2.47962880134583
2.09814739227295
-0.381481349468231
-2.00277709960938
1.14444410800934
5.34073925018311
3.8148136138916
-2.1935179233551
-2.28888821601868
0.762962698936462
-0.0953703373670578
-1.62129580974579
-4.7685170173645
-6.77129411697388
-4.67314672470093
4.48240613937378
14.1148099899292
8.48795986175537
2.1935179233551
6.58055353164673
4.57777643203735
-3.8148136138916
-9.06018257141113
-8.86944198608398
-4.1962947845459
4.1962947845459
12.1120328903198
12.7796258926392
21.3629570007324
45.7777633666992
58.7481307983398
54.8379440307617
51.3092422485352
41.5814666748047
23.7472152709961
12.2074031829834
5.1499981880188
-4.95925760269165
-10.9675893783569
-15.35462474823
-20.1231422424316
-21.9351787567139
-22.0305480957031
-21.3629570007324
-20.7907333374023
-25.0823993682861
-40.913875579834
-61.6092376708984
-73.0536804199219
-75.9147872924805
-80.3971939086914
-82.6860809326172
-72.6721954345703
-63.5166473388672
-56.5546112060547
-40.8185043334961
-34.3333206176758
-39.3879508972168
-39.864803314209
-40.1509132385254
-37.099063873291
-33.2842483520508
-35.0962867736816
-30.4231376647949
-27.943510055542
-31.9490642547607
-23.8425846099854
-10.1092557907104
-9.15555286407471
-15.6407356262207
-16.4036979675293
-13.6379585266113
-9.82314491271973
-4.00555419921875
-1.81203651428223
-0.190740674734116
1.52592539787292
-3.43333220481873
-1.43055510520935
7.15277528762817
12.2074031829834
15.9268465042114
8.77407169342041
-3.8148136138916
-8.0111083984375
-15.0685138702393
-26.226842880249
-29.6601753234863
-34.5240631103516
-55.0286865234375
-84.8796005249023
-110.724967956543
-125.221252441406
-114.635147094727
-76.5823822021484
-18.2157344818115
56.4592399597168
160.126800537109
315.961944580078
498.691497802734
662.919250488281
763.630310058594
770.020141601563
706.122009277344
599.688720703125
452.722991943359
260.742523193359
10.4907369613647
-265.320281982422
-469.794281005859
-574.320190429688
-642.128479003906
-684.282165527344
-673.21923828125
-620.002563476563
-541.894287109375
-461.115600585938
-392.639678955078
-333.891571044922
-279.435089111328
-230.414733886719
-202.566604614258
-185.87678527832
-157.456436157227
-122.550888061523
-64.1842422485352
27.5620288848877
111.392555236816
152.115692138672
152.687911987305
136.856430053711
121.501815795898
103.476821899414
90.5064544677734
91.3647842407227
93.6536712646484
101.474044799805
120.262001037598
130.943481445313
128.559219360352
119.880516052246
107.291633605957
89.6481170654297
71.4323883056641
63.7073860168457
63.6120147705078
70.2879409790039
83.3536758422852
91.8416366577148
94.2258987426758
94.8934860229492
95.3703384399414
91.5555267333984
83.5444183349609
72.8629379272461
66.4731292724609
68.2851638793945
67.6175689697266
70.8601608276367
80.6833038330078
81.827751159668
78.9666442871094
77.1546020507813
66.5684967041016
53.3120193481445
53.6935005187988
63.2305335998535
57.8897972106934
49.3064651489258
50.9277610778809
43.679615020752
36.9083213806152
38.148136138916
37.7666549682617
33.761100769043
24.7009181976318
22.2212886810303
23.2703628540039
18.2157344818115
23.1749935150146
36.431468963623
34.6194343566895
24.4148063659668
23.8425846099854
22.6981410980225
18.4064750671387
21.1722145080566
21.6490669250488
14.0194396972656
18.8833274841309
25.9407329559326
18.3111057281494
18.2157344818115
22.4120292663574
20.0277709960938
21.0768451690674
17.1666603088379
10.3953666687012
5.81759071350098
1.33518481254578
1.52592539787292
-0.47685170173645
-0.286111027002335
4.38703584671021
1.71666610240936
-3.147221326828
-2.38425850868225
-7.6296272277832
-13.7333288192749
-12.7796258926392
-23.5564746856689
-33.761100769043
-26.3222141265869
-15.6407356262207
-10.2999963760376
-17.6435127258301
-24.1286964416504
-19.9324016571045
-27.3712882995605
-38.9110984802246
-38.7203598022461
-37.5759124755859
-32.8073959350586
-23.4611034393311
-21.0768451690674
-23.3657341003418
-22.7935104370117
-28.2296199798584
-45.2055397033691
-57.1268348693848
-60.274055480957
-61.323127746582
-53.6935005187988
-45.0148010253906
-37.6712837219238
-37.2898025512695
-51.7860946655273
-58.8434982299805
-63.1351661682129
-78.394416809082
-80.5879364013672
-75.4379425048828
-80.4925689697266
-79.1573791503906
-70.9555358886719
-64.2796096801758
-56.7453536987305
-55.5055389404297
-62.9444236755371
-66.4731292724609
-64.0888671875
-67.9990539550781
-78.4897918701172
-78.9666442871094
-67.8083114624023
-60.8462753295898
-63.3259048461914
-61.2277565002441
-55.7916488647461
-58.4620170593262
-61.6092376708984
-60.7509078979492
-58.2712783813477
-52.2629470825195
-50.5462799072266
-51.1185035705566
-44.9194297790527
-39.2925796508789
-35.8592491149902
-29.5648059844971
-28.6111011505127
-25.6546211242676
-17.9296245574951
-20.9814739227295
-21.839807510376
-9.537034034729
-2.5749990940094
-7.34351634979248
-12.4935140609741
-13.6379585266113
-11.0629596710205
-3.71944332122803
-0.381481349468231
-2.1935179233551
-0.190740674734116
8.58333015441895
17.2620315551758
16.5944385528564
9.9185152053833
4.57777643203735
7.53425693511963
12.4935140609741
8.96481227874756
10.8722190856934
21.7444381713867
25.8453617095947
29.6601753234863
41.1999855041504
44.3472061157227
38.4342460632324
38.6249885559082
40.4370231628418
35.8592491149902
31.1861019134521
31.1861019134521
32.4259147644043
33.2842483520508
29.9462871551514
26.0361022949219
32.2351760864258
38.4342460632324
34.4286918640137
34.3333206176758
40.1509132385254
39.2925796508789
31.6629524230957
26.4175834655762
30.995361328125
39.4833221435547
43.5842437744141
43.3935050964355
42.9166526794434
45.0148010253906
45.9685020446777
47.9712791442871
55.3147964477539
57.0314636230469
46.4453544616699
45.3962821960449
55.6962776184082
55.219425201416
51.6907234191895
53.4073905944824
49.9740562438965
49.4018363952637
60.8462753295898
69.4296035766602
65.6147918701172
60.8462753295898
62.6583137512207
58.3666496276855
47.2083168029785
46.0638732910156
46.5407257080078
37.8620262145996
30.8999900817871
25.177770614624
19.074068069458
18.0249938964844
16.4036979675293
15.0685138702393
16.8805503845215
14.3055505752563
7.43888664245605
6.38981294631958
9.72777462005615
11.3490705490112
12.1120328903198
11.2537002563477
4.7685170173645
0
5.91296100616455
14.687032699585
19.2648086547852
21.2675857543945
20.2185115814209
14.3055505752563
6.1037015914917
4.10092449188232
10.7768487930298
14.8777732849121
10.4907369613647
3.5287024974823
-1.62129580974579
-3.24259161949158
-4.10092449188232
-9.9185152053833
-11.9212923049927
-8.3925895690918
-4.95925760269165
0.572222054004669
-0.762962698936462
-5.1499981880188
-0.286111027002335
-3.05185079574585
-11.5398111343384
-16.2129573822021
-22.4120292663574
-22.7935104370117
-25.9407329559326
-35.7638778686523
-37.0036926269531
-30.2323970794678
-21.6490669250488
-19.9324016571045
-23.3657341003418
-26.7990646362305
-35.8592491149902
-41.1046180725098
-38.0527648925781
-33.761100769043
-27.2759170532227
-23.5564746856689
-16.4036979675293
-2.47962880134583
-0.572222054004669
-5.62685012817383
-7.91573810577393
-4.38703584671021
4.00555419921875
2.76573991775513
-4.29166507720947
-2.76573991775513
2.67036962509155
4.1962947845459
4.7685170173645
5.91296100616455
5.81759071350098
0.47685170173645
-5.53147983551025
-6.00833129882813
-4.38703584671021
-1.81203651428223
2.8611102104187
2.1935179233551
-0.47685170173645
2.95648050308228
4.7685170173645
-1.52592539787292
-8.10647869110107
-10.3953666687012
-10.8722190856934
-13.6379585266113
-16.4036979675293
-18.9786968231201
-26.226842880249
-32.6166572570801
-31.1861019134521
-25.6546211242676
-22.9842510223389
-25.4638805389404
-26.8944358825684
-21.6490669250488
-14.687032699585
-15.4499950408936
-20.3138828277588
-17.738883972168
-14.3055505752563
-17.4527721405029
-13.1611070632935
-5.91296100616455
-5.24536848068237
0.286111027002335
1.14444410800934
-2.09814739227295
3.62407302856445
5.05462789535522
0.858333051204681
1.33518481254578
-1.52592539787292
-11.7305517196655
-16.4990692138672
-12.4935140609741
-7.82036781311035
0
9.15555286407471
14.8777732849121
15.8314762115479
12.8749961853027
14.0194396972656
19.074068069458
22.0305480957031
19.7416610717773
11.4444408416748
-0.9537034034729
-11.5398111343384
-10.9675893783569
-9.44166374206543
-16.6898097991943
-20.1231422424316
-13.3518476486206
1.52592539787292
19.074068069458
23.9379558563232
23.5564746856689
23.3657341003418
15.1638841629028
14.4009208679199
17.738883972168
10.1092557907104
1.52592539787292
2.09814739227295
4.95925760269165
-0.381481349468231
-7.82036781311035
-9.44166374206543
-10.4907369613647
-12.588885307312
-19.6462898254395
-31.6629524230957
-32.8073959350586
-28.7064723968506
-39.4833221435547
-53.0259094238281
-56.3638725280762
-52.453685760498
-38.2435073852539
-21.9351787567139
-19.074068069458
-27.943510055542
-30.6138782501221
-24.7962875366211
-27.657398223877
-33.1888771057129
-29.6601753234863
-28.6111011505127
-27.3712882995605
-19.9324016571045
-18.5018463134766
-17.6435127258301
-13.4472179412842
-18.3111057281494
-24.7009181976318
-22.8888816833496
-19.9324016571045
-14.1148099899292
-4.1962947845459
-4.7685170173645
-8.20184898376465
-5.7222204208374
-1.23981440067291
9.34629344940186
15.6407356262207
12.6842555999756
11.7305517196655
7.24814605712891
-0.47685170173645
-4.86388731002808
-13.7333288192749
-27.1805477142334
-39.6740608215332
-48.2573928833008
-51.9768333435059
-69.0481262207031
-101.37866973877
-123.409217834473
-118.926811218262
-85.7379379272461
-23.4611034393311
57.0314636230469
160.794387817383
314.436004638672
505.844268798828
686.666442871094
810.266418457031
842.883056640625
790.238647460938
677.70166015625
523.48779296875
335.798980712891
78.2036819458008
-223.929565429688
-446.810028076172
-574.606323242188
-682.374755859375
-759.434020996094
-766.109924316406
-709.936828613281
-609.893310546875
-501.743347167969
-422.490600585938
-353.823974609375
-274.571197509766
-220.400848388672
-199.800857543945
-172.143463134766
-143.341613769531
-109.866630554199
-31.6629524230957
57.3175735473633
102.999969482422
117.305519104004
122.264778137207
115.111999511719
92.6999740600586
69.9064559936523
55.4101676940918
48.8296127319336
54.9333152770996
69.2388687133789
87.6453399658203
104.335151672363
109.485153198242
105.288856506348
95.084228515625
80.3971939086914
64.9472045898438
52.2629470825195
50.4509086608887
64.5657196044922
82.4953460693359
94.9888610839844
107.577743530273
108.912925720215
100.329597473145
92.318489074707
75.8194198608398
62.5629425048828
64.5657196044922
61.99072265625
61.99072265625
75.0564575195313
79.6342315673828
77.7268295288086
76.0101623535156
70.0971984863281
61.7999801635742
43.3935050964355
27.3712882995605
30.8999900817871
35.5731353759766
36.1453590393066
37.7666549682617
40.0555419921875
51.0231323242188
57.8897972106934
50.4509086608887
43.3935050964355
42.2490615844727
43.7749862670898
43.679615020752
40.6277656555176
36.7175827026367
30.1370277404785
25.6546211242676
20.5046234130859
17.357400894165
18.6925868988037
13.3518476486206
8.67870044708252
5.91296100616455
-1.43055510520935
-2.95648050308228
4.67314672470093
12.3981437683105
14.0194396972656
15.4499950408936
19.074068069458
19.4555492401123
16.1175880432129
5.62685012817383
-8.58333015441895
-12.4935140609741
-15.6407356262207
-20.9814739227295
-11.635181427002
3.62407302856445
14.4962921142578
18.1203651428223
5.7222204208374
-5.1499981880188
-6.96203470230103
-15.6407356262207
-22.4120292663574
-19.4555492401123
-20.0277709960938
-17.9296245574951
-6.29444265365601
-0.0953703373670578
-1.14444410800934
-3.33796191215515
-6.38981294631958
-10.0138854980469
-14.9731435775757
-12.8749961853027
-4.57777643203735
-0.286111027002335
2.8611102104187
8.96481227874756
17.5481433868408
17.6435127258301
2.67036962509155
-20.0277709960938
-35.0009155273438
-35.8592491149902
-34.9055442810059
-32.1398048400879
-27.1805477142334
-23.3657341003418
-24.7962875366211
-31.3768424987793
-41.3907279968262
-58.3666496276855
-70.2879409790039
-70.7647933959961
-69.6203460693359
-73.7212753295898
-77.8221969604492
-76.0101623535156
-74.6749725341797
-76.3916397094727
-79.6342315673828
-82.2092361450195
-85.0703430175781
-89.1712646484375
-85.8333053588867
-79.1573791503906
-78.9666442871094
-73.9120101928711
-63.5166473388672
-60.7509078979492
-61.5138702392578
-59.5110931396484
-62.0860900878906
-63.039794921875
-51.4999847412109
-39.864803314209
-34.1425819396973
-28.4203605651855
-28.5157318115234
-30.8046188354492
-27.657398223877
-33.2842483520508
-43.2027626037598
-39.197208404541
-37.2898025512695
-42.3444290161133
-40.3416519165039
-32.04443359375
-25.7499923706055
-24.6055469512939
-19.8370304107666
-12.4935140609741
-7.15277528762817
-3.71944332122803
-4.86388731002808
-8.58333015441895
-15.6407356262207
-14.7824029922485
-0.0953703373670578
8.20184898376465
5.53147983551025
1.81203651428223
-2.1935179233551
-2.28888821601868
2.47962880134583
8.96481227874756
15.0685138702393
13.1611070632935
17.8342533111572
34.9055442810059
40.1509132385254
35.8592491149902
39.2925796508789
39.0064697265625
35.0009155273438
39.1018409729004
39.3879508972168
39.7694320678711
43.9657249450684
37.6712837219238
37.099063873291
44.7286911010742
39.2925796508789
35.0009155273438
37.8620262145996
33.3796195983887
29.8509159088135
29.4694347381592
26.226842880249
24.6055469512939
28.2296199798584
34.7148017883301
37.6712837219238
37.6712837219238
35.1916542053223
30.8999900817871
28.4203605651855
31.9490642547607
37.5759124755859
35.7638778686523
31.8536930084229
34.810173034668
37.3851737976074
34.5240631103516
35.0962867736816
41.1046180725098
46.9222068786621
49.6879463195801
42.9166526794434
36.5268402099609
39.2925796508789
42.5351715087891
43.5842437744141
41.8675804138184
42.630542755127
42.9166526794434
38.6249885559082
37.5759124755859
35.5731353759766
32.9981384277344
31.5675830841064
30.4231376647949
33.6657295227051
35.9546165466309
32.7120246887207
29.3740653991699
33.1888771057129
36.1453590393066
28.8972129821777
20.3138828277588
9.63240432739258
-6.96203470230103
-10.9675893783569
-0.47685170173645
4.67314672470093
7.0574049949646
13.5425882339478
13.9240694046021
7.53425693511963
2.76573991775513
-2.1935179233551
-5.43610954284668
-0.381481349468231
5.62685012817383
10.0138854980469
10.204626083374
6.58055353164673
11.7305517196655
16.4990692138672
12.4935140609741
5.43610954284668
-4.86388731002808
-7.6296272277832
-4.7685170173645
-11.4444408416748
-14.4962921142578
-10.5861072540283
-18.787956237793
-25.4638805389404
-17.6435127258301
-11.9212923049927
-16.8805503845215
-20.409252166748
-14.4962921142578
-8.20184898376465
-12.588885307312
-20.5046234130859
-14.2101802825928
-8.77407169342041
-20.2185115814209
-29.0879535675049
-23.4611034393311
-12.0166625976563
-6.77129411697388
-7.43888664245605
-7.6296272277832
-4.95925760269165
5.34073925018311
10.1092557907104
2.09814739227295
5.43610954284668
15.1638841629028
12.0166625976563
10.5861072540283
13.3518476486206
13.6379585266113
10.8722190856934
8.10647869110107
13.9240694046021
16.8805503845215
8.86944198608398
2.47962880134583
-0.47685170173645
-3.71944332122803
-3.62407302856445
-0.0953703373670578
3.5287024974823
5.34073925018311
5.43610954284668
-2.00277709960938
-11.3490705490112
-11.8259220123291
-9.72777462005615
-10.0138854980469
-10.7768487930298
-9.06018257141113
-9.34629344940186
-16.022216796875
-14.687032699585
-10.5861072540283
-17.6435127258301
-15.5453653335571
-4.67314672470093
-5.91296100616455
-7.53425693511963
-2.47962880134583
-3.5287024974823
-7.0574049949646
-8.48795986175537
-11.5398111343384
-15.4499950408936
-21.7444381713867
-24.2240657806396
-24.3194370269775
-28.9925842285156
-31.5675830841064
-27.2759170532227
-16.6898097991943
-9.44166374206543
-12.588885307312
-17.5481433868408
-20.6953639984131
-22.8888816833496
-23.7472152709961
-22.2212886810303
-22.5074005126953
-28.7064723968506
-32.1398048400879
-27.3712882995605
-22.3166599273682
-16.5944385528564
-11.4444408416748
-10.6814785003662
-0.762962698936462
9.44166374206543
8.10647869110107
10.6814785003662
12.7796258926392
4.29166507720947
-6.86666440963745
-8.58333015441895
-1.52592539787292
-0.858333051204681
-0.667592406272888
7.0574049949646
6.38981294631958
2.67036962509155
17.2620315551758
32.8073959350586
37.2898025512695
43.0120239257813
41.5814666748047
32.4259147644043
24.7962875366211
13.9240694046021
8.67870044708252
6.96203470230103
-0.858333051204681
2.5749990940094
7.91573810577393
0.0953703373670578
-2.67036962509155
-9.15555286407471
-23.6518440246582
-23.5564746856689
-22.4120292663574
-32.7120246887207
-35.2870254516602
-37.8620262145996
-54.2657241821289
-59.4157218933105
-46.7314682006836
-35.0962867736816
-21.7444381713867
-13.3518476486206
-20.7907333374023
-25.9407329559326
-24.891658782959
-33.8564720153809
-40.1509132385254
-36.431468963623
-36.2407302856445
-44.6333198547363
-52.2629470825195
-46.9222068786621
-40.8185043334961
-40.7231369018555
-33.2842483520508
-26.3222141265869
-26.5129547119141
-24.6055469512939
-22.2212886810303
-19.074068069458
-11.0629596710205
-4.1962947845459
0.190740674734116
5.1499981880188
7.72499752044678
2.47962880134583
-3.8148136138916
-2.5749990940094
-4.29166507720947
-15.7361059188843
-22.9842510223389
-21.4583263397217
-25.0823993682861
-37.5759124755859
-46.3499870300293
-61.6092376708984
-101.187927246094
-138.85920715332
-146.298095703125
-128.463851928711
-92.986083984375
-35.6685066223145
34.5240631103516
124.267555236816
274.285095214844
466.933197021484
643.654418945313
767.063659667969
809.78955078125
769.543273925781
663.777587890625
524.250732421875
359.927673339844
126.747184753418
-158.028656005859
-388.7294921875
-522.629455566406
-613.898864746094
-675.412719726563
-675.03125
-632.305358886719
-567.644287109375
-484.767425537109
-414.860992431641
-360.976745605469
-319.299896240234
-283.822143554688
-240.333251953125
-211.722152709961
-183.301788330078
-138.668472290039
-99.0897827148438
-36.0499877929688
52.7397994995117
110.724967956543
128.273101806641
132.755508422852
125.698104858398
105.956443786621
81.4462738037109
71.9092330932617
84.9749755859375
101.092559814453
117.210144042969
128.940704345703
127.224029541016
119.308296203613
105.479598999023
90.8879318237305
76.296272277832
62.4675712585449
61.323127746582
68.2851638793945
70.3833084106445
71.6231231689453
84.2120132446289
96.5147857666016
92.6999740600586
81.2555313110352
74.7703475952148
77.8221969604492
77.345344543457
70.6694183349609
69.2388687133789
78.7759017944336
92.2231216430664
92.2231216430664
87.7407150268555
82.9721984863281
68.3805313110352
59.6064605712891
61.99072265625
62.8490524291992
60.1786842346191
61.99072265625
73.5305328369141
78.4897918701172
71.5277557373047
68.3805313110352
69.9064559936523
76.3916397094727
84.9749755859375
88.1221923828125
84.9749755859375
73.6259002685547
58.9388694763184
43.7749862670898
35.5731353759766
39.0064697265625
31.3768424987793
19.360179901123
22.0305480957031
18.2157344818115
11.5398111343384
11.8259220123291
-1.71666610240936
-15.5453653335571
-13.0657367706299
-16.9759197235107
-21.0768451690674
-8.29721927642822
-1.9074068069458
-11.9212923049927
-20.5999927520752
-22.0305480957031
-21.839807510376
-23.9379558563232
-23.3657341003418
-14.3055505752563
-6.29444265365601
-7.53425693511963
-9.63240432739258
-8.96481227874756
-7.82036781311035
-11.2537002563477
-20.2185115814209
-23.9379558563232
-19.2648086547852
-11.5398111343384
-10.5861072540283
-16.5944385528564
-19.8370304107666
-19.4555492401123
-24.0333251953125
-35.382396697998
-37.5759124755859
-33.8564720153809
-37.099063873291
-37.5759124755859
-33.3796195983887
-28.7064723968506
-25.3685111999512
-23.1749935150146
-19.1694374084473
-23.1749935150146
-28.6111011505127
-30.1370277404785
-39.3879508972168
-47.3990592956543
-42.1536903381348
-32.1398048400879
-28.7064723968506
-33.2842483520508
-38.6249885559082
-44.251838684082
-56.3638725280762
-68.4759063720703
-66.4731292724609
-56.8407211303711
-52.5490570068359
-51.5953521728516
-49.8786888122559
-48.734245300293
-53.5981292724609
-63.4212760925293
-73.4351654052734
-77.4407196044922
-67.8083114624023
-54.170352935791
-48.4481315612793
-47.8759117126465
-50.4509086608887
-56.8407211303711
-62.1814613342285
-64.4703521728516
-65.137939453125
-66.7592391967773
-73.8166427612305
-78.394416809082
-75.4379425048828
-68.4759063720703
-59.0342407226563
-50.4509086608887
-46.6360969543457
-45.9685020446777
-43.2027626037598
-40.7231369018555
-35.382396697998
-28.6111011505127
-26.9898052215576
-20.7907333374023
-11.0629596710205
-3.91018390655518
3.8148136138916
3.147221326828
3.8148136138916
15.4499950408936
22.125919342041
24.9870281219482
23.1749935150146
15.4499950408936
18.3111057281494
24.9870281219482
23.2703628540039
23.4611034393311
26.9898052215576
26.0361022949219
24.891658782959
26.3222141265869
27.4666576385498
30.1370277404785
37.4805450439453
40.7231369018555
31.1861019134521
24.891658782959
30.3277683258057
33.9518394470215
34.7148017883301
34.7148017883301
26.5129547119141
21.2675857543945
29.5648059844971
36.0499877929688
37.6712837219238
44.8240585327148
52.6444282531738
49.783317565918
41.1999855041504
42.8212814331055
46.6360969543457
38.4342460632324
27.0851764678955
25.177770614624
32.7120246887207
38.3388748168945
44.5379486083984
52.8351669311523
46.7314682006836
39.1018409729004
47.1129493713379
50.1647987365723
47.017578125
51.7860946655273
50.832389831543
43.679615020752
37.6712837219238
30.3277683258057
23.9379558563232
16.4990692138672
14.0194396972656
10.6814785003662
-0.190740674734116
0.47685170173645
10.6814785003662
13.256477355957
9.06018257141113
2.00277709960938
0.190740674734116
7.6296272277832
16.2129573822021
16.022216796875
9.9185152053833
3.147221326828
-2.00277709960938
-4.57777643203735
-5.43610954284668
-1.9074068069458
-1.43055510520935
-6.1037015914917
-3.05185079574585
-2.76573991775513
-6.48518323898315
-2.47962880134583
-1.43055510520935
-8.58333015441895
-12.1120328903198
-1.43055510520935
5.34073925018311
-1.43055510520935
-1.14444410800934
7.0574049949646
9.72777462005615
10.0138854980469
8.67870044708252
4.29166507720947
1.71666610240936
-0.572222054004669
0.667592406272888
6.29444265365601
8.20184898376465
13.6379585266113
15.8314762115479
4.95925760269165
3.62407302856445
12.3981437683105
11.2537002563477
6.00833129882813
5.34073925018311
6.19907188415527
4.1962947845459
-2.95648050308228
-12.0166625976563
-11.4444408416748
-0.572222054004669
5.62685012817383
2.00277709960938
0.190740674734116
3.71944332122803
1.04907369613647
-5.1499981880188
0
12.3981437683105
14.3055505752563
7.34351634979248
-1.04907369613647
-8.67870044708252
-7.34351634979248
-0.762962698936462
-0.762962698936462
-1.14444410800934
1.9074068069458
2.67036962509155
1.33518481254578
1.52592539787292
1.9074068069458
-4.29166507720947
-17.6435127258301
-20.5046234130859
-10.4907369613647
-1.52592539787292
-2.47962880134583
-6.19907188415527
1.33518481254578
6.00833129882813
0.381481349468231
0.0953703373670578
3.62407302856445
3.91018390655518
0.286111027002335
-1.62129580974579
-0.9537034034729
-2.95648050308228
-9.72777462005615
-16.5944385528564
-14.687032699585
-9.72777462005615
-9.44166374206543
-4.00555419921875
11.7305517196655
27.4666576385498
34.810173034668
35.0009155273438
32.5212860107422
27.7527694702148
18.1203651428223
9.82314491271973
7.6296272277832
0.381481349468231
-6.86666440963745
-4.00555419921875
-1.43055510520935
-6.00833129882813
-7.82036781311035
1.43055510520935
6.96203470230103
0.190740674734116
-12.1120328903198
-27.1805477142334
-35.9546165466309
-45.1101722717285
-57.4129447937012
-54.6472053527832
-42.630542755127
-36.1453590393066
-22.4120292663574
-6.86666440963745
-2.28888821601868
3.91018390655518
5.05462789535522
-2.95648050308228
-5.43610954284668
-13.7333288192749
-23.5564746856689
-22.9842510223389
-29.5648059844971
-35.2870254516602
-32.4259147644043
-30.70924949646
-25.2731399536133
-25.3685111999512
-27.1805477142334
-18.4064750671387
-9.9185152053833
-4.38703584671021
-7.15277528762817
-16.9759197235107
-18.5018463134766
-13.0657367706299
-10.6814785003662
-5.43610954284668
-0.286111027002335
-5.53147983551025
-15.0685138702393
-20.8861045837402
-20.1231422424316
-23.0796222686768
-35.4777679443359
-39.197208404541
-29.5648059844971
-31.1861019134521
-48.4481315612793
-77.2499771118164
-108.817558288574
-114.062927246094
-92.5092315673828
-61.323127746582
-6.48518323898315
72.4814605712891
177.579574584961
335.894348144531
510.994293212891
642.891479492188
721.476623535156
729.106262207031
670.167358398438
582.235900878906
451.673919677734
257.881408691406
6.48518323898315
-261.696197509766
-457.968383789063
-562.971130371094
-621.909973144531
-644.417358398438
-633.831298828125
-602.931274414063
-543.324829101563
-463.88134765625
-405.610046386719
-375.091552734375
-355.922119140625
-339.995269775391
-305.566558837891
-257.786041259766
-218.684188842773
-174.718460083008
-123.9814453125
-67.4268264770508
16.7851791381836
106.624038696289
152.115692138672
155.167541503906
139.336059570313
111.392555236816
87.3592300415039
81.2555313110352
86.1194152832031
98.8036727905273
122.360145568848
139.049957275391
133.041625976563
114.062927246094
93.6536712646484
78.7759017944336
74.6749725341797
72.1953506469727
66.7592391967773
66.9499816894531
71.7184982299805
80.9694213867188
87.8360824584961
83.3536758422852
73.5305328369141
59.9879455566406
45.2055397033691
32.9981384277344
29.9462871551514
35.5731353759766
39.9601707458496
45.6823921203613
52.7397994995117
56.936092376709
59.5110931396484
63.4212760925293
58.8434982299805
42.4398002624512
32.7120246887207
31.0907306671143
26.1314735412598
23.8425846099854
30.0416564941406
34.4286918640137
36.8129501342773
40.3416519165039
40.5323944091797
48.2573928833008
59.2249794006348
58.7481307983398
57.7944259643555
60.7509078979492
56.7453536987305
49.0203552246094
50.1647987365723
53.9796104431152
51.2138710021973
46.6360969543457
39.4833221435547
34.1425819396973
37.1944313049316
37.4805450439453
30.8046188354492
25.2731399536133
23.7472152709961
25.0823993682861
25.4638805389404
24.7962875366211
25.4638805389404
22.2212886810303
20.1231422424316
20.2185115814209
15.2592544555664
13.9240694046021
13.3518476486206
3.33796191215515
-0.858333051204681
8.86944198608398
17.6435127258301
17.0712909698486
8.77407169342041
1.23981440067291
-0.47685170173645
-5.62685012817383
-10.4907369613647
-15.35462474823
-22.4120292663574
-18.787956237793
-11.4444408416748
-10.7768487930298
-17.1666603088379
-34.2379531860352
-45.5870208740234
-38.9110984802246
-35.2870254516602
-32.2351760864258
-20.3138828277588
-18.1203651428223
-23.1749935150146
-26.5129547119141
-32.7120246887207
-36.2407302856445
-35.9546165466309
-34.6194343566895
-30.995361328125
-27.7527694702148
-28.4203605651855
-32.5212860107422
-32.9027671813965
-29.3740653991699
-32.04443359375
-42.7259140014648
-52.2629470825195
-58.2712783813477
-66.7592391967773
-68.5712738037109
-58.0805358886719
-49.1157264709473
-48.734245300293
-47.3990592956543
-46.0638732910156
-56.4592399597168
-68.7620162963867
-72.7675704956055
-74.7703475952148
-72.4814605712891
-66.0916442871094
-63.1351661682129
-56.7453536987305
-49.4972076416016
-56.2685012817383
-61.1323890686035
-55.219425201416
-51.7860946655273
-48.734245300293
-48.066650390625
-45.1101722717285
-31.6629524230957
-25.6546211242676
-29.5648059844971
-24.1286964416504
-11.9212923049927
-9.15555286407471
-16.5944385528564
-17.9296245574951
-3.33796191215515
9.72777462005615
12.8749961853027
18.5972156524658
22.9842510223389
19.6462898254395
23.3657341003418
28.6111011505127
18.0249938964844
7.6296272277832
4.1962947845459
-3.05185079574585
-4.1962947845459
-3.33796191215515
-3.05185079574585
7.15277528762817
14.4962921142578
15.4499950408936
15.4499950408936
16.022216796875
16.8805503845215
14.2101802825928
23.1749935150146
36.7175827026367
36.0499877929688
35.1916542053223
39.7694320678711
39.864803314209
31.9490642547607
26.7990646362305
30.3277683258057
27.943510055542
23.7472152709961
26.3222141265869
25.3685111999512
20.2185115814209
19.8370304107666
22.4120292663574
20.3138828277588
14.4009208679199
16.022216796875
22.6981410980225
23.6518440246582
22.0305480957031
22.2212886810303
30.2323970794678
43.3935050964355
43.2981338500977
33.4749908447266
33.1888771057129
39.7694320678711
43.4888763427734
39.2925796508789
28.8018417358398
26.9898052215576
29.4694347381592
23.7472152709961
20.8861045837402
19.6462898254395
9.9185152053833
5.34073925018311
11.0629596710205
12.9703664779663
13.8286991119385
21.0768451690674
24.4148063659668
17.738883972168
9.34629344940186
10.0138854980469
17.357400894165
24.3194370269775
32.9981384277344
33.9518394470215
25.3685111999512
25.4638805389404
28.3249912261963
18.5972156524658
11.8259220123291
19.360179901123
23.7472152709961
22.0305480957031
23.1749935150146
22.2212886810303
16.022216796875
8.3925895690918
5.05462789535522
4.00555419921875
6.6759238243103
12.2074031829834
8.0111083984375
3.71944332122803
9.06018257141113
5.7222204208374
-6.77129411697388
-11.3490705490112
-12.588885307312
-20.3138828277588
-21.839807510376
-13.8286991119385
-8.10647869110107
-7.34351634979248
-8.86944198608398
-5.81759071350098
-2.67036962509155
-8.58333015441895
-14.7824029922485
-12.2074031829834
-4.95925760269165
-4.48240613937378
-16.30832862854
-21.6490669250488
-15.9268465042114
-16.4990692138672
-19.5509204864502
-18.5972156524658
-19.6462898254395
-24.9870281219482
-22.4120292663574
-13.0657367706299
-13.9240694046021
-10.0138854980469
2.1935179233551
4.7685170173645
5.34073925018311
6.6759238243103
3.5287024974823
-4.29166507720947
-7.34351634979248
-1.04907369613647
-4.1962947845459
-9.34629344940186
-4.29166507720947
-1.43055510520935
0
0.9537034034729
-2.28888821601868
-6.86666440963745
-9.25092315673828
-10.0138854980469
-11.0629596710205
-10.0138854980469
-13.7333288192749
-22.7935104370117
-24.9870281219482
-22.0305480957031
-19.074068069458
-21.839807510376
-28.9925842285156
-25.8453617095947
-22.7935104370117
-27.8481388092041
-24.6055469512939
-16.4990692138672
-16.9759197235107
-20.1231422424316
-17.9296245574951
-11.4444408416748
-6.96203470230103
-2.5749990940094
10.0138854980469
24.4148063659668
31.2814712524414
34.5240631103516
33.4749908447266
27.0851764678955
20.409252166748
10.2999963760376
-2.09814739227295
-9.63240432739258
-10.6814785003662
-11.8259220123291
-18.3111057281494
-16.4990692138672
5.62685012817383
25.0823993682861
31.3768424987793
37.9573936462402
37.5759124755859
28.5157318115234
29.6601753234863
29.6601753234863
21.0768451690674
21.839807510376
18.787956237793
1.9074068069458
-10.204626083374
-16.4036979675293
-22.125919342041
-23.8425846099854
-24.2240657806396
-23.0796222686768
-26.8944358825684
-46.3499870300293
-56.936092376709
-46.3499870300293
-49.783317565918
-68.1897964477539
-70.7647933959961
-59.701831817627
-54.4564628601074
-54.3610954284668
-48.2573928833008
-41.7722091674805
-37.1944313049316
-32.9027671813965
-33.9518394470215
-29.6601753234863
-22.5074005126953
-20.1231422424316
-14.5916624069214
-13.3518476486206
-19.9324016571045
-20.0277709960938
-15.35462474823
-13.0657367706299
-10.4907369613647
-6.6759238243103
-1.04907369613647
1.52592539787292
-3.147221326828
-1.62129580974579
6.00833129882813
8.3925895690918
9.72777462005615
12.0166625976563
11.0629596710205
3.8148136138916
-0.9537034034729
1.52592539787292
6.1037015914917
9.44166374206543
4.10092449188232
-6.00833129882813
-16.2129573822021
-29.9462871551514
-40.0555419921875
-56.8407211303711
-87.7407150268555
-107.577743530273
-111.487930297852
-96.6101531982422
-49.6879463195801
3.147221326828
73.8166427612305
209.910110473633
388.634124755859
572.8896484375
725.768310546875
797.105285644531
783.371948242188
697.824768066406
560.586853027344
399.410980224609
182.920318603516
-105.574966430664
-371.372100830078
-538.556335449219
-643.27294921875
-721.571960449219
-750.18310546875
-712.416442871094
-635.261840820313
-550.477600097656
-464.262817382813
-372.230438232422
-276.383239746094
-212.389739990234
-188.547164916992
-152.401809692383
-113.776817321777
-91.269416809082
-25.7499923706055
73.6259002685547
133.899963378906
154.404586791992
160.794387817383
146.774948120117
123.790702819824
106.624038696289
91.269416809082
79.729606628418
81.4462738037109
93.9397811889648
106.910148620605
121.597183227539
125.411994934082
117.114776611328
117.973114013672
113.395332336426
95.9425582885742
85.2610855102539
81.5416412353516
88.3129348754883
97.7546005249023
98.3268203735352
107.673110961914
114.444404602051
101.855522155762
86.9777526855469
76.6777496337891
66.5684967041016
53.5027618408203
46.7314682006836
52.8351669311523
59.3203506469727
60.274055480957
56.5546112060547
54.7425765991211
56.0777587890625
43.679615020752
22.2212886810303
9.15555286407471
5.62685012817383
6.38981294631958
7.0574049949646
10.6814785003662
13.7333288192749
11.1583299636841
10.2999963760376
11.0629596710205
8.67870044708252
6.29444265365601
4.57777643203735
0.572222054004669
-0.286111027002335
4.10092449188232
11.9212923049927
17.6435127258301
17.6435127258301
20.7907333374023
19.4555492401123
7.0574049949646
2.8611102104187
4.67314672470093
-3.62407302856445
-11.9212923049927
-8.29721927642822
-3.43333220481873
-0.762962698936462
12.3981437683105
24.7009181976318
22.125919342041
17.738883972168
14.8777732849121
10.204626083374
7.24814605712891
4.48240613937378
3.24259161949158
8.29721927642822
17.6435127258301
26.5129547119141
32.2351760864258
27.8481388092041
15.6407356262207
4.86388731002808
1.14444410800934
1.33518481254578
2.95648050308228
5.24536848068237
2.95648050308228
3.5287024974823
8.29721927642822
12.6842555999756
12.302773475647
2.28888821601868
-3.24259161949158
-4.1962947845459
-7.91573810577393
-7.6296272277832
-9.44166374206543
-12.0166625976563
-7.82036781311035
-6.86666440963745
-16.2129573822021
-28.1342506408691
-35.0962867736816
-43.5842437744141
-51.3092422485352
-49.3064651489258
-49.4972076416016
-46.5407257080078
-33.2842483520508
-34.810173034668
-52.453685760498
-61.7046089172363
-69.9064559936523
-83.2583084106445
-83.1629333496094
-72.7675704956055
-74.0073852539063
-79.5388641357422
-76.3916397094727
-72.5768280029297
-68.1897964477539
-67.4268264770508
-76.2009048461914
-80.8740463256836
-85.7379379272461
-92.8907089233398
-95.751823425293
-93.367561340332
-78.8712692260742
-65.7101669311523
-65.3286819458008
-65.805534362793
-63.039794921875
-63.8027572631836
-69.1434936523438
-65.4240493774414
-58.2712783813477
-61.6092376708984
-63.1351661682129
-59.2249794006348
-57.7944259643555
-58.2712783813477
-58.0805358886719
-50.355541229248
-37.8620262145996
-32.9027671813965
-25.6546211242676
-12.0166625976563
-8.10647869110107
-1.04907369613647
13.8286991119385
17.4527721405029
14.9731435775757
9.44166374206543
1.81203651428223
6.48518323898315
5.7222204208374
-4.7685170173645
-1.04907369613647
6.1037015914917
8.77407169342041
16.6898097991943
18.787956237793
8.0111083984375
3.8148136138916
8.20184898376465
10.204626083374
15.6407356262207
20.5046234130859
19.074068069458
27.3712882995605
42.8212814331055
49.0203552246094
46.9222068786621
41.4860992431641
33.9518394470215
27.5620288848877
21.4583263397217
18.3111057281494
16.6898097991943
14.3055505752563
18.8833274841309
22.2212886810303
19.7416610717773
28.6111011505127
39.2925796508789
33.9518394470215
27.943510055542
25.4638805389404
24.1286964416504
26.1314735412598
20.3138828277588
12.7796258926392
19.360179901123
33.1888771057129
39.197208404541
38.6249885559082
42.3444290161133
49.783317565918
49.5925750732422
42.4398002624512
39.7694320678711
43.679615020752
51.404613494873
51.3092422485352
40.0555419921875
40.5323944091797
49.9740562438965
46.1592445373535
41.2953567504883
40.913875579834
36.8129501342773
44.6333198547363
56.4592399597168
55.887020111084
53.5981292724609
54.0749816894531
51.6907234191895
46.7314682006836
41.8675804138184
36.431468963623
36.8129501342773
49.3064651489258
53.121280670166
40.6277656555176
35.0962867736816
32.04443359375
22.5074005126953
28.7064723968506
40.1509132385254
34.4286918640137
28.4203605651855
27.2759170532227
18.9786968231201
12.8749961853027
16.2129573822021
23.0796222686768
31.9490642547607
34.810173034668
29.9462871551514
30.0416564941406
31.8536930084229
28.7064723968506
26.8944358825684
22.125919342041
8.67870044708252
1.52592539787292
5.91296100616455
5.62685012817383
-3.43333220481873
-8.0111083984375
-7.34351634979248
-7.91573810577393
-7.72499752044678
-9.537034034729
-3.24259161949158
10.5861072540283
9.63240432739258
0.190740674734116
-3.24259161949158
-8.10647869110107
-12.8749961853027
-14.2101802825928
-16.4990692138672
-19.360179901123
-17.6435127258301
-12.2074031829834
-9.537034034729
-10.0138854980469
-9.63240432739258
-13.7333288192749
-13.0657367706299
-7.15277528762817
-12.8749961853027
-14.9731435775757
-6.77129411697388
-7.24814605712891
-11.1583299636841
-11.1583299636841
-11.7305517196655
-13.9240694046021
-20.409252166748
-31.2814712524414
-41.6768379211426
-38.4342460632324
-35.4777679443359
-49.4018363952637
-48.734245300293
-33.9518394470215
-31.9490642547607
-35.5731353759766
-42.2490615844727
-53.2166481018066
-56.5546112060547
-55.1240577697754
-52.2629470825195
-47.1129493713379
-49.4972076416016
-53.9796104431152
-47.8759117126465
-45.3962821960449
-49.1157264709473
-46.2546157836914
-36.5268402099609
-24.1286964416504
-17.0712909698486
-16.4036979675293
-15.5453653335571
-12.9703664779663
-8.96481227874756
-8.48795986175537
-6.58055353164673
0
-3.91018390655518
-9.25092315673828
-2.00277709960938
3.5287024974823
6.96203470230103
9.72777462005615
10.5861072540283
21.6490669250488
27.7527694702148
23.2703628540039
26.7036952972412
31.3768424987793
28.1342506408691
20.2185115814209
20.8861045837402
34.9055442810059
39.1018409729004
33.9518394470215
28.1342506408691
14.0194396972656
7.43888664245605
3.91018390655518
-8.58333015441895
-11.8259220123291
-8.10647869110107
-3.8148136138916
1.62129580974579
6.1037015914917
15.1638841629028
32.8073959350586
53.7888717651367
54.4564628601074
41.1999855041504
41.8675804138184
37.7666549682617
22.6981410980225
18.5972156524658
12.6842555999756
-0.0953703373670578
-1.04907369613647
0
-7.82036781311035
-10.4907369613647
-8.29721927642822
-10.1092557907104
-13.256477355957
-18.5972156524658
-28.1342506408691
-41.6768379211426
-51.1185035705566
-54.8379440307617
-54.4564628601074
-47.8759117126465
-47.7805404663086
-49.1157264709473
-44.251838684082
-39.9601707458496
-35.6685066223145
-39.197208404541
-46.1592445373535
-44.4425773620605
-36.9083213806152
-26.8944358825684
-22.125919342041
-24.891658782959
-23.6518440246582
-15.0685138702393
-8.86944198608398
-9.72777462005615
-9.44166374206543
-8.67870044708252
-13.256477355957
-14.8777732849121
-11.8259220123291
-8.3925895690918
0.0953703373670578
4.7685170173645
3.147221326828
4.95925760269165
0.667592406272888
-9.06018257141113
-8.86944198608398
-6.19907188415527
-4.67314672470093
-9.25092315673828
-28.5157318115234
-42.7259140014648
-42.630542755127
-40.0555419921875
-41.0092468261719
-51.3092422485352
-76.9638671875
-108.722190856934
-120.166625976563
-104.335151672363
-66.7592391967773
-15.0685138702393
49.8786888122559
160.508285522461
324.449890136719
511.947998046875
684.186828613281
788.140502929688
800.633972167969
739.596984863281
623.149780273438
466.456329345703
268.181396484375
2.09814739227295
-282.391571044922
-486.197998046875
-611.228515625
-713.9423828125
-777.172912597656
-760.292358398438
-688.764587402344
-598.544250488281
-498.310028076172
-404.274871826172
-312.910095214844
-227.172149658203
-183.301788330078
-163.846237182617
-135.711990356445
-108.626815795898
-58.8434982299805
31.2814712524414
105.193481445313
136.188842773438
149.922180175781
145.916625976563
126.07958984375
106.337928771973
87.6453399658203
69.2388687133789
62.9444236755371
67.903678894043
77.345344543457
90.5064544677734
102.904594421387
113.776817321777
110.534225463867
90.9833068847656
74.6749725341797
66.7592391967773
66.854606628418
72.8629379272461
76.2009048461914
74.8657150268555
74.4842376708984
81.7323837280273
87.3592300415039
78.8712692260742
66.9499816894531
60.6555366516113
60.5601654052734
65.3286819458008
61.7046089172363
54.5518341064453
53.6935005187988
52.8351669311523
51.7860946655273
43.2027626037598
36.9083213806152
39.197208404541
30.3277683258057
21.2675857543945
21.839807510376
21.7444381713867
26.0361022949219
35.2870254516602
45.5870208740234
47.6851692199707
40.5323944091797
42.4398002624512
46.5407257080078
42.2490615844727
43.8703575134277
41.962947845459
28.9925842285156
26.226842880249
37.0036926269531
49.3064651489258
57.5083160400391
58.1759071350098
52.3583183288574
45.2055397033691
36.9083213806152
25.2731399536133
13.5425882339478
6.77129411697388
3.43333220481873
3.05185079574585
8.67870044708252
15.9268465042114
12.3981437683105
0.47685170173645
-4.57777643203735
-1.23981440067291
-5.24536848068237
-13.8286991119385
-11.9212923049927
-10.5861072540283
-8.0111083984375
4.1962947845459
10.8722190856934
6.77129411697388
1.71666610240936
-3.43333220481873
-11.1583299636841
-14.4009208679199
-7.6296272277832
-2.95648050308228
-5.62685012817383
-0.858333051204681
6.96203470230103
6.77129411697388
-3.147221326828
-19.360179901123
-29.4694347381592
-31.9490642547607
-31.7583236694336
-32.2351760864258
-31.3768424987793
-24.3194370269775
-22.3166599273682
-24.5101776123047
-20.1231422424316
-18.4064750671387
-24.5101776123047
-33.0935096740723
-39.864803314209
-39.6740608215332
-34.5240631103516
-31.7583236694336
-33.1888771057129
-39.0064697265625
-45.8731346130371
-55.6009063720703
-60.9416465759277
-55.6962776184082
-62.9444236755371
-75.9147872924805
-68.3805313110352
-58.4620170593262
-60.274055480957
-56.8407211303711
-51.5953521728516
-57.3175735473633
-60.8462753295898
-59.0342407226563
-69.9064559936523
-80.111083984375
-79.6342315673828
-78.7759017944336
-77.7268295288086
-80.111083984375
-81.4462738037109
-74.0073852539063
-71.5277557373047
-77.0592346191406
-76.9638671875
-68.8573837280273
-58.2712783813477
-50.7370223999023
-47.3036880493164
-45.7777633666992
-36.3360977172852
-21.0768451690674
-16.30832862854
-18.1203651428223
-21.2675857543945
-28.2296199798584
-32.2351760864258
-27.5620288848877
-20.2185115814209
-20.0277709960938
-21.7444381713867
-17.357400894165
-6.77129411697388
3.147221326828
3.05185079574585
-4.48240613937378
-9.537034034729
-10.3953666687012
-6.86666440963745
5.53147983551025
9.06018257141113
7.15277528762817
18.6925868988037
23.2703628540039
21.5536975860596
21.3629570007324
16.8805503845215
23.5564746856689
35.9546165466309
36.6222114562988
35.1916542053223
38.2435073852539
38.6249885559082
39.1018409729004
43.4888763427734
42.9166526794434
32.04443359375
23.7472152709961
26.7036952972412
35.4777679443359
34.2379531860352
23.2703628540039
25.0823993682861
33.4749908447266
36.2407302856445
41.962947845459
43.3935050964355
43.2981338500977
46.4453544616699
48.734245300293
51.5953521728516
57.6990547180176
65.7101669311523
67.4268264770508
59.9879455566406
57.6990547180176
65.0425720214844
65.9009017944336
59.0342407226563
59.2249794006348
63.1351661682129
62.9444236755371
61.4184989929199
57.5083160400391
54.3610954284668
55.0286865234375
55.219425201416
54.0749816894531
48.2573928833008
36.7175827026367
28.3249912261963
17.5481433868408
4.29166507720947
7.6296272277832
17.357400894165
23.8425846099854
33.0935096740723
32.9981384277344
30.0416564941406
34.2379531860352
31.5675830841064
24.6055469512939
23.2703628540039
26.6083240509033
26.0361022949219
21.0768451690674
23.2703628540039
21.839807510376
13.7333288192749
15.8314762115479
23.1749935150146
26.6083240509033
23.2703628540039
16.6898097991943
13.5425882339478
13.8286991119385
10.9675893783569
5.7222204208374
5.34073925018311
7.15277528762817
6.38981294631958
4.00555419921875
3.43333220481873
3.24259161949158
1.04907369613647
-1.62129580974579
-6.1037015914917
-8.67870044708252
-0.762962698936462
2.00277709960938
-5.7222204208374
-5.43610954284668
-6.48518323898315
-10.2999963760376
-5.62685012817383
-8.86944198608398
-13.4472179412842
-14.8777732849121
-20.0277709960938
-12.7796258926392
-6.86666440963745
-11.7305517196655
-10.7768487930298
-11.1583299636841
-12.0166625976563
-10.2999963760376
-9.537034034729
-4.95925760269165
-3.71944332122803
-13.1611070632935
-23.7472152709961
-25.5592517852783
-26.1314735412598
-33.9518394470215
-37.8620262145996
-32.9981384277344
-25.6546211242676
-13.7333288192749
-12.9703664779663
-24.9870281219482
-27.7527694702148
-20.7907333374023
-15.0685138702393
-14.4009208679199
-8.67870044708252
-0.286111027002335
-1.14444410800934
-4.7685170173645
-2.47962880134583
-1.52592539787292
-5.34073925018311
-10.8722190856934
-22.9842510223389
-29.278694152832
-25.3685111999512
-32.04443359375
-39.0064697265625
-34.810173034668
-34.0472106933594
-29.278694152832
-15.9268465042114
-12.9703664779663
-14.5916624069214
-14.0194396972656
-17.5481433868408
-21.839807510376
-23.2703628540039
-18.0249938964844
-10.9675893783569
-7.72499752044678
-6.77129411697388
-12.9703664779663
-14.687032699585
-5.81759071350098
-1.71666610240936
-5.34073925018311
-7.24814605712891
-3.5287024974823
-7.24814605712891
-12.8749961853027
-10.0138854980469
-9.25092315673828
-5.91296100616455
-0.858333051204681
-5.1499981880188
-8.3925895690918
-8.58333015441895
-7.91573810577393
-2.47962880134583
0.572222054004669
0.286111027002335
-2.67036962509155
-11.1583299636841
-19.1694374084473
-18.3111057281494
-10.8722190856934
-8.58333015441895
-10.6814785003662
-11.4444408416748
-11.7305517196655
-18.3111057281494
-26.7990646362305
-24.5101776123047
-15.8314762115479
-14.2101802825928
-15.5453653335571
-10.5861072540283
-8.0111083984375
-8.3925895690918
-2.76573991775513
3.71944332122803
11.4444408416748
16.7851791381836
9.9185152053833
1.9074068069458
-0.762962698936462
-0.667592406272888
2.38425850868225
4.1962947845459
13.0657367706299
17.9296245574951
10.4907369613647
15.2592544555664
25.3685111999512
29.5648059844971
41.0092468261719
51.1185035705566
48.734245300293
40.913875579834
32.9027671813965
27.657398223877
21.1722145080566
11.8259220123291
9.537034034729
11.3490705490112
8.58333015441895
4.86388731002808
4.57777643203735
5.81759071350098
5.05462789535522
4.00555419921875
-5.24536848068237
-25.5592517852783
-34.9055442810059
-32.9981384277344
-37.1944313049316
-44.8240585327148
-48.5435028076172
-48.5435028076172
-53.7888717651367
-57.3175735473633
-51.0231323242188
-48.3527641296387
-45.2055397033691
-36.1453590393066
-34.1425819396973
-40.5323944091797
-44.4425773620605
-43.5842437744141
-39.1018409729004
-32.6166572570801
-26.3222141265869
-16.30832862854
-8.48795986175537
-7.91573810577393
-2.47962880134583
2.8611102104187
-3.147221326828
-10.3953666687012
-4.29166507720947
10.2999963760376
14.0194396972656
13.0657367706299
17.9296245574951
16.7851791381836
10.7768487930298
1.81203651428223
-5.24536848068237
-2.09814739227295
1.04907369613647
-2.09814739227295
-10.1092557907104
-23.8425846099854
-34.3333206176758
-37.3851737976074
-50.5462799072266
-82.7814559936523
-116.542556762695
-129.131439208984
-112.918479919434
-65.3286819458008
-2.1935179233551
59.3203506469727
157.361053466797
314.817504882813
492.778533935547
660.725708007813
776.409912109375
796.246948242188
737.59423828125
626.487731933594
475.516510009766
292.88232421875
43.1073951721191
-247.390655517578
-456.537811279297
-572.8896484375
-669.785888671875
-733.11181640625
-720.713684082031
-654.145141601563
-577.658142089844
-492.873901367188
-397.408203125
-303.277679443359
-214.583267211914
-161.748092651367
-138.096252441406
-110.057373046875
-92.8907089233398
-62.1814613342285
26.6083240509033
119.212921142578
153.83235168457
156.407363891602
155.930511474609
144.962921142578
123.313850402832
96.9916381835938
76.3916397094727
65.9962768554688
61.4184989929199
70.0971984863281
87.7407150268555
103.953666687012
111.583297729492
97.0870056152344
80.4925689697266
75.3425674438477
67.3314590454102
58.652759552002
54.5518341064453
60.274055480957
76.5823822021484
83.1629333496094
78.2990493774414
78.1083068847656
77.6314544677734
65.5194244384766
59.0342407226563
61.99072265625
52.3583183288574
43.7749862670898
46.5407257080078
45.5870208740234
45.300910949707
52.1675758361816
56.0777587890625
53.7888717651367
48.734245300293
39.0064697265625
32.2351760864258
30.3277683258057
27.657398223877
26.7990646362305
24.0333251953125
23.1749935150146
26.0361022949219
21.4583263397217
11.8259220123291
8.58333015441895
12.8749961853027
12.4935140609741
6.00833129882813
4.29166507720947
5.62685012817383
10.2999963760376
20.6953639984131
22.0305480957031
12.588885307312
10.5861072540283
11.4444408416748
2.28888821601868
-4.1962947845459
-5.24536848068237
-9.15555286407471
-12.588885307312
-7.6296272277832
7.24814605712891
16.4036979675293
20.8861045837402
26.3222141265869
17.4527721405029
2.5749990940094
-6.19907188415527
-15.2592544555664
-16.4990692138672
-12.8749961853027
-19.4555492401123
-19.9324016571045
-12.9703664779663
-13.5425882339478
-11.5398111343384
-8.20184898376465
-5.05462789535522
-0.0953703373670578
-9.63240432739258
-19.5509204864502
-11.2537002563477
1.71666610240936
10.3953666687012
9.15555286407471
-1.52592539787292
-6.38981294631958
-7.34351634979248
-14.9731435775757
-21.839807510376
-21.7444381713867
-17.738883972168
-19.360179901123
-19.360179901123
-8.67870044708252
-3.147221326828
-7.24814605712891
-16.022216796875
-35.8592491149902
-54.7425765991211
-55.5055389404297
-48.2573928833008
-44.251838684082
-43.1073951721191
-41.7722091674805
-42.0583190917969
-53.5027618408203
-65.137939453125
-69.6203460693359
-76.1055297851563
-74.6749725341797
-67.6175689697266
-71.0509033203125
-75.247200012207
-64.756462097168
-56.6499824523926
-65.4240493774414
-65.9009017944336
-62.2768325805664
-71.2416458129883
-70.3833084106445
-65.2333145141602
-66.854606628418
-58.7481307983398
-50.5462799072266
-46.5407257080078
-40.3416519165039
-47.9712791442871
-58.1759071350098
-52.453685760498
-46.1592445373535
-42.4398002624512
-33.6657295227051
-22.6981410980225
-18.0249938964844
-21.7444381713867
-20.5046234130859
-14.0194396972656
-14.4962921142578
-12.302773475647
-3.71944332122803
0.286111027002335
5.05462789535522
5.34073925018311
2.47962880134583
7.72499752044678
11.3490705490112
14.0194396972656
19.8370304107666
19.8370304107666
10.8722190856934
-2.28888821601868
-2.28888821601868
15.9268465042114
28.2296199798584
26.0361022949219
25.6546211242676
25.0823993682861
19.2648086547852
17.5481433868408
18.5018463134766
21.1722145080566
23.1749935150146
22.6027698516846
27.5620288848877
29.6601753234863
24.3194370269775
26.7990646362305
29.6601753234863
21.7444381713867
23.8425846099854
37.6712837219238
42.2490615844727
43.2027626037598
44.9194297790527
38.9110984802246
32.2351760864258
30.995361328125
32.9027671813965
34.9055442810059
36.0499877929688
40.2462844848633
42.2490615844727
35.382396697998
25.6546211242676
19.9324016571045
18.6925868988037
22.6981410980225
28.7064723968506
28.0388793945313
25.0823993682861
26.226842880249
27.943510055542
30.0416564941406
30.995361328125
24.2240657806396
21.7444381713867
27.7527694702148
32.5212860107422
38.6249885559082
40.2462844848633
37.1944313049316
32.1398048400879
20.5046234130859
13.1611070632935
11.635181427002
9.72777462005615
9.15555286407471
6.77129411697388
7.0574049949646
14.4009208679199
20.409252166748
17.9296245574951
13.3518476486206
13.1611070632935
12.7796258926392
15.4499950408936
20.3138828277588
19.9324016571045
18.5972156524658
17.5481433868408
14.9731435775757
10.5861072540283
6.58055353164673
5.7222204208374
6.58055353164673
5.62685012817383
6.38981294631958
14.4962921142578
18.3111057281494
12.4935140609741
10.7768487930298
14.0194396972656
13.4472179412842
12.1120328903198
17.5481433868408
18.5018463134766
10.7768487930298
10.3953666687012
15.8314762115479
15.0685138702393
10.1092557907104
7.6296272277832
7.15277528762817
-0.667592406272888
-11.4444408416748
-10.6814785003662
-17.8342533111572
-26.4175834655762
-15.2592544555664
-11.4444408416748
-13.5425882339478
-10.9675893783569
-11.8259220123291
-11.5398111343384
-16.2129573822021
-20.8861045837402
-15.6407356262207
-13.8286991119385
-12.302773475647
-4.57777643203735
-7.82036781311035
-15.0685138702393
-9.63240432739258
-5.7222204208374
-11.7305517196655
-12.6842555999756
-6.19907188415527
-11.5398111343384
-22.125919342041
-16.7851791381836
-11.1583299636841
-10.4907369613647
-1.04907369613647
4.57777643203735
-1.9074068069458
-5.62685012817383
-7.72499752044678
-13.6379585266113
-11.2537002563477
-3.05185079574585
-0.190740674734116
-0.381481349468231
0
1.23981440067291
7.82036781311035
14.9731435775757
9.72777462005615
1.71666610240936
2.38425850868225
3.62407302856445
2.8611102104187
-0.381481349468231
-4.29166507720947
-11.3490705490112
-14.1148099899292
-0.381481349468231
7.24814605712891
-1.81203651428223
-13.8286991119385
-14.9731435775757
-1.71666610240936
2.76573991775513
-1.9074068069458
5.91296100616455
8.58333015441895
0.190740674734116
0.0953703373670578
4.57777643203735
10.5861072540283
7.0574049949646
-5.7222204208374
-9.06018257141113
-10.1092557907104
-10.2999963760376
-2.09814739227295
1.62129580974579
0.47685170173645
6.00833129882813
8.67870044708252
0.572222054004669
-2.1935179233551
-1.52592539787292
-6.38981294631958
-7.24814605712891
-6.1037015914917
-11.8259220123291
-17.5481433868408
-18.4064750671387
-19.1694374084473
-18.5018463134766
-18.0249938964844
-19.074068069458
-23.2703628540039
-24.7962875366211
-14.9731435775757
-8.29721927642822
-12.0166625976563
-12.4935140609741
-13.5425882339478
-21.0768451690674
-27.7527694702148
-25.8453617095947
-18.1203651428223
-16.4036979675293
-9.72777462005615
3.5287024974823
3.91018390655518
-5.1499981880188
-11.635181427002
-8.3925895690918
-0.762962698936462
0.190740674734116
5.43610954284668
11.7305517196655
7.15277528762817
5.05462789535522
5.91296100616455
0.762962698936462
-4.57777643203735
-10.5861072540283
-13.5425882339478
-15.8314762115479
-22.8888816833496
-19.7416610717773
-6.6759238243103
-3.91018390655518
-2.47962880134583
10.1092557907104
26.4175834655762
43.7749862670898
53.6935005187988
53.8842430114746
51.4999847412109
43.0120239257813
32.9027671813965
25.8453617095947
19.8370304107666
12.302773475647
8.96481227874756
9.9185152053833
4.38703584671021
4.57777643203735
1.62129580974579
-16.6898097991943
-26.7990646362305
-29.4694347381592
-29.4694347381592
-30.4231376647949
-41.1046180725098
-47.4944305419922
-46.4453544616699
-40.7231369018555
-26.226842880249
-11.3490705490112
-7.53425693511963
-13.0657367706299
-20.0277709960938
-17.738883972168
-12.4935140609741
-16.30832862854
-19.2648086547852
-16.2129573822021
-16.6898097991943
-20.8861045837402
-16.9759197235107
-10.7768487930298
-13.4472179412842
-13.6379585266113
-12.4935140609741
-18.2157344818115
-18.2157344818115
-12.2074031829834
-10.2999963760376
-0.572222054004669
8.77407169342041
1.23981440067291
-5.7222204208374
-5.53147983551025
-6.77129411697388
-7.53425693511963
-12.302773475647
-18.6925868988037
-19.6462898254395
-24.891658782959
-30.2323970794678
-30.6138782501221
-40.3416519165039
-47.8759117126465
-45.7777633666992
-66.4731292724609
-110.343482971191
-135.807357788086
-125.984222412109
-94.5120086669922
-42.630542755127
22.2212886810303
103.667556762695
243.957336425781
430.692443847656
608.176635742188
747.417358398438
803.78125
769.829406738281
681.230346679688
547.711853027344
383.388763427734
166.898101806641
-120.071258544922
-371.848968505859
-517.574829101563
-614.280334472656
-681.61181640625
-695.154418945313
-656.243286132813
-581.759094238281
-499.740570068359
-427.3544921875
-365.936004638672
-313.386932373047
-263.317504882813
-228.888809204102
-205.713821411133
-169.186981201172
-137.047180175781
-108.340705871582
-35.0009155273438
65.4240493774414
120.929588317871
123.695327758789
112.060150146484
96.8962631225586
74.4842376708984
54.2657241821289
43.8703575134277
49.1157264709473
67.8083114624023
84.4981231689453
91.6508941650391
90.6018218994141
89.6481170654297
89.2666397094727
80.4925689697266
73.3397903442383
75.6286773681641
82.0184936523438
82.9721984863281
86.1194152832031
96.9916381835938
100.424964904785
100.615707397461
99.2805252075195
85.2610855102539
65.2333145141602
53.5027618408203
52.3583183288574
52.2629470825195
55.3147964477539
61.6092376708984
61.4184989929199
60.9416465759277
61.7046089172363
52.5490570068359
44.0610961914063
41.0092468261719
34.0472106933594
30.995361328125
34.4286918640137
33.0935096740723
33.5703582763672
39.9601707458496
41.962947845459
42.1536903381348
44.251838684082
38.6249885559082
28.9925842285156
24.0333251953125
17.0712909698486
11.9212923049927
12.7796258926392
14.0194396972656
21.839807510376
34.6194343566895
38.6249885559082
32.9027671813965
24.3194370269775
18.5018463134766
19.1694374084473
19.1694374084473
16.8805503845215
17.738883972168
21.2675857543945
24.1286964416504
31.0907306671143
39.864803314209
34.5240631103516
26.0361022949219
27.657398223877
16.6898097991943
-1.33518481254578
-2.76573991775513
2.28888821601868
4.7685170173645
7.82036781311035
11.7305517196655
10.0138854980469
1.52592539787292
-2.5749990940094
-1.33518481254578
-8.0111083984375
-18.5018463134766
-24.1286964416504
-23.7472152709961
-6.96203470230103
6.86666440963745
3.33796191215515
-4.86388731002808
-7.0574049949646
-5.62685012817383
-21.9351787567139
-36.5268402099609
-27.657398223877
-20.5999927520752
-19.1694374084473
-19.2648086547852
-21.3629570007324
-14.0194396972656
-12.0166625976563
-24.891658782959
-34.5240631103516
-32.5212860107422
-31.8536930084229
-30.70924949646
-28.0388793945313
-31.4722118377686
-30.70924949646
-27.2759170532227
-27.7527694702148
-30.3277683258057
-43.2027626037598
-51.4999847412109
-47.5897979736328
-45.1101722717285
-43.679615020752
-39.0064697265625
-30.5185089111328
-26.9898052215576
-32.9981384277344
-41.6768379211426
-51.3092422485352
-59.6064605712891
-59.6064605712891
-52.0722045898438
-45.9685020446777
-42.630542755127
-39.3879508972168
-39.4833221435547
-36.0499877929688
-35.9546165466309
-44.4425773620605
-39.5786895751953
-27.943510055542
-22.8888816833496
-20.7907333374023
-24.4148063659668
-26.3222141265869
-24.9870281219482
-21.4583263397217
-16.6898097991943
-19.074068069458
-23.3657341003418
-26.6083240509033
-28.6111011505127
-24.7962875366211
-20.1231422424316
-18.787956237793
-15.8314762115479
-16.1175880432129
-18.3111057281494
-12.302773475647
-12.3981437683105
-25.177770614624
-27.1805477142334
-13.8286991119385
-6.6759238243103
-9.44166374206543
-10.6814785003662
-8.96481227874756
-3.5287024974823
0.858333051204681
-0.762962698936462
-4.10092449188232
-5.62685012817383
-4.48240613937378
-7.34351634979248
-5.62685012817383
6.6759238243103
15.2592544555664
21.0768451690674
20.7907333374023
15.35462474823
20.6953639984131
25.6546211242676
18.9786968231201
11.4444408416748
9.44166374206543
18.5018463134766
34.2379531860352
35.6685066223145
27.7527694702148
25.2731399536133
26.0361022949219
21.4583263397217
9.63240432739258
6.96203470230103
14.687032699585
19.1694374084473
23.1749935150146
26.3222141265869
24.5101776123047
27.943510055542
38.8157272338867
43.2981338500977
41.1999855041504
39.3879508972168
34.4286918640137
22.7935104370117
16.4036979675293
16.4990692138672
11.635181427002
12.6842555999756
19.4555492401123
21.5536975860596
20.6953639984131
12.9703664779663
6.38981294631958
8.3925895690918
6.38981294631958
-2.28888821601868
-7.82036781311035
-2.28888821601868
3.62407302856445
-0.858333051204681
-5.05462789535522
-5.43610954284668
-3.62407302856445
-0.762962698936462
-2.09814739227295
-3.5287024974823
-1.14444410800934
7.82036781311035
14.8777732849121
10.204626083374
12.7796258926392
23.3657341003418
19.074068069458
11.0629596710205
6.19907188415527
2.00277709960938
9.25092315673828
12.0166625976563
3.43333220481873
2.67036962509155
6.48518323898315
4.67314672470093
2.38425850868225
2.38425850868225
0.858333051204681
-2.38425850868225
-6.6759238243103
-8.20184898376465
-0.572222054004669
11.8259220123291
15.35462474823
14.9731435775757
17.738883972168
14.0194396972656
8.20184898376465
9.25092315673828
12.2074031829834
16.1175880432129
18.4064750671387
21.2675857543945
26.1314735412598
24.9870281219482
25.7499923706055
24.4148063659668
15.0685138702393
13.6379585266113
18.2157344818115
23.7472152709961
30.8046188354492
27.8481388092041
20.7907333374023
21.6490669250488
27.657398223877
34.1425819396973
38.9110984802246
36.8129501342773
24.2240657806396
19.5509204864502
19.9324016571045
5.91296100616455
-2.1935179233551
5.53147983551025
16.30832862854
20.0277709960938
18.8833274841309
15.35462474823
5.91296100616455
4.38703584671021
11.1583299636841
10.9675893783569
7.34351634979248
6.48518323898315
3.24259161949158
-0.9537034034729
-0.190740674734116
0.47685170173645
-1.23981440067291
-1.23981440067291
-3.33796191215515
-8.48795986175537
-13.3518476486206
-12.6842555999756
-11.0629596710205
-13.6379585266113
-12.9703664779663
-11.3490705490112
-15.4499950408936
-15.8314762115479
-9.63240432739258
-4.86388731002808
2.00277709960938
7.43888664245605
8.77407169342041
10.3953666687012
2.76573991775513
-10.6814785003662
-14.3055505752563
-15.4499950408936
-20.5999927520752
-22.2212886810303
-21.7444381713867
-24.4148063659668
-22.4120292663574
-10.8722190856934
-1.14444410800934
-6.86666440963745
-17.4527721405029
-16.4036979675293
-12.7796258926392
-11.7305517196655
-9.06018257141113
-10.3953666687012
-9.25092315673828
-6.19907188415527
-7.6296272277832
0
12.1120328903198
11.3490705490112
1.62129580974579
-1.62129580974579
3.8148136138916
1.71666610240936
-4.86388731002808
-8.10647869110107
-8.3925895690918
-10.5861072540283
-11.5398111343384
-4.86388731002808
-4.1962947845459
1.62129580974579
27.2759170532227
44.0610961914063
37.9573936462402
31.3768424987793
35.0962867736816
33.3796195983887
19.2648086547852
10.8722190856934
11.635181427002
5.91296100616455
3.5287024974823
6.29444265365601
0.9537034034729
-0.667592406272888
-3.5287024974823
-18.0249938964844
-33.5703582763672
-41.2953567504883
-44.251838684082
-50.9277610778809
-55.5055389404297
-63.1351661682129
-77.1546020507813
-76.7731246948242
-65.4240493774414
-53.7888717651367
-39.9601707458496
-30.5185089111328
-31.5675830841064
-35.0009155273438
-30.8046188354492
-29.9462871551514
-36.9083213806152
-44.1564674377441
-46.9222068786621
-45.6823921203613
-41.1999855041504
-35.382396697998
-34.0472106933594
-30.3277683258057
-27.2759170532227
-26.0361022949219
-22.125919342041
-27.0851764678955
-28.4203605651855
-12.1120328903198
0.858333051204681
-2.95648050308228
-11.3490705490112
-8.3925895690918
-1.04907369613647
-2.47962880134583
-8.10647869110107
-12.1120328903198
-18.2157344818115
-25.2731399536133
-28.0388793945313
-29.7555465698242
-38.6249885559082
-51.404613494873
-59.3203506469727
-75.1518249511719
-111.678665161133
-135.807357788086
-126.270332336426
-101.187927246094
-52.5490570068359
28.4203605651855
129.703659057617
272.377685546875
455.870239257813
621.337768554688
729.392333984375
776.791442871094
758.57568359375
685.045166015625
571.554443359375
410.855438232422
186.639755249023
-82.0184936523438
-318.823059082031
-475.421142578125
-566.59521484375
-609.893310546875
-610.656311035156
-585.955383300781
-552.861877441406
-494.495208740234
-420.583190917969
-369.941558837891
-337.515625
-319.013793945313
-306.901763916016
-263.698974609375
-218.779556274414
-193.792526245117
-150.685134887695
-102.427742004395
-48.734245300293
29.9462871551514
92.8907089233398
110.629592895508
100.711082458496
78.2036819458008
51.5953521728516
42.5351715087891
55.1240577697754
65.9962768554688
77.6314544677734
101.283302307129
117.973114013672
114.730522155762
106.051818847656
98.5175628662109
81.3508987426758
65.5194244384766
60.8462753295898
61.7999801635742
69.1434936523438
79.2527542114258
93.6536712646484
100.806449890137
87.2638626098633
67.7129440307617
58.3666496276855
57.6036834716797
57.5083160400391
65.805534362793
77.1546020507813
74.4842376708984
74.198127746582
86.1194152832031
90.9833068847656
80.4925689697266
67.5222015380859
60.8462753295898
58.8434982299805
61.8953514099121
66.2823867797852
63.7073860168457
54.5518341064453
46.8268356323242
41.0092468261719
32.4259147644043
28.3249912261963
33.9518394470215
36.1453590393066
31.9490642547607
30.70924949646
28.1342506408691
27.0851764678955
30.1370277404785
26.5129547119141
23.3657341003418
25.2731399536133
27.2759170532227
30.3277683258057
30.6138782501221
25.7499923706055
16.7851791381836
12.6842555999756
15.5453653335571
16.9759197235107
18.5018463134766
23.1749935150146
27.0851764678955
30.70924949646
34.4286918640137
27.4666576385498
14.0194396972656
8.77407169342041
8.58333015441895
5.34073925018311
-1.9074068069458
-3.91018390655518
2.28888821601868
8.96481227874756
11.0629596710205
3.33796191215515
-9.63240432739258
-12.588885307312
-6.29444265365601
-9.15555286407471
-11.2537002563477
-2.38425850868225
-2.47962880134583
-3.71944332122803
-2.95648050308228
-11.5398111343384
-19.1694374084473
-23.1749935150146
-25.3685111999512
-19.7416610717773
-11.0629596710205
-13.256477355957
-14.7824029922485
-5.62685012817383
-2.09814739227295
-10.1092557907104
-17.8342533111572
-18.5972156524658
-17.1666603088379
-15.5453653335571
-14.4009208679199
-16.022216796875
-18.0249938964844
-18.6925868988037
-18.0249938964844
-20.8861045837402
-28.1342506408691
-33.6657295227051
-41.4860992431641
-54.7425765991211
-60.8462753295898
-57.6990547180176
-55.5055389404297
-53.4073905944824
-48.2573928833008
-45.9685020446777
-59.3203506469727
-72.9583129882813
-71.1462707519531
-67.7129440307617
-67.3314590454102
-64.5657196044922
-56.5546112060547
-48.1620216369629
-41.0092468261719
-34.9055442810059
-40.2462844848633
-45.3962821960449
-42.1536903381348
-44.9194297790527
-45.1101722717285
-38.6249885559082
-37.1944313049316
-34.810173034668
-34.1425819396973
-37.3851737976074
-35.2870254516602
-39.0064697265625
-44.0610961914063
-32.5212860107422
-22.9842510223389
-26.6083240509033
-24.9870281219482
-16.4036979675293
-10.6814785003662
-9.34629344940186
-6.1037015914917
3.24259161949158
3.71944332122803
-6.6759238243103
-8.29721927642822
-7.0574049949646
-12.1120328903198
-6.19907188415527
4.10092449188232
3.24259161949158
0.667592406272888
6.58055353164673
13.4472179412842
10.4907369613647
6.6759238243103
7.15277528762817
6.58055353164673
13.0657367706299
23.3657341003418
24.9870281219482
23.5564746856689
22.2212886810303
19.2648086547852
23.3657341003418
33.1888771057129
32.5212860107422
29.1833248138428
35.382396697998
38.0527648925781
34.0472106933594
32.8073959350586
30.8046188354492
26.0361022949219
23.4611034393311
19.5509204864502
20.8861045837402
29.9462871551514
27.3712882995605
19.7416610717773
18.8833274841309
20.5999927520752
25.0823993682861
30.2323970794678
28.4203605651855
21.5536975860596
19.8370304107666
17.357400894165
16.9759197235107
23.6518440246582
21.7444381713867
21.7444381713867
34.9055442810059
40.1509132385254
34.3333206176758
25.2731399536133
19.360179901123
27.2759170532227
34.9055442810059
31.7583236694336
28.8972129821777
28.0388793945313
26.5129547119141
25.6546211242676
21.3629570007324
11.0629596710205
6.96203470230103
14.3055505752563
17.738883972168
17.8342533111572
20.5046234130859
20.5999927520752
17.9296245574951
14.8777732849121
13.7333288192749
14.7824029922485
16.30832862854
15.5453653335571
9.06018257141113
7.34351634979248
12.8749961853027
14.8777732849121
16.2129573822021
14.4962921142578
9.63240432739258
11.8259220123291
10.7768487930298
10.3953666687012
13.5425882339478
4.29166507720947
-0.667592406272888
1.04907369613647
0.0953703373670578
5.62685012817383
6.86666440963745
5.34073925018311
7.53425693511963
6.86666440963745
2.09814739227295
-6.6759238243103
-9.72777462005615
-5.34073925018311
-8.20184898376465
-10.4907369613647
0.0953703373670578
10.0138854980469
9.25092315673828
8.10647869110107
5.62685012817383
2.67036962509155
3.8148136138916
1.9074068069458
0.667592406272888
1.81203651428223
0.858333051204681
-0.762962698936462
-2.76573991775513
-7.24814605712891
-13.1611070632935
-14.1148099899292
-14.4009208679199
-17.0712909698486
-18.3111057281494
-19.8370304107666
-17.4527721405029
-12.0166625976563
-4.00555419921875
8.48795986175537
12.1120328903198
8.3925895690918
14.4962921142578
18.3111057281494
2.47962880134583
-10.8722190856934
-8.96481227874756
-6.29444265365601
4.7685170173645
17.1666603088379
10.2999963760376
8.86944198608398
18.4064750671387
12.4935140609741
-0.190740674734116
-0.381481349468231
2.47962880134583
4.10092449188232
7.72499752044678
6.48518323898315
2.38425850868225
0.572222054004669
-5.24536848068237
-16.4990692138672
-25.8453617095947
-27.0851764678955
-25.0823993682861
-23.2703628540039
-17.0712909698486
-18.1203651428223
-24.1286964416504
-17.0712909698486
-12.9703664779663
-15.4499950408936
-11.0629596710205
-12.8749961853027
-23.4611034393311
-27.943510055542
-22.4120292663574
-17.4527721405029
-13.8286991119385
-9.72777462005615
-16.5944385528564
-24.4148063659668
-20.8861045837402
-24.1286964416504
-37.2898025512695
-35.0962867736816
-22.6981410980225
-15.1638841629028
-7.43888664245605
-2.76573991775513
4.95925760269165
15.9268465042114
16.6898097991943
12.1120328903198
10.7768487930298
1.33518481254578
-16.8805503845215
-21.7444381713867
-11.0629596710205
-4.1962947845459
-7.72499752044678
-5.43610954284668
12.302773475647
29.1833248138428
39.5786895751953
44.9194297790527
35.7638778686523
21.6490669250488
18.0249938964844
14.4009208679199
3.43333220481873
-7.82036781311035
-17.2620315551758
-19.2648086547852
-12.1120328903198
-0.0953703373670578
0.858333051204681
-9.82314491271973
-18.9786968231201
-28.3249912261963
-35.0962867736816
-38.6249885559082
-37.7666549682617
-36.0499877929688
-44.6333198547363
-53.6935005187988
-51.9768333435059
-45.2055397033691
-40.0555419921875
-37.4805450439453
-31.7583236694336
-25.9407329559326
-31.9490642547607
-38.5296173095703
-35.5731353759766
-37.1944313049316
-45.4916534423828
-42.4398002624512
-26.7036952972412
-21.2675857543945
-27.3712882995605
-26.6083240509033
-27.943510055542
-31.4722118377686
-19.8370304107666
-4.7685170173645
-5.05462789535522
-2.28888821601868
7.0574049949646
7.43888664245605
15.7361059188843
26.6083240509033
23.3657341003418
18.787956237793
10.3953666687012
5.05462789535522
12.9703664779663
14.7824029922485
3.8148136138916
-4.38703584671021
-9.15555286407471
-25.177770614624
-39.6740608215332
-45.300910949707
-64.0888671875
-95.2749710083008
-119.499038696289
-128.654586791992
-115.016632080078
-69.9064559936523
-6.00833129882813
77.345344543457
209.147155761719
392.258209228516
582.426635742188
721.571960449219
780.415466308594
764.774780273438
698.68310546875
592.249816894531
442.518371582031
226.59992980957
-64.9472045898438
-336.943420410156
-505.844268798828
-608.939636230469
-682.374755859375
-710.318298339844
-684.186828613281
-623.340515136719
-548.856323242188
-465.121154785156
-389.110992431641
-325.403594970703
-257.499908447266
-203.04345703125
-166.325866699219
-137.714767456055
-122.550888061523
-78.012939453125
10.9675893783569
86.6916351318359
125.602737426758
139.431442260742
132.183288574219
113.586074829102
90.5064544677734
69.1434936523438
59.7972030639648
58.5573883056641
62.1814613342285
74.3888626098633
91.5555267333984
103.286079406738
108.531448364258
104.430519104004
88.9805297851563
72.7675704956055
58.5573883056641
51.2138710021973
57.6036834716797
65.9009017944336
74.198127746582
83.0675659179688
80.5879364013672
71.7184982299805
67.3314590454102
57.2222023010254
39.197208404541
27.943510055542
25.2731399536133
27.1805477142334
35.0009155273438
46.3499870300293
52.5490570068359
49.2110939025879
46.9222068786621
54.9333152770996
62.7536849975586
51.404613494873
35.382396697998
37.099063873291
39.864803314209
35.7638778686523
33.2842483520508
33.3796195983887
39.864803314209
38.9110984802246
34.2379531860352
42.3444290161133
47.8759117126465
42.4398002624512
36.431468963623
35.1916542053223
39.4833221435547
48.066650390625
54.9333152770996
54.3610954284668
50.1647987365723
47.6851692199707
47.7805404663086
49.1157264709473
46.1592445373535
38.0527648925781
35.1916542053223
41.8675804138184
44.8240585327148
37.1944313049316
35.7638778686523
35.7638778686523
22.5074005126953
17.9296245574951
21.6490669250488
13.1611070632935
2.67036962509155
3.8148136138916
12.0166625976563
18.8833274841309
20.1231422424316
19.7416610717773
22.0305480957031
25.177770614624
19.2648086547852
-0.47685170173645
-14.4009208679199
-12.588885307312
-10.3953666687012
-9.63240432739258
-4.57777643203735
-0.9537034034729
-6.19907188415527
-12.9703664779663
-11.4444408416748
-5.7222204208374
-8.0111083984375
-19.2648086547852
-25.2731399536133
-24.891658782959
-21.5536975860596
-14.7824029922485
-17.357400894165
-25.2731399536133
-25.3685111999512
-27.3712882995605
-35.5731353759766
-38.3388748168945
-38.0527648925781
-34.6194343566895
-24.6055469512939
-19.7416610717773
-21.1722145080566
-18.4064750671387
-18.5972156524658
-30.8046188354492
-47.5897979736328
-59.0342407226563
-60.6555366516113
-56.0777587890625
-52.0722045898438
-49.5925750732422
-51.0231323242188
-56.3638725280762
-60.4647941589355
-67.1407165527344
-74.6749725341797
-79.6342315673828
-83.7351608276367
-77.9175643920898
-70.0971984863281
-74.1027526855469
-78.7759017944336
-73.2444229125977
-67.8083114624023
-68.8573837280273
-66.5684967041016
-67.903678894043
-72.7675704956055
-72.0046081542969
-69.7157211303711
-64.5657196044922
-57.6990547180176
-52.5490570068359
-46.6360969543457
-39.3879508972168
-40.8185043334961
-43.679615020752
-30.995361328125
-18.5018463134766
-16.6898097991943
-12.9703664779663
-8.3925895690918
-1.33518481254578
7.6296272277832
7.53425693511963
0.0953703373670578
-2.47962880134583
2.76573991775513
7.0574049949646
2.47962880134583
-2.47962880134583
0.762962698936462
8.29721927642822
11.1583299636841
11.635181427002
15.7361059188843
19.6462898254395
17.8342533111572
11.5398111343384
12.6842555999756
19.4555492401123
21.5536975860596
20.8861045837402
13.7333288192749
2.38425850868225
-2.5749990940094
-4.38703584671021
-6.1037015914917
-4.29166507720947
0.667592406272888
4.48240613937378
7.72499752044678
15.35462474823
20.5046234130859
16.6898097991943
7.24814605712891
2.1935179233551
13.0657367706299
27.8481388092041
27.8481388092041
27.657398223877
32.9981384277344
32.6166572570801
37.9573936462402
48.2573928833008
49.4018363952637
43.5842437744141
36.5268402099609
31.8536930084229
32.8073959350586
32.1398048400879
29.8509159088135
25.7499923706055
20.5999927520752
27.657398223877
32.1398048400879
22.4120292663574
25.5592517852783
33.0935096740723
27.7527694702148
28.3249912261963
27.7527694702148
18.1203651428223
20.409252166748
31.4722118377686
30.6138782501221
20.6953639984131
23.7472152709961
32.1398048400879
29.0879535675049
32.7120246887207
39.864803314209
33.5703582763672
25.6546211242676
22.125919342041
21.7444381713867
22.0305480957031
19.2648086547852
17.357400894165
19.360179901123
16.5944385528564
7.43888664245605
4.95925760269165
9.25092315673828
15.2592544555664
15.2592544555664
8.58333015441895
7.43888664245605
