Value(bpm)
75.2941176470588
75.4006206615687
75.5048890162674
75.6043598367088
75.6964447703312
75.778534057755
75.8480024205755
75.9022167875311
75.9385458612767
75.9543715029419
75.9471018813789
75.9141862989052
75.8531315660593
75.7615197553119
75.6370271190004
75.4774439114375
75.2806950722523
75.0461356460354
74.7774598821082
74.4792335283506
74.1559707837737
73.8121036868251
73.4519572226301
73.0797299925222
72.6994801839951
72.3151165035438
71.9303936865313
71.5489121742755
71.1741215456378
70.8093273051
70.4576692856954
70.1213350290621
69.801542042117
69.4994297147235
69.2161122469499
68.9526856897939
68.7102352345845
68.4898427700994
68.2925947368356
68.1195903187299
67.9719500241405
67.8508247203281
67.7574051993139
67.6929323682039
67.6586907836024
67.6544634134457
67.6773038576791
67.7240369469419
67.7915252459272
67.8766481637075
67.9762840390378
68.0872950999103
68.2065152609883
68.3307407757009
68.4567238021405
68.5811689734344
68.70073308352
68.8120280075281
68.9116545568692
68.9977261579604
69.0706812742354
69.1311712578624
69.1798664966109
69.2174540172099
69.2446351787674
69.2621234705699
69.2706424268337
69.2709236692586
69.2637050865565
69.2497291585179
69.2297414306619
69.2044891441048
69.1746869396025
69.1401644756447
69.099795432548
69.0524134276586
68.9968623890833
68.9319991010001
68.8566961083936
68.7698449627628
68.6703597862403
68.5571811271411
68.4292800752953
68.2856626007263
68.1253740744148
67.9475039251646
67.7512413051187
67.5393742687529
67.3204261338533
67.1032465486588
66.8964608199014
66.7084872145787
66.5475754540853
66.4218653011666
66.3394646586599
66.308547312761
66.3374713675944
66.434920559305
66.6100720626505
66.8727962051853
67.2338956960619
67.7005135529393
68.2629471422087
68.9073378551278
69.6192043587783
70.383072565344
71.18215485296
71.9980887648068
72.8107517936345
73.5981744553953
74.3365779784971
75.0005645707372
75.5634861261357
75.9983246942861
76.2925129792074
76.4547064953631
76.4966753651329
76.4314660623858
76.2730125847931
76.0357760967431
75.7344271045304
75.3835793783002
74.9975803652409
74.5903590884804
74.1753296778555
73.76534677797
73.3726366376763
73.003959125726
72.6577776431398
72.3318981714039
72.024225332088
71.7327512741685
71.4555460293376
71.1907491880127
70.9365627715447
70.6912451949975
70.4531062304153
70.2205028932011
69.9918361844768
69.7655486304115
69.5401632679779
69.3150474748433
69.0903235421199
68.8661380972896
68.6426340119451
68.4199504572277
68.1982229644955
67.9775834908335
67.7581604890327
67.5400789816837
67.323460639042
67.1084238603448
66.8950838582719
66.683552746262
66.4739400500041
66.2670159964752
66.0655277170918
65.8725305870908
65.6910120643945
65.5239013876623
65.3740817784205
65.2444050609299
65.1377086643902
65.056835031154
65.004653522261
64.984084988895
64.9981292670602
65.0498959555203
65.1426389574815
65.2797154184141
65.4610643496523
65.6817060551754
65.9362901314891
66.2194010313802
66.5255031317814
66.8488940846459
67.1836668162026
67.5236808543524
67.8625439250318
68.1936049569404
68.509959756252
68.8044706413427
69.0698012426865
69.2986707455031
69.488423671935
69.641208543878
69.7595501685017
69.8461209078609
69.9037147127745
69.9352224495049
69.9436089248773
69.9318919414363
69.9031236416115
69.860374331432
69.8067189122951
69.7452259952926
69.6789497277366
69.6107311825538
69.5415253393069
69.4712362036763
69.399757188002
69.3269827394711
69.2528083761641
69.1771307259693
69.0998475682651
69.0208578782636
68.9400618739056
68.8573610651934
68.7726583058383
68.6858578470997
68.5968653936825
68.5055615236307
68.4115716800523
68.3143824473274
68.2134856651017
68.108380527277
67.9985741490373
67.8835821986688
67.7629295902944
67.6361512332755
67.5027928336514
67.3624117425799
67.214577846336
67.0588744920097
66.8948994426354
66.7222913830337
66.5421199214671
66.3575608107548
66.1718988999341
65.9883473639918
65.8100486744833
65.6400785898845
65.481452997657
65.3371374630972
65.2100593732966
65.103122607133
65.019224713737
64.9612766423515
64.9322251365468
64.9350779865871
64.9727622629232
65.0453515138862
65.1504981811853
65.2858444528236
65.4490786057428
65.6379133623796
65.8500660084393
66.0832401135271
66.3351087545386
66.6032991946891
66.8853790197709
67.1788437783202
67.4811062141275
67.7894872178619
68.1012221389437
68.4138708470677
68.7254110061735
69.0337763528704
69.3368287911385
69.6323602092201
69.9180957416004
70.1916985817137
70.4507764415582
70.6928897400389
70.9155615821896
71.1162895661676
71.2925594239524
71.4418604651163
71.5625667837259
71.6565657261992
71.7266978637172
71.7758791892809
71.8070827651811
71.8233225307331
71.8276394477013
71.8230901094764
71.8127378959977
71.7996467206013
71.7868773880514
71.7774865653098
71.7745283582301
71.7808470933751
71.7964238019806
71.8191761030548
71.8469758302478
71.8776910533289
71.9091837067505
71.9393084837813
71.9659130058718
71.9868392780992
71.9999264395128
72.0030148119156
71.9939512420637
71.9705957204576
71.9308626360755
71.8757147632387
71.8115030137237
71.7450988329366
71.6833256190237
71.6329611285987
71.6007527377682
71.5934454072303
71.6178223719106
71.6807588483184
71.7892894312634
71.9506903473464
72.1725783668214
72.4630288851482
72.8271999561868
73.2578798429335
73.7448488552318
74.2775536827658
74.8449432449534
75.4353313279343
76.0362894932341
76.6345754635108
77.2161035864366
77.7659649098575
78.2685046830895
78.707464513198
79.0683354400918
79.3504303592
79.5590878198412
79.7002330444557
79.7802557643001
79.8059049941896
79.7841904121015
79.7222928700894
79.627485937822
79.5070697831897
79.3683181588564
79.2184388123497
79.0639810201009
78.9059407813923
78.7422529086038
78.5708555030675
78.3897273526623
78.1968922654554
77.9904243334119
77.7684540499156
77.5291751939769
77.2708523820979
76.9918291762551
76.6905366238017
76.365506569834
76.0171558943678
75.6503968965353
75.270687378628
74.8832998120099
74.4933095364793
74.1055903632602
73.724816893492
73.3554728712047
73.0018649315951
72.668141175279
72.3583140913326
72.0762874618276
71.8258870050584
71.6103568213125
71.4287437186847
71.2782254440775
71.1560948361797
71.0597496753125
70.9866732527737
70.9344172445795
70.9005866569629
70.8828266614006
70.878811179408
70.8862331131505
70.9027961479851
70.9262080780785
70.9541839233946
70.9854387359244
71.0206375334874
71.0606738106469
71.1064468107771
71.158862864138
71.2188369640206
71.2872945883734
71.365173776189
71.4534274701018
71.5530261391611
71.6649606986304
71.7902457469587
71.9299231438493
72.0843830523923
72.2503974117569
72.423480938758
72.5990660002146
72.7724968046202
72.9390286710555
73.0938334229765
73.2320111914869
73.3486088673185
73.4386453576756
73.4971436816954
73.519169776423
73.4998776858697
73.4354760550012
73.328230182156
73.1828522703021
73.004118447737
72.7968177532421
72.5657130587844
72.3155083470469
72.0508223918475
71.7761687311834
71.4959417006373
71.2144082084643
70.9357048806269
70.6638401812489
70.4026948285173
70.1549841124407
69.9211362884753
69.7012978497502
69.4956231115965
69.3042751840347
69.12742696913
68.9652621884676
68.8179764463642
68.6857783348479
68.5688905868989
68.4675512849679
68.3820151323776
68.312554795882
68.2594627305264
68.2232134568404
68.2047104083143
68.2049449277233
68.2249381967565
68.2657470041242
68.3284699858456
68.4142543981776
68.5243034939165
68.6598845846615
68.822337885379
69.0130862536624
69.2336459549071
69.4856386068208
69.7707507382177
70.0883436941513
70.4343844817411
70.8044769118357
71.1940716518199
71.5984343362154
72.0126189694363
72.4314472403272
72.8494945200547
73.2610834373844
73.6602860094755
74.0409353412844
74.3966478803636
74.7210339270133
75.0116702784819
75.2702935664846
75.4989718263593
75.6999115280819
75.875440227521
76.0279898783055
76.1600810914407
76.2743085930002
76.3733280929296
76.4598447417598
76.5366033181923
76.6063802601944
76.6713986360402
76.7313514963159
76.7852315858404
76.8320286737868
76.8707312830192
76.9003286675985
76.9198130549302
76.9281821473104
76.9244418750408
76.9076093904521
76.8767162891237
76.830812041357
76.7690528064958
76.6928947080352
76.6062631711089
76.5131829810775
76.4176453066362
76.3236031712922
76.2349710663463
76.1556286033478
76.0894281114549
76.0402061095948
76.0117986241906
76.0080603802679
76.0328879672788
76.089599641086
76.1774320753157
76.2940330030326
76.4370844894601
76.6042896571648
76.7933568054833
77.0019849247268
77.2278505391143
77.4685958480044
77.7218181673149
77.9850607023506
78.2558047097488
78.5314067863048
78.8082784126828
79.0820429570591
79.3481842289784
79.6020694900743
79.8389599983519
80.0540273185878
80.242375647241
80.3990703054185
80.5191724257427
80.5977796986199
80.630072852552
80.6119175802445
80.545292372745
80.4359483174435
80.289775575687
80.1126945338662
79.9106070708854
79.6893565919216
79.4546969084557
79.2122698284098
78.9675911599408
78.7260447267671
78.4928839384873
78.2731239966683
78.0680299751068
77.8745810518048
77.6895815348543
77.5099012290009
77.3324695776562
77.1542723418651
76.9723506930166
76.7838026042301
76.5857864257081
76.375526522635
76.1503208411696
75.9075502495044
75.6454399654249
75.368148457721
75.0824847269433
74.795084568607
74.512386868231
74.2406379396457
73.9859064475403
73.7541081246813
73.5510396421129
73.3824211974637
73.2539476468253
73.1713483182294
73.1404560131992
73.1665178816702
73.2457484550791
73.3683841797128
73.5245968497702
73.7044990985767
73.8980657258713
74.0950813872005
74.2851155893903
74.457526391997
74.6014943515652
74.7060880319459
74.7603618092962
74.7534857067357
74.6766063667469
74.5333339760501
74.332771368893
74.0841499082575
73.796682240074
73.4794588373884
73.1413679253793
72.7910383887665
72.43680457816
72.0866914908006
71.7484185836678
71.4294204545985
71.136882768941
70.8777526489166
70.6552933060389
70.4664838115173
70.3078103534424
70.1758981771314
70.0674847297801
69.9793965741158
69.9085297016498
69.8518329631719
69.8062944052048
69.7689303586498
69.7367771715437
69.7068855128954
69.6763171997998
69.6422666516708
69.6047459589108
69.5665711413351
69.5306680103031
69.4999506080287
69.4773243481849
69.4656915837148
69.4679595982961
69.4870510417428
69.5259168621309
69.5875518289926
69.6750127933112
69.7914398924565
69.9400809834009
70.1238109017138
70.3416392662429
70.5907313360228
70.8682371746559
71.171276412478
71.4969139950276
71.8421379781477
72.2038394028538
72.5787943607692
72.9636484336557
73.3549037579946
73.7489090266684
74.1418527928629
74.5298745207583
74.9096976020449
75.2782190856592
75.6322324233908
75.9684361361422
76.2834462553902
76.5738119720818
76.8360345922674
77.0665898357554
77.2619534376732
77.4186299237807
77.5331843302389
77.6024262112907
77.6273049595032
77.6132747684767
77.566128322214
77.4917257063263
77.3959491071866
77.2846662545017
77.1637028087776
77.0388236920919
76.9157232145736
76.8000237601033
76.6972827611339
76.6130077113356
76.551258543475
76.509254061306
76.4821960369969
76.4653210891477
76.4538854526216
76.4431552816243
76.4284028405117
76.4049085505181
76.3679688652298
76.3129099219561
76.2351068606688
76.1300086179031
75.9932525259297
75.8265182138371
75.6411643791678
75.4492630344778
75.2626563327543
75.0929558901156
74.9515783460776
74.8498155617634
74.7989385462477
74.8103353159232
74.8956844371023
75.0671680283916
75.3377306187114
75.7202506454685
76.2112405303718
76.7937586880068
77.4500249749957
78.1613545198393
78.9078020438984
79.6678889375219
80.4184300826607
81.1344831177024
81.7894463357228
82.3553316189575
82.8032345013477
83.1113409341103
83.2880071536614
83.3504587972343
83.317080456361
83.2069513915983
83.0394526971055
82.8339583766869
82.6096161930492
82.3852190531008
82.1791643293546
82.0094969131423
81.89391735903
81.8397430208962
81.8360417938354
81.870191998558
81.9296621871979
82.0019141561184
82.0743444111769
82.1342641074783
82.1689179929528
82.1655428927091
82.1114657678292
81.9942403653228
81.8025428841328
81.5381536501025
81.2137668252351
80.8423395943708
80.4365878578864
80.0088659699895
79.5710874065153
79.134683722026
78.7105984456188
78.3093123390576
77.9408966215441
77.6150912755554
77.3413981673084
77.1259583913113
76.9668165754939
76.8610193675659
76.8058688629267
76.7988874164033
76.837786375394
76.9204380802413
77.0448505866663
77.2091446543905
77.4115326198626
77.6502988325623
77.923781386316
78.2298360834165
78.562954035796
78.9161400779882
79.2821663239616
79.6535418412296
80.0224921535798
80.3809531685147
80.7205809877307
81.0327790674658
81.3087440581811
81.5395313478914
81.7161428348131
81.8327940355704
81.8934763271329
81.9042562026056
81.8714052706777
81.8013286539827
81.7005020887687
81.5754186356141
81.4325455363735
81.2782914355147
81.1189839329124
80.9608572534943
80.8100345482217
80.6699980302164
80.538801515941
80.4138460254821
80.2925679243355
80.17243564941
80.0509480718466
79.9256344438678
79.7940558794322
79.653808316952
79.5025269069815
79.3378917588875
79.1576355377504
78.9604484413134
78.7477714117014
78.5215437248884
78.2836796701659
78.0360628684603
77.7805415706091
77.5189249059815
77.2529800437803
76.9844302233507
76.7149536057224
76.4461828962624
76.179705687546
75.9171173889837
75.6613495854697
75.4167437866702
75.1876084322985
74.97815912971
74.7925395213454
74.6348465127809
74.5091598013392
74.4195757737076
74.3702459893041
74.3654206372279
74.409497553556
74.5070776199248
74.6625636335577
74.8735265215264
75.1320864801825
75.430180923493
75.7596140884245
76.111975160593
76.4785733373713
76.8503909365032
77.2180562152526
77.5718379608033
77.9016641149424
78.1971666644102
78.4478481074557
78.6483237729363
78.8012110783417
78.9100155667657
78.9784432904624
79.0103604147683
79.009755203292
78.9807030456767
78.9273350485053
78.8538105745523
78.7642939909138
78.6629357765776
78.5538570598587
78.4404265979342
78.3240105900381
78.2056245274594
78.0862722857093
77.9669457934249
77.8486249581279
77.7322778409056
77.6188610721786
77.509320501076
77.4045920715361
77.3056029190711
77.2132726831733
77.1284144756062
77.0507553256683
76.9793689506346
76.9133296807776
76.8517205231584
76.7936319906006
76.738161154065
76.6844109132974
76.631489481466
76.5785100801299
76.524590841294
76.4688549135114
76.4104320681393
76.3493982591882
76.2884233492309
76.2306038820851
76.1790181374752
76.1367299590987
76.1067950410905
76.0922696599366
76.0962218642924
76.1217451688817
76.1719748410602
76.2501069204215
76.35942017414
76.5030225109348
76.6792708188047
76.8824045326527
77.1064669173195
77.3453971926071
77.593000970536
77.8429300548778
78.0886721610296
78.323551225259
78.5407390149403
78.7332787166381
78.8941210576215
79.0163065302963
79.0978981400125
79.1434674508436
79.1581330472361
79.1471024400065
79.1156348192258
79.0690104565359
79.0125070277636
78.9513829761237
78.8908679237047
78.8361600657042
78.7924304480489
78.7648317383384
78.7581305813126
78.7762977574217
78.8232491839521
78.9029772024812
79.0195816235858
79.1773056081302
79.3805769738055
79.6340557007795
79.9426886364539
80.3117726778721
80.7470280567249
81.2545474647647
81.834760835116
82.4795773307347
83.1799357311528
83.9262707168543
84.7083712014567
85.5152564017508
86.3350735519402
87.1550225679141
87.961314210434
88.7391692662968
89.473173663976
90.1518740215419
90.7672113619979
91.3111551793834
91.7757113320922
92.1530394024373
92.4355809280495
92.6161958245819
92.6883035630487
92.6460249782564
92.484374387809
92.2084605042066
91.843329052701
91.4163189146796
90.9541433610355
90.4826204218789
90.0265588220407
89.6097863267098
89.2553065461506
88.9855725464894
88.8228704828819
88.7891666580755
88.8830582844767
89.0730507208504
89.3258427975347
89.6077454750345
89.8843284481592
90.1203236047765
90.2798002102428
90.3266254812238
90.2252137165508
89.9415470755754
89.4482070563134
88.7577735216311
87.9048398286543
86.9240649091096
85.8489222384762
84.7109576313622
83.5393142196726
82.3604942907678
81.1983184018087
80.0740399653188
79.0065762897829
78.0128229399404
77.1079078848509
76.2976440892438
75.5746386899095
74.9311745380495
74.3603444939444
73.8559262061519
73.4122769056756
73.0242444622335
72.687091744647
72.3964319421267
72.1481729827356
71.9384695624642
71.7636815974668
71.6203381511751
71.505396711746
71.4174608785374
71.3557164933836
71.3194129212442
71.3078575254392
71.3204109211198
71.3564826306987
71.4155270940106
71.4970399913599
71.6005548422631
71.7256398467141
71.8718949392723
72.0389490292897
72.2264068820515
72.4331165898747
72.6573131633571
72.8971928775962
73.1509203737396
73.4166204611501
73.6923707421493
73.9761951002093
74.2660581085256
74.5598604305163
74.8554352967492
75.1505461538011
75.4428855892301
75.7300568943267
76.0094837741238
76.2784807720185
76.5342978974612
76.7741284065961
76.9951186869793
77.1943803659184
77.3690046745442
77.5160790591018
77.6327059831028
77.7160238095114
77.7632295920327
77.7717650295624
77.7423988511605
77.6789714011665
77.5855052102782
77.4660613116345
77.3247104335347
77.16550838746
76.9924757657984
76.8095819658644
76.6207334780818
76.4297663169502
76.240442433207
76.0564499234731
75.8808569503865
75.7137729539045
75.5543535983651
75.4017717851625
75.2552166553521
75.1138921795139
74.9770159361029
74.8438180691822
74.7135404175012
74.5854358077644
74.4587675056611
74.3328088187976
74.2068428461089
74.0804011306983
73.9540670191491
73.8287019976206
73.7051559216104
73.5842673786692
73.4668642480809
73.3537644431293
73.2457768302752
73.1437023203832
73.0483351281031
72.9604641966208
72.8808747862404
72.8103502266488
72.7498294055939
72.7014723908306
72.6680140680514
72.6521987706399
72.656789213511
72.6845810056428
72.738419432651
72.8212186731375
72.935983673591
73.0858349789535
73.2740369020533
73.5040295182257
73.7794650959451
74.1033026191474
74.4712523198498
74.8754020465814
75.307558680119
75.7591908781436
76.2213679617107
76.6847175093844
77.1394041737231
77.5751326199156
77.9811776481567
78.3464444405654
78.6595614087036
78.9096050152655
79.094885804417
79.2212485708186
79.2950988153131
79.3231210370639
79.3121952492319
79.2693233443712
79.2015666602191
79.1159956120956
79.0196518447528
78.9195230286396
78.8225301905131
78.7354009272803
78.6600799708989
78.5924744386457
78.5281332523082
78.4626363504369
78.3915934320005
78.3106476352928
78.2154840542218
78.1018429660823
77.9655375952492
77.8024761674639
77.6086879217718
77.3803526448363
77.1154196836417
76.8183028553719
76.4949454831044
76.151171231157
75.7926513533961
75.42488113286
75.0531649860231
74.6826095959906
74.3181243848529
73.9644286290991
73.6260645558427
73.3074158244748
73.0127308919427
72.7454144383634
72.5041075982634
72.2856801772089
72.0871107842763
71.9054737634623
71.737924245152
71.5816857872537
71.4340404130291
71.2923208912402
71.1539051340702
71.0162126103661
70.876702686856
70.732874818734
70.5822842072576
70.4241809654684
70.2610228804675
70.0955912377522
69.930616918637
69.768779982868
69.6127113351465
69.4649963761437
69.3281805479088
69.2047766987528
69.0972742132766
69.0081498788986
68.9398804909191
68.894957233933
68.8758693088026
68.8828686271058
68.9125160674719
68.9610621268284
69.0247716228118
69.0999051049683
69.182704309636
69.2693816454373
69.3561137537188
69.439039227452
69.5142605926309
69.5778506573234
69.6258633143369
69.6543488431628
69.6595328043358
69.6408525249719
69.6007148834891
69.5416674555112
69.4662745859735
69.3771045494638
69.2767185858555
69.1676618462599
69.0524562535265
68.9335952566801
68.8135404398763
68.6947199335875
68.5795285685621
68.4703297113439
68.3693783048708
68.2770624863491
68.1919318461708
68.1124753007923
68.0371988754014
67.9646235140884
67.8932835528423
67.8217258379675
67.7485094747795
67.6722061925283
67.5914013114617
67.5046952968246
67.4107058824509
67.3080707434969
67.1954574944709
67.0727051756537
66.9420795285027
66.8061251975796
66.6673501016727
66.5282225864901
66.3911704551196
66.2585817997292
66.1328075583504
66.0161657263084
65.9109471625182
65.8194229461071
65.7438532584175
65.6864977892635
65.6496276944389
65.6353898831735
65.643680800709
65.6726492576356
65.7204311049958
65.7851857638009
65.8650860661163
65.9583091727753
66.0630285191943
66.1774067610695
66.299589709513
66.4277012606464
66.5598393378995
66.6940728762738
66.8284398865623
66.9609534857343
67.090426586192
67.217274840434
67.3421081375978
67.4655462231718
67.588218427222
67.7107635054321
67.8338295976984
67.9580743089842
68.0841649171841
68.2127787129038
68.344603476322
68.4803380966792
68.6206933404423
68.7663846431045
68.9174016766321
69.0724108496569
69.2299178989091
69.3884014665062
69.5463121767588
69.7020723882317
69.8540766539435
70.0006929226659
70.140264512962
70.2711128887476
70.3915412606808
70.4998390314775
70.5942870952674
70.6733018135498
70.7367946426802
70.7856074827276
70.8206192842645
70.8427295482834
70.8528549033379
70.8519258682786
70.8408838201894
70.8206781838701
70.7922638560861
70.7565988748625
70.7146423413792
70.6673525995478
70.6156857334889
70.5606848915784
70.5036619580378
70.4459724979072
70.3889633883326
70.3339728381625
70.2823309180541
70.2353605929407
70.1943792499701
70.1607007170772
70.1356377701594
70.1205051303987
70.116622957618
70.1253208506937
70.1479408100053
70.1857852619451
70.2401059401945
70.3121793339548
70.4033177071781
70.5148758568442
70.6482585488772
70.8049287094211
70.9864164637583
71.1943291320872
71.4303623111675
71.6963121940926
71.9940893078915
72.3257306969952
72.6910881951233
73.0835632806746
73.4951863420819
73.9176423244237
74.3422309529605
74.7598458299638
75.1609748280396
75.535724358854
75.8738700160347
76.1649357253453
76.3983028396207
76.5633495609031
76.6502862807457
76.6599112086215
76.6014874655791
76.4848312375211
76.3199386198468
76.1168489001021
75.8855335027699
75.6358115307477
75.3772917751906
75.119340297879
74.8710722169259
74.6413661287397
74.4388996488331
74.2714276807656
74.1382896660062
74.0338422202296
73.9525058637022
73.8887994214473
73.8373098510499
73.7926703535988
73.7495464736236
73.7026300048519
73.6466405801131
73.576334837781
73.4865230251894
73.3720928230306
73.2283962056071
73.0563606870171
72.8612001765527
72.6481864810627
72.4225063121527
72.1892406118177
71.9533513938165
71.7196757276915
71.4929264409284
71.2776991045771
71.0784848941282
70.8996889761643
70.7456541585642
70.6206896551724
70.5277121197169
70.4641248136609
70.4260372081724
70.4096363301555
70.4111612965069
70.4268821721414
70.4530829396406
70.4860484548089
70.5220553296412
70.557366733453
70.5882311347022
70.6108850204202
70.621559626951
70.6165426624642
70.5940508067012
70.5547660620931
70.4995506875543
70.4292841279177
70.3448592424977
70.2471787122016
70.137151644322
70.0156903906343
69.8837075910452
69.7421134518186
69.5918132644009
69.4337051680889
69.2686781572717
69.0976704968491
68.9228008169848
68.7472429772956
68.5741481974803
68.4066047269432
68.2476418486772
68.1002365417158
67.9673226831384
67.8518027008907
67.7565616274031
67.6844835508845
67.6384705163636
67.6214639926658
67.6364690957169
67.6865293689007
67.7718771430484
67.8884205100535
68.031734423178
68.1973865271306
68.3809041450942
68.5777468993204
68.783285025329
68.9927835782394
69.2013928383605
69.404145299867
69.5959596677457
69.7716522898354
69.925956407928
70.0539699883374
70.1565000620062
70.2385582040428
70.3053385544167
70.3621009067121
70.4141518368097
70.466833662022
70.5255214180822
70.5956279974546
70.6826175998319
70.7920277063133
70.929499905089
71.1008200725196
71.3119606480258
71.5659138503075
71.8576521937244
72.1808034238274
72.5288381698973
72.8950145997594
73.2723341580181
73.6535093580681
74.0309449260704
74.3967338334592
74.7426698825417
75.060278501818
75.3408672362794
75.5757605812055
75.7614037153637
75.9004812249067
75.996256662022
76.0521873543046
76.0718858892846
76.0590836465954
76.0175970126755
75.951296782445
75.8640811255025
75.7598523761141
75.6424978004909
75.5158744042842
75.3838025741637
75.2501003212358
75.1185588576946
74.992917126127
74.8768657454286
74.7740548650366
74.6881055373763
74.6226245473831
74.5812226918207
74.5675365688063
74.5852540201495
74.6381434673198
74.7300874985603
74.8641813420991
75.0381839379093
75.2479328690642
75.4892723286561
75.758016598199
76.0499152074565
76.360622432643
76.6856712166552
77.0204517341218
77.360194945294
77.6999615844675
78.0346371075715
78.3589877083222
78.668459252148
78.9590396633382
79.2266488653688
79.4671415561677
79.6763318349468
79.8500223712494
79.9840380139687
80.0742636030149
80.1166855951025
80.10743695229
80.0428445735593
79.9198088529781
79.7405630996971
79.5114759731284
79.2390884897486
78.9299346898945
78.5904791605818
78.227065581141
77.8458762543784
77.452902280765
77.0539238067885
76.6544996274846
76.2599653404852
75.8754392260162
75.5050267403446
75.1488127069418
74.8057297737223
74.4747536721081
74.1548999969227
73.8452210988129
73.5448033000524
73.2527644063379
72.9682514903149
72.6904389252759
72.4185266498099
72.1517386462004
71.8893216170979
71.6306254903684
71.3764317060555
71.12869164039
70.8893411574567
70.6602665226583
70.443309945057
70.2402760005828
70.0529388941668
69.8830505343337
69.7323494106696
69.6025702829094
69.4954547102837
69.4127624714704
69.3562839493597
69.3275739113289
69.3255402475455
69.3476362440056
69.3913460642745
69.4541848299241
69.5336838826422
69.6273778846694
69.7327936859336
69.8474409225508
69.9688043422424
70.0943378779981
70.221460512077
70.3475539880923
70.4699626209136
70.5862834666051
70.6949612533622
70.7945921590506
70.8837634751645
70.9610573929141
71.0250553647919
71.0743430337075
71.1075157140736
71.1231844006702
71.1199822718058
71.0965716433849
71.0516513201709
70.9839642800129
70.8924349027379
70.7782926912739
70.6446987768102
70.4948647301381
70.3319758323339
70.1591783089202
69.9795695073539
69.7961909432151
69.6120241100439
69.4299889283352
69.2529447000355
69.0836934351213
68.9249854255789
68.7795269585192
68.6498383305209
68.5360991201624
68.4366962598069
68.3500051617588
68.2744321400228
68.2084088829503
68.1503877193441
68.0988376392837
68.0522410395101
68.0090911702062
67.9678902655542
67.9271483446353
67.8853826721172
67.8411178698095
67.7929903524759
67.7429035149743
67.6965807767832
67.6599347118245
67.6388581643757
67.6392463030873
67.6670289718028
67.7282135701535
67.8289389758475
67.9755413867213
68.174633428535
68.4331984675274
68.7587028201598
69.1592295178385
69.6429098341696
70.2074349936748
70.8417181026203
71.5338984603754
72.2713177847471
73.0402980258165
73.8259575577185
74.6120759210704
75.3810204662567
76.113750713179
76.7899175188411
77.388073635146
77.8860913482513
78.2715764506369
78.5522993177416
78.7394901347934
78.8453595068519
78.8828227715136
78.8652530669047
78.8062719459181
78.7195833144329
78.6188538497958
78.5176410031125
78.4293682980567
78.3673469387755
78.3414042176814
78.3476669944624
78.3789040228649
78.4279193186161
78.4875127878527
78.5504540876982
78.6094697164967
78.6572434823897
78.6864305474711
78.6896851884076
78.6597022509998
78.5892720057416
78.4724081570198
78.3116401224936
78.1135097002141
77.8845767102652
77.631340386043
77.360195320883
77.0773985248702
76.7890472318406
76.5010669138087
76.2192088529061
75.949056582414
75.6960405305036
75.4654599947508
75.2611458272955
75.0823734733471
74.9275471665251
74.7951405635965
74.6836876359787
74.5917744224682
74.5180315511785
74.4611274530227
74.4197622014901
74.3926619242345
74.3785737413818
74.3762611936764
74.3845015553831
74.4026525944479
74.4315242611819
74.4721626679265
74.5256289628998
74.5930028105826
74.6753862278104
74.7739078017013
74.8897273208283
75.0240408570457
75.1780863422282
75.3531496920172
75.5505715376736
75.7716324471244
76.0143888793518
76.2732845140777
76.5424484461687
76.8158500854811
77.0872861912249
77.3503775467846
77.5985760079434
77.8251826538232
78.0233776893836
78.1862625822258
78.3069146581583
78.3784747523504
78.3977081527594
78.3689869800733
78.2977997160888
78.1897459027213
78.0504801361862
77.8856637216041
77.7009244380611
77.5018245993249
77.2938373785818
77.0823311997737
76.8725618834298
76.6696721691234
76.478322605552
76.2990537621081
76.1299547521118
75.9691207676744
75.8146838155696
75.6648089956128
75.5176917232309
75.3715558531348
75.224652666032
75.075260683486
74.9216862774795
74.7622650411079
74.5953638852323
74.4196878914551
74.2361221084085
74.0464663384656
73.8524927196137
73.6559397269229
73.4585107892431
73.2618737259485
73.0676609615757
72.8774704762914
72.6928674516528
72.5153865739428
72.3465349613337
72.1877956861455
72.0406858189032
71.9079425766179
71.7935086617563
71.7013527048258
71.6354379976995
71.5997497607655
71.5983269462949
71.6352988907134
71.7149272949753
71.8416542108146
72.0201569495916
72.2554111213541
72.5527633704557
72.9179267468487
73.3508462081027
73.8412833228956
74.3776844836017
74.947938595853
75.5392282795069
76.137917989887
76.7294854719973
77.2985045182611
77.828687913437
78.3029994729625
78.7038429388362
79.0133502130928
79.2206872335054
79.3332217651355
79.3618872811691
79.3182341841574
79.2142023569086
79.0619229058353
78.8735540061645
78.6611535250353
78.4365892512631
78.2114861766399
77.9972093769165
77.8048806168623
77.6439553108423
77.513375455441
77.4076713221285
77.3214678194796
77.2494718727471
77.1864493194391
77.1272091441247
77.0665948298965
76.9994826740789
76.9207869454708
76.825471751239
76.7085694349617
76.5652485368998
76.3947023578292
76.2031225048234
75.9973357418183
75.7840482964599
75.5698277379933
75.361096642848
75.1641374212924
74.9851076791724
74.8300655658597
74.7050047055182
74.6158985181861
74.5687540076895
74.5695518664693
74.6198064564666
74.7152924494865
74.8515269453183
75.0241024191925
75.2286398359021
75.4607471251209
75.715982690492
75.9898238209317
76.2776400436788
76.574671607346
76.8760134099741
77.1766047904016
77.4717689648268
77.7590932988382
78.0367657821747
78.3029333349758
78.5557062659573
78.793163718303
79.0133601119807
79.2143325975605
79.3941095226794
79.5507198961733
79.6822038167437
79.7866238130347
79.8622464098711
79.9082049880773
79.9239413057887
79.9089642624511
79.8628535202267
79.7852628200295
79.6759229013026
79.5346439881972
79.3613178089541
79.1559191200917
78.9185067123739
78.6492238813937
78.3487010548756
78.0215020742873
77.6742636358429
77.3134655668095
76.9453813159867
76.5760637382693
76.211341007955
75.8568217626522
75.5179085985849
75.1998191119266
74.90761379966
74.6462302892733
74.4205235535703
74.2345814504472
74.0873510930045
73.9756823505971
73.8965580482397
73.8470757722569
73.8244237802904
73.8258596711851
73.8486915275531
73.8902613113631
73.9479303502079
74.0190668006748
74.1010350167366
74.1911867861406
74.2874846644776
74.3915639983872
74.5064223409214
74.6351034239174
74.7807054435582
74.9463938635051
75.1354170759088
75.3511251455167
75.5969919272487
75.8766409280121
76.1938753822543
76.5527131319297
76.9573122718557
77.4068670538326
77.8932560020278
78.4074664911999
78.94003534189
79.4809830655534
80.0197704269171
80.5452808322915
81.0458324813637
81.5092243474715
81.9228197914027
82.2736708799807
82.5498928957538
82.7514271099937
82.8852505203343
82.9588735314579
82.980150451256
82.9571722564306
82.8981723612781
82.8114472340775
82.7052930105024
82.587958665248
82.4676158430299
82.3523447043449
82.2480600651503
82.1537469180263
82.0669853423794
81.9853806166526
81.9065594702477
81.8281677414003
81.7478694081508
81.663346963699
81.5723031082667
81.4724637272542
81.3615821200932
81.237449644079
81.0985250490741
80.9445195195643
80.7753058899577
80.590778209427
80.3908522957966
80.1754662246723
79.9445807499533
79.698179652231
79.4362700119819
79.158882404902
78.8660710171974
78.5579136993804
78.2352328983797
77.9014534646038
77.5604917314378
77.2161403355388
76.8720644575879
76.5318017310854
76.1987655056941
75.8762511630278
75.5674452060505
75.2754368763366
75.0032320946016
74.753769567809
74.5299358689327
74.3333551435504
74.1625659664996
74.0157031809668
73.8909754454567
73.7866543895345
73.701064883369
73.6325763088697
73.5795947397475
73.5405559546085
73.5139192216395
73.4981618059087
73.4917741610547
73.4932557554994
73.5010784965349
73.513616725947
73.5292259902794
73.546260155827
73.5630704003765
73.5780049425477
73.5894095118727
73.5956285625641
73.5950072323373
73.5858940446531
73.5666443483557
73.5356244829
73.4912166687089
73.4324861759839
73.3609256854305
73.2785773872846
73.187476417436
73.0896455260883
72.9870908905333
72.88179905854
72.7757350005838
72.6708412435269
72.569038055308
72.4722246495978
72.3822813810855
72.3010729059612
72.2303206097214
72.1705959657587
72.1218877419119
72.0841897550583
72.0575057731777
72.0418495534722
72.037244903295
72.0437257642104
72.061336319607
72.0901311263911
72.1301752713931
72.1815445532333
72.2443256905099
72.3185969389597
72.4039215106823
72.4992959554888
72.6036858538505
72.7160515067716
72.8353454122236
72.9605100283515
73.090475826708
73.2241596413664
73.3604633220228
73.4982727011252
73.6364568866416
73.7738678932688
73.9093757321426
74.0427770725366
74.1748929191196
74.3066081156124
74.4388202835615
74.572439891632
74.7083905462001
74.8476095116483
74.9910484692495
75.1396745242639
75.2944714718844
75.4564413339735
75.6266061801662
75.8056871235972
75.9918735771435
76.1821121218072
76.3732817688467
76.5621985920215
76.7456158982668
76.9202271330106
77.0826716523804
77.229543480043
77.3574031408246
77.4627926259399
77.5422534952978
77.592415258455
77.6124720156506
77.6049043593595
77.5724633117675
77.5179422428235
77.4441600777612
77.3539464203198
77.2501286887519
77.1355213198962
77.0129170606242
76.885080336311
76.754742662799
76.6246000516117
76.4968628992787
76.3710963203643
76.2459274993983
76.1200002798761
75.9919764323087
75.8605360809426
75.7243785868655
75.5822238696654
75.4328141483514
75.2749160802166
75.1073232737901
74.9288591490449
74.7383801430908
74.5357943589624
74.3247033199513
74.1094700776136
73.8943619023118
73.6835486519183
73.4811059419086
73.2910228363212
73.1172138073856
72.9635347592974
72.8338029768219
72.7318209410198
72.6614040521402
72.6264124143946
72.6298766671707
72.6684730839607
72.7361671112471
72.826948157056
72.9347972425354
73.0536533996023
73.1773899574796
73.299800875763
73.4145974141509
73.515415490927
73.5958340696242
73.6494048214911
73.6696931368249
73.651195668224
73.5953160909605
73.5067629765923
73.3903152815805
73.2507645992752
73.0928825500703
72.9213944726555
72.7409594261399
72.5561563880699
72.371476443781
72.1913207070185
72.0200036882513
71.8617618329661
71.7206993848259
71.5983501932014
71.4930356698714
71.4029119698173
71.3261736411529
71.261046451062
71.2057811971037
71.1586484504833
71.1179341901013
71.0819362962622
71.0489618810473
71.017325438652
70.9853478035627
70.951355907361
70.9141442336618
70.8752015390863
70.8369826270136
70.801933179293
70.7724897677906
70.7510828881149
70.7401416600874
70.7421001958851
70.7594056527719
70.7945280082589
70.849971621614
70.9282886773284
71.0320946440854
71.1640174083054
71.3236668581711
71.5063592605938
71.7070390477365
71.920564688514
72.1416854657582
72.3650254972451
72.5850754157324
72.7961922036991
72.9926077110216
73.1684463623277
73.3177524789865
73.4345274932201
73.5128268939266
73.5502598085094
73.5502815014211
73.5169990188527
73.4546028463647
73.3673315750198
73.2594410966513
73.1351786060843
72.9987615523714
72.8543615676611
72.7060933129519
72.5580081151731
72.4140922292808
72.2782695174018
72.1535558904259
72.0398376046253
71.9363087691594
71.8421809478653
71.7566810405573
71.6790493632526
71.6085379156801
71.5444088261566
71.4859329654287
71.4323887224109
71.3830609359064
71.3372399774015
71.2942209808815
71.2533523591145
71.2148417514847
71.1796225085353
71.1486480817177
71.1228698915332
71.103238597445
71.0907056213444
71.0862249265183
71.0907550559248
71.1052614357531
71.1307189527214
71.1681148163959
71.2184517210121
71.2827513121006
71.3620376998918
71.4573000924205
71.5695465043338
71.6998198330284
71.8492028105466
72.0188234177783
72.2098608144073
72.4235518466226
72.6611982045454
72.924174312839
73.213936051396
73.5320304186965
73.8801051252413
74.2580915569382
74.6603682012747
75.0800318601977
75.5098771873885
75.9423651605198
76.3696053703448
76.7833539078484
77.175028754639
77.5357445601786
77.8563684906894
78.1275984289277
78.3400641687948
78.4859535122624
78.5673504664785
78.5905254090446
78.5620530558275
78.4887109037709
78.377396463703
78.2350553084568
78.0686209225122
77.884966860512
77.6908713250952
77.492993968685
77.2978645115636
77.1118114965306
76.9383907031397
76.7777243629797
76.6297237159566
76.4943120590781
76.3714246191265
76.2610084535594
76.1630223793198
76.0774369293627
76.0042343368241
75.9434085468827
75.8949652564862
75.8589219822406
75.8353684453257
75.824930923457
75.8285182938432
75.8470569262646
75.8814919869461
75.9327912636818
76.0019493036484
76.089991894279
76.1979809227965
76.3270196559378
76.4782584881515
76.6529012142803
76.8521936243059
77.0752256113923
77.316759845624
77.5709505114142
77.8318089449828
78.0931873204969
78.3487716330118
78.5920846447787
78.8164994832855
79.0152645301107
79.1815401109048
79.3084472816634
79.3891355441638
79.4195961484484
79.4029250287421
79.3434645381381
79.2456792069124
79.1141106915603
78.9533372506619
78.7679382058469
78.5624636679327
78.3414096513857
78.1091985681733
77.8701649865964
77.6285464620803
77.388173143823
77.1503929212963
76.9153994213832
76.6833748146337
76.4544967626057
76.2289386105354
76.0068695850632
75.7884549965915
75.573856445899
75.3632320346764
75.1567365796951
74.9545218303629
74.7567366894627
74.5635933654801
74.375616970939
74.1934179439855
74.0175961796484
73.8487421100305
73.687437886439
73.5342586415904
73.3897738305074
73.2545486496129
73.1291455344518
73.0141257374439
72.9100509880911
72.8174852391386
72.7369288893875
72.6683014498775
72.6112323690864
72.5653618468156
72.5303422544201
72.5058371076389
72.4915200965427
72.4870741678455
72.4921906552775
72.5065684541264
72.5299132364249
72.5619367036044
72.6023558737459
72.6508935264028
72.7072989187481
72.7713455986217
72.8428110339056
72.9214753548516
73.0071208858807
73.0995316935198
73.1984931494447
73.3037915077145
73.4152134954013
73.5325459159247
73.6555752645066
73.7840873552612
73.9178518633883
74.0563345983593
74.1987150621408
74.3441504992923
74.4917853659523
74.6407506523777
74.7901633995239
74.9391264179366
75.0867282176777
75.2320431582452
75.3741318274826
75.5120416582613
75.6448077912672
75.7716142671714
75.8926706160074
76.0086027673956
76.1200481080195
76.2276536803963
76.3320754945427
76.4339779441961
76.5340333320112
76.6329215077958
76.7313296235638
76.829952008978
76.9294901706373
77.0306403766719
77.1335366938967
77.2375222178524
77.3418744631699
77.4458631133681
77.54874999446
77.649789188525
77.748227291109
77.8433038161875
77.934251752174
78.0202982720794
78.1006656004185
78.1745723572744
78.2417397124554
78.303422041698
78.3611735356131
78.4165592300146
78.4711537636452
78.5265407603708
78.5843128459709
78.6460723091747
78.7134324172037
78.7880193978011
78.8714751026158
78.9654603708894
79.0706477938066
79.1828300131522
79.296277470239
79.4051955077465
79.5037268480808
79.5859623833873
79.6459607749017
79.6777769666434
79.6754995685317
79.6332968586668
79.5454708973146
79.4065189433429
79.2124286977438
78.9673411018571
78.6786013467776
78.3535281002048
77.9993353543684
77.6230761141288
77.2315998598531
76.8315231873544
76.4292127709485
76.0307796425203
75.64208371766
75.2687475159112
74.9161780723779
74.5885298415852
74.2859879465896
74.0078954989521
73.7536505602703
73.5227030803769
73.3145521420458
73.1287434860605
72.9648672936177
72.8225562058184
72.7014835624624
72.6013618445787
72.521941307103
72.4630087899143
72.4241496313836
72.4031238810923
72.396846792777
72.4022513264952
72.4162821607044
72.43588711538
72.4580111593528
72.4795929912871
72.4975642004038
72.5088510206096
72.5103786900745
72.499078417426
72.4718969355844
72.426005274992
72.3625311572589
72.2862231778314
72.2019422943014
72.1145127036073
72.0287145433434
71.949283007535
71.880913726201
71.8282742710002
71.7960216961264
71.7888261033356
71.8114003324686
71.8685360253246
71.9651331198285
72.1029062369316
72.2759352457496
72.4771927800323
72.6995659729589
72.9358061562575
73.1784922152567
73.4200082705115
73.6525366161389
73.8680669838015
74.0584232035684
74.2153081809965
74.3303677875844
74.39532803608
74.4069577452927
74.3709998288933
74.294276380264
74.1837038891431
74.0462246077981
73.8887506099733
73.7181209026392
73.541071566505
73.3642186201292
73.1940531243203
73.0369479637866
72.8991757545178
72.7869360512187
72.7042317961913
72.6485545093527
72.6162430830474
72.6036991496744
72.607365760672
72.6237097680532
72.6492077542022
72.6803354213272
72.7135604025962
72.7453384933294
72.7721133229997
72.7903194971937
72.7963892329402
72.7873913773023
72.7637492068796
72.7270038671274
72.6787063652296
72.6204116581292
72.5536740896763
72.4800434931173
72.4010619639926
72.3182613021502
72.2331611164331
72.1472675816758
72.062072834914
71.979054996149
71.8996492230518
71.824764222305
71.7548662783347
71.6904059924778
71.6318329037176
71.5795962183295
71.5341455953672
71.4959319890711
71.4654085497175
71.4430315848965
71.4292615837156
71.4245643069744
71.4294119469531
71.4442837838714
71.4692492862392
71.5032284950153
71.5449461448597
71.5931265638501
71.6464911193775
71.7037561162727
71.7636311481877
71.8248179060813
71.8860094498229
71.9458899503998
72.0031349109932
72.0564118752405
72.1043816303081
72.1459039185918
72.1812864640263
72.211469529082
72.2374016273124
72.2600357774904
72.2803285082653
72.2992391126997
72.3177291553614
72.3367622339578
72.3573039970931
72.3803224196096
72.4067883371396
72.4376762419511
72.4739005814282
72.5152512201503
72.5605579581017
72.6086156900949
72.6582137198923
72.7081350331148
72.7571559740722
72.8040463320947
72.8475698431264
72.8864851119367
72.9195469593056
72.945508196924
72.9631218305211
72.9711708639223
72.9694625427331
72.9591128434013
72.941327948815
72.9173167743768
72.8882887105448
72.855451765345
72.8200111087774
72.7831680187344
72.7461192263097
72.7100566571966
72.6761675652466
72.6456350541834
72.619638228877
72.5991655574994
72.5847696475454
72.5769437251949
72.5761839806848
72.5829905029624
72.59786828847
72.621328327265
72.6538887703075
72.6960761824448
72.7484268863813
72.8114884037667
72.8858210004554
72.9719993298842
73.0701049309226
73.1783706446234
73.2945922870714
73.4165431560687
73.5419697290728
73.6685886995855
73.7940853946914
73.9161136226347
74.0322970019181
74.1402318221637
74.2374914816312
74.3216325366172
74.3902041037059
74.4420041274903
74.4792990360671
74.50497521031
74.5219400039355
74.5331138069128
74.5414243629446
74.5498033715316
74.5611853902153
74.5785090451933
74.6047205586908
74.6427796093365
74.6956675573954
74.7663927171197
74.8575211445023
74.9708017539339
75.1079503180384
75.2707492766998
75.4610591670255
75.6808313273907
75.9321220483871
76.2171083767868
76.5381058181368
76.897588230741
77.2982102603339
77.7428327329648
78.2333472613742
78.7659540199152
79.3349250551901
79.9342461490833
80.5575559789391
81.1980924425664
81.8486478793634
82.5015349627454
83.1485653923863
83.781043800518
84.3897794725441
84.9653916938435
85.5023486634685
85.9983541363135
86.4512671658925
86.8590327890397
87.2196991517081
87.5314345349855
87.7925440418276
88.0014856954549
88.1568856960304
88.2575525836841
88.3030162332466
88.2981019117324
88.250667840617
88.1687092097311
88.0602572916689
87.9333243404415
87.7958631326564
87.6557411403398
87.5207290734756
87.3985033910691
87.2966623480463
87.2214472754602
87.1664584859124
87.1182837986519
87.0635034842361
86.9887682944122
86.8808400117821
86.7266721353142
86.5135290486269
86.2291407740621
85.8618887664625
85.4010162612703
84.8372492778169
84.1748343958876
83.4327729168176
82.6302799974355
81.7856520165813
80.9160763283516
80.0375245920862
79.1647184587998
78.3111555704579
77.4891841891401
76.7101159629518
75.9843680467888
75.3216277901347
74.7302946575895
74.2096384354293
73.753450374104
73.3559711026294
73.0119093382224
72.7163658504017
72.4647684915321
72.252816454909
72.0764323057528
71.9317206357165
71.8149324359338
71.7224344807997
71.6506831746745
71.5962150125704
71.5571346843973
71.5345248188928
71.529825678266
71.5445022599827
71.5800519487261
71.6380129149246
71.7199733372647
71.8275815437946
71.9625571860571
72.1267035837179
72.3219214040706
72.5502238724874
72.8137533354408
73.1127616568075
73.4407670736577
73.7896863902691
74.1511558064505
74.5164886271264
74.8766518734706
75.2222638176383
75.5436146300832
75.8307122702972
76.0733554268301
76.2612346834756
76.3840621316056
76.4321037305859
76.4046105403926
76.3098852778462
76.1569070561633
75.9548114024347
75.7127647103556
75.4398602110511
75.1450363124388
74.8370172356323
74.5242751836194
74.2150128139523
73.9171645395661
73.6384151273419
73.3860774494152
73.1623992754682
72.9638858519294
72.7868387786334
72.6276678716212
72.4828717413631
72.3490221522521
72.2227519067619
72.1007460555941
71.9797362778792
71.8564983045849
71.727852274881
71.5906659202214
71.4418604651163
71.2803719897374
71.1129446950123
70.9481394904836
70.7943609183067
70.6598741480174
70.5528412550926
70.4813761758084
70.4536181797493
70.4778243275939
70.5624821962936
70.716445185878
70.9490940260582
71.270529764277
71.6909882090497
72.2074297449464
72.8048110939731
73.4671264166442
74.1774218216661
74.9174910220345
75.6676427195196
76.4065561556088
77.1112460441812
77.7571609684737
78.318439314135
78.7683428228525
79.080338252651
79.2457365028876
79.2794355247019
79.1992530085626
79.0239518465284
78.7727515289087
78.4649214283747
78.1194661831547
77.7549061983979
77.3891509159817
77.0394590957296
76.722478811828
76.4543599766476
76.248433259009
76.1019571438795
76.00617391764
75.9526196435479
75.9330372810771
75.9392940395244
75.9633173164843
75.9970482865616
76.0324127062016
76.0613088392502
76.0756125921414
76.0671999786215
76.0280073939615
75.9535214091497
75.8466462094206
75.7112679991089
75.5512904442473
75.3706080579041
75.1730836247014
74.9625297190216
74.7426942840977
74.5172501699974
74.2897884773817
74.0638155201029
73.8427532020165
73.6299439662851
73.4289956645313
73.2442254436004
73.0799879881172
72.9405864437217
72.8303000326328
72.753416589333
72.7142701849255
72.717284185274
72.76702029543
72.8682343883939
73.0259402105435
73.2454824139894
73.5326146471296
73.8890929564244
74.3044847191045
74.7659615404235
75.2601992489063
75.7732224409252
76.2902946420963
76.7958605116207
77.2735480399003
77.7062393528058
78.0762182785356
78.3654009840784
78.5556525261204
78.6329590663309
78.6041079750074
78.4833534286912
78.2854948700249
78.0255600551976
77.7185450322755
77.3792115535801
77.0219429477722
76.6606567435451
76.3087705573191
75.9792168811929
75.6845023303894
75.4367859982275
75.2426877123058
75.0965653754029
74.991322197914
74.9200856180246
74.8761391023221
74.8528673616187
74.8437140171725
74.8421511233031
74.8416602245646
74.8357248081078
74.8178341090952
74.781498240776
74.7203433263789
74.6319032586047
74.5195393749061
74.387098878393
74.2384132933872
74.0772802362999
73.9074491983298
73.7326112770286
73.5563927423459
73.3823522886164
73.213981806163
73.0547105035842
72.907912223073
72.7769146193515
72.6645354355587
72.5723770751902
72.5018693799602
72.4544671207049
72.4316592116609
72.4349786856984
72.4660135258577
72.5264184690659
72.6179279215294
72.7423701527388
72.9016829671644
73.0979310906824
73.3333250992422
73.6079947265743
73.9146584872331
74.2442969621677
74.5876058873451
74.9349459097678
75.2763156208455
75.601350181415
75.8993480488506
76.1593282101618
76.3701198637926
76.5204856329129
76.5992781105207
76.5961116979173
76.5107179507578
76.3521961305588
76.1302833307027
75.8548530322962
75.5357692824838
75.182766272692
74.8053541015353
74.4127503672062
74.0138363858752
73.6171362722984
73.2308168233946
72.8627060807578
72.5202792798705
72.2073345909959
71.9220158384724
71.6620609714052
71.425315913776
71.20972042807
71.0132956465167
70.834133087179
70.6703850029631
70.5202559375101
70.3819953836929
70.2538914587048
70.1342655250217
70.0214676992284
69.9139260583185
69.8108987211551
69.7122849352599
69.6180032357356
69.5279743701574
69.4421212099645
69.3603686653957
69.2826436037886
69.2088747710716
69.1389927162869
69.0729297189924
69.0106197193993
68.9519982511078
68.8970023763133
68.8456632698873
68.7991302409175
68.7592882959623
68.7280301742224
68.7072472433727
68.6988347702484
68.7046982448728
68.7267607849509
68.7669716640896
68.82731602603
68.909825869437
69.0165924137924
69.1497799873266
69.3116416135765
69.5038686670383
69.7234883364491
69.9654342083895
70.2245311560281
70.4954723841168
70.7727956805989
71.0508675381213
71.3238757828475
71.5858314348139
71.8305805532937
72.0518267828289
72.2431652012193
72.3981278716161
72.5105477183361
72.5796763783289
72.6094670008801
72.6041682364491
72.5681367632407
72.5057978776073
72.4216109413837
72.3200400650235
72.2055302443338
72.0824890325587
71.9552737212718
71.8281839240807
71.7054594063463
71.591279663601
71.4884478655916
71.3964005111011
71.3140708897292
71.2404100736217
71.1743842274805
71.1149722501137
71.0611637328308
71.0119572227326
70.9663587812632
70.9233808303167
70.8820412797466
70.8413629313303
70.8003731551112
70.7581849346612
70.7151580887414
70.6726219597148
70.631925420002
70.5944113179795
70.5614174423346
70.5342779918648
70.5143255477547
70.5028935481042
70.5013192680229
70.5109473129491
70.5331336380398
70.5692501125516
70.6206896551724
70.6885932231073
70.7730145555902
70.8737502188822
70.9906163265209
71.1234475247179
71.2720960466254
71.4364308289635
71.6163366850244
71.8117135285416
72.0224756433194
72.2485509938851
72.4898805727444
72.7464177801007
73.0177117104719
73.3003317104143
73.5894481283031
73.8800740191507
74.167063261801
74.4451105317707
74.7087587827552
74.9524147996703
75.1703733230028
75.3568501263861
75.5060242522893
75.6120893724882
75.6693173194037
75.6745718333034
75.6316787032592
75.5457947050367
75.422189407395
75.2661898364503
75.0831320990311
74.8783204420679
74.6569939653615
74.424300987794
74.1852808957858
73.9448531781137
73.7078132714362
73.4788345843994
73.261411224432
73.055443925366
72.8601183444415
72.6746442907436
72.4982535285046
72.3301977887104
72.1697469741479
72.0161875448394
71.8688210723905
71.7269629531683
71.589941271431
71.4570958045777
71.3277771635938
71.2014109246813
71.0784227752579
70.9600064287367
70.8473613977447
70.7416739781565
70.6441194677139
70.5558647618344
70.478071322394
70.4118985191866
70.3585073481745
70.3190645355813
70.2947470423734
70.286746989794
70.2962770334356
70.3241780129154
70.3693967316596
70.4303201662132
70.5053462690715
70.5928771937681
70.6913131419544
70.7990469304965
70.9144592698815
71.035914755003
71.1617585778547
71.2903139788173
71.4198804590489
71.548732780935
71.6751418330293
71.7977757774258
71.9156753436191
72.0278853253629
72.1334414928927
72.2313721784323
72.3207001314571
72.4004446452841
72.469623954325
72.5272578987968
72.5723708508394
72.6039948928713
72.621173235642
72.6229739374904
72.6091897016707
72.5807897014933
72.5388656148647
72.4845201289138
72.4188630459442
72.3430077077204
72.2580677515283
72.1651542071375
72.0653729398762
71.9598224415415
71.8495919678246
71.7357600183501
71.6193931533048
71.5014487013603
71.3823618749275
71.2623944142395
71.1418046392317
71.0208475166162
70.8997746387589
70.7788342208509
70.6582711157493
70.5383268458712
70.4192396515329
70.3012445551459
70.1845734406958
70.0694551479608
69.9561160492215
69.8448964107143
69.7364012370579
69.6312661319045
69.5301196627262
69.4335840621563
69.3422760361176
69.2568076766896
69.1777874783203
69.1058214567217
69.0415143705833
68.9854710471143
68.9382978133699
68.9006040363506
68.8730027883061
68.8559941580014
68.8498547247503
68.8548443244657
68.8712335735008
68.8993047505703
68.9393527298676
68.9916859703912
69.056627566989
69.1345163691683
69.2257081743284
69.3305770027492
69.4495164624262
69.582941212691
69.7312374908834
69.8934423996862
70.0670935970409
70.2496147448386
70.4383815859172
70.6307158684548
70.8238812001801
71.0150809404659
71.2014582496575
71.3800984196158
71.5480336066898
71.7022500773875
71.8396980571757
71.9573059303904
72.0532199943737
72.1290004790682
72.1868398648125
72.2289745059221
72.2576741489329
72.2752327451842
72.2839606351758
72.2861781599942
72.284210736308
72.2803854163004
72.277028942652
72.2764673014161
72.2810267723971
72.2927730610892
72.3120822945897
72.3386639394713
72.3722294179388
72.4124932026081
72.4591722661451
72.5119855566702
72.5706534977032
72.6348975115996
72.7044395655944
72.7790017397261
72.8583058160577
72.9420728887525
73.0301984808715
73.1244764950471
73.2278830589242
73.3434497964451
73.4742562714586
73.6234415439001
73.7942185494548
73.9898915023934
74.213876581552
74.4697262342309
74.761157524892
75.0920850686532
75.4666592286773
75.8875987346803
76.3502556023755
76.8477349152548
77.3728375486729
77.9179922576727
78.4751998223311
79.0359911817839
79.5914019071156
80.1319657339668
80.6477301002732
81.1282966633785
81.5629053749271
81.9445113473156
82.2753471083314
82.5592715382657
82.8004482160204
83.0032989454158
83.1724596426612
83.3127396283411
83.429085196059
83.5265481607025
83.6102599313552
83.6854115146672
83.7570895768096
83.8289629665743
83.9039086076454
83.9848153951957
84.0745963337973
84.1761937263662
84.292586452217
84.4267994091196
84.5819152195193
84.7610883336498
84.9675617029549
85.2044937625252
85.4690725174416
85.7512406837102
86.0402813649032
86.3251919296339
86.5946782474815
86.8371780204494
87.0409150426846
87.193985806917
87.2844790918995
87.300627997593
87.2313418153927
87.0770181065058
86.8513833187204
86.5690209155276
86.2444184252373
85.8918076124324
85.5250538844826
85.1575930889758
84.8024127031997
84.4720739135318
84.1787711533816
83.9344262295082
83.7467401062859
83.607224249284
83.5036303919732
83.4239446970646
83.356301558571
83.2889322663163
83.2101474003397
83.1083522389098
82.9720944809234
82.7901432186241
82.5515973722819
82.2461627066744
81.8720013488852
81.4394086277456
80.9595372223035
80.4432683756524
79.9011098703074
79.343124451325
78.7788865052152
78.21746424052
77.6674243663235
77.1368562740409
76.6334129400537
76.1643661310521
75.7362711623026
75.3516068216881
75.010708254671
74.7139893527397
74.461976160333
74.2553167620812
74.094792233944
73.9813288575612
73.9160118263379
73.9001007075727
73.9350469686925
74.0225139292195
74.1643995657161
74.3620887043077
74.6111170264693
74.9041986021334
75.2339545306662
75.5928450790236
75.9730985591202
76.3666544201137
76.7651217002368
77.1597544445946
77.5414460312421
77.900744529187
78.2278912029842
78.5131905127168
78.7529508310617
78.9492566748507
79.1046107236291
79.2216967870552
79.3033520284095
79.3525399760442
79.3723247950174
79.3658472211338
79.3363024875271
79.286920502862
79.2209484728019
79.1416166502245
79.0514187323624
78.9519098988309
78.8445773104235
78.7308977901802
78.6123352481863
78.4903386696617
78.366340655295
78.241756500149
78.1179837957135
77.996402538772
77.8783757306253
77.7652503394735
77.6578137339711
77.5550419126018
77.4555504092678
77.3579698067883
77.2609447768143
77.1631336043116
77.0632081837144
76.9598544742665
76.8517734018127
76.7376821933958
76.6163161295089
76.4864306967773
76.3469585439787
76.2003934621051
76.0527213793631
75.9099903235336
75.7781588920286
75.6631091055471
75.5706683417244
75.5066401483079
75.476843907898
75.4871635554421
75.5436058387438
75.6523689689492
75.8199229457709
76.0512772767363
76.3400178041713
76.6750634950202
77.0451007196679
77.438467208935
77.8430565627825
78.2462574685683
78.634931334693
78.9954326771621
79.3136766873885
79.5752578459053
79.765622121714
79.8724233031189
79.8988059991517
79.8549673211422
79.7514939347312
79.5991651553445
79.4088083936759
79.1911832545333
78.9568952488059
78.7163389393088
78.4796695417334
78.2568015388202
78.0574327175977
77.8907837182558
77.7589102019545
77.6568720727781
77.579548793936
77.5219133688922
77.4790036347488
77.445900246264
77.4177110896
77.3895619667226
77.3565934580978
77.3139639045304
77.2568584495511
77.180504334387
77.0815724932418
76.9613734180909
76.8221824730038
76.6662745351724
76.4959137930492
76.3133449131365
76.1207855813532
75.9204204051038
75.7143961458883
75.5048182395181
75.2937485516047
75.0832043097998
74.8751613548433
74.6719375234402
74.4765459658924
74.2920245639615
74.1213570791712
73.96748360077
73.8333132323237
73.7217389793261
73.6356548465921
73.5779752076304
73.5516565693527
73.5597219255428
73.6052879732507
73.6915759322532
73.8186374814352
73.9795813918228
74.1665931937321
74.3717622764933
74.5870331801758
74.8041735690138
75.0147597007157
75.2101804291163
75.3816608372819
75.5203064756316
75.6171688569457
75.6633323248203
75.6504236686825
75.5783359773263
75.4545920886619
75.2871258347183
75.0839075844062
74.8528623721663
74.6018050283903
74.3383923404741
74.0700917842049
73.8041660299648
73.5476722396651
73.3074751153366
73.0902727232983
72.902543660555
72.7466008173499
72.6191381925254
72.5165486154915
72.4353192505158
72.3720093629401
72.3232317429105
72.2856375512102
72.2559044202921
72.2307276973999
72.206814757125
72.1808823387548
72.1496568798809
72.1098781600665
72.0599612643429
72.0038248189086
71.9465031856506
71.892999935388
71.8482897286828
71.8173270961947
71.8050620457728
71.816462494373
71.8565436333598
71.9304044871029
72.0432721203121
72.2005541953073
72.4079008860202
72.6700087066678
72.9828405418158
73.3384464622977
73.7286872131697
74.1451563549549
74.5791036433533
75.021376523541
75.4623818381851
75.8920703937415
76.2999473751985
76.6751116902411
77.0063270971675
77.2822630039627
77.4976799480983
77.6561210719821
77.7621003987679
77.8204139159877
77.8360768000176
77.8142647749263
77.7602607938859
77.6794079455726
77.577069216947
77.4585944995057
77.329295017095
77.1944251849546
77.0587106482245
76.9245937904769
76.7938170875014
76.6680996488689
76.5491393441553
76.4386155314282
76.3381925051787
76.2495236496016
76.1742562901929
76.1140372449267
76.0705190858034
76.0453671324074
76.0402765513658
76.0576265198081
76.1009122596543
76.1737933062193
76.2800206386857
76.4234674276498
76.6081644086118
76.838340504929
77.1184695052815
77.4533238231229
77.8480366405492
78.3081740821401
78.8398121794119
79.4442557856562
80.1080336301002
80.8142976054921
81.5450506305873
82.2809650343261
83.0012813511115
83.6838045555893
84.305016411641
84.8403219438834
85.2644443199723
85.5519750294122
85.6836530017119
85.6711770222915
85.5375207355171
85.3065459697733
85.0023969872142
84.6490293725672
84.2698757925079
83.8876476321336
83.5242653711912
83.2009076057489
82.9381685255172
82.7561251888995
82.6615392528168
82.6397626651132
82.6745894828735
82.7500427173223
82.8501856985315
82.9589955901533
83.0602983904581
83.1377663141648
83.1749790035962
83.1555495377688
83.0633146627586
82.8845312939352
82.6230051357471
82.2915651402783
81.9031326198707
81.4704596592691
81.0059812027503
80.5217080597873
80.0291588284432
79.5393276840047
79.0626844335784
78.609203124419
78.1884157348183
77.8093437784821
77.4762427951327
77.1880839366918
76.943700035489
76.7420844945795
76.5823822411601
76.4638821009904
76.3860104692154
76.3483261756376
76.3505164624961
76.3923940107375
76.4738949670762
76.5950779392643
76.7554065410979
76.9506261304464
77.1752206155049
77.4236125052989
77.6901234160217
77.9689415280992
78.2540971047291
78.5394465756686
78.8186658266166
79.0852534175644
79.3325444747896
79.5537359515229
79.7427555749221
79.8988644969731
80.0235330137707
80.1183358908553
80.1849345910765
80.2250649196939
80.2405249918856
80.2331636672587
80.2048695770068
80.1575608499141
80.0931756240398
80.0136634121698
79.9208545043863
79.8157888254475
79.6991966370085
79.5718101038463
79.4343621228461
79.2875845016668
79.1322062728553
78.9689521457638
78.798541097405
78.6216851022742
78.4390880001577
78.251444500068
78.059459968759
77.864186853377
77.6669612940481
77.4691031802993
77.2719061129991
77.0766375736077
76.884539513525
76.6968293414359
76.5147012878352
76.3393281277039
76.1718632445221
76.0134430214229
75.8651895482795
75.7281915699394
75.6034134454899
75.4917783295827
75.394210392353
75.3116383275974
75.2449990750714
75.1952417971347
75.1633321296584
75.1502567317308
75.1570281637979
75.1846901295592
75.2343231233162
75.3070471334408
75.4026646814545
75.5175550197621
75.6475455419761
75.7884264708025
75.9359360237968
76.0857502148202
76.2334774404966
76.3746580392853
76.5047690262362
76.6192341973393
76.713439761816
76.7827555972051
76.8228820308337
76.8334264421194
76.8166256870349
76.7748202995903
76.7103926905901
76.625752518355
76.5233234298919
76.4055312643909
76.2747937785481
76.1335119243117
75.9840626846758
75.8287934523166
75.6700179192871
75.5099035386764
75.3501012711432
75.1921029600192
75.0373755524791
74.887362226277
74.7434840604938
74.6071422320656
74.4797207194321
74.3625894986601
74.2571082221379
74.1646303753526
74.0865079133804
74.0240963855422
73.9785230299594
73.9499817514988
73.9384517393749
73.9439356449966
73.9664596125115
74.0060733905674
74.0628505260819
74.1368886413436
74.2283097963198
74.3372609386079
74.4639144440683
74.608468751799
74.7711458299759
74.9508777622845
75.1432532497776
75.3432607728142
75.5457866367806
75.7456073607776
75.9373891058215
76.1156945379242
76.2749975065518
76.4097058577756
76.5141925902241
76.5828353983708
76.6100644315903
76.5908791736797
76.5266984588772
76.4235874424279
76.2877781416876
76.1255123072023
75.942994063621
75.746352857419
75.5416166625199
75.3346951802221
75.1313726264474
74.9373096238955
74.758053703998
74.599057967676
74.4651636905321
74.3564642180238
74.2706755114803
74.205558179157
74.1589247087885
74.1286280219701
74.1125514474717
74.1086000227677
74.1146930563545
74.1287579030589
74.148724920903
74.1725235914388
74.1980797959713
74.2237095892133
74.2505337253984
74.2808929499857
74.317141241419
74.361643949443
74.4167823023207
74.484959457659
74.5686081410648
74.6701999356161
74.7922563087252
74.9373614918996
75.1081773638982
75.3074602828894
75.5368613237261
75.7940591517632
76.0758734744707
76.3790701784845
76.7003399498709
77.0362793693728
77.3833746071847
77.7379879103371
78.0963471366917
78.4545386416267
78.8085038648734
79.1540399932955
79.4869354197514
79.8034876577148
80.1000950380991
80.3730853445189
80.6187342641457
80.8332874819123
81.0129863625093
81.154097112101
81.2529432080182
81.3059407704871
81.3096364290615
81.2607502982156
81.158517740143
81.0087320979276
80.8183669721585
80.5944081686249
80.3437915930225
80.0733533745134
79.7897921927594
79.4996434738841
79.2092649021649
78.9248325619285
78.6523469708112
78.3976482823239
78.165379687718
77.9539426761004
77.7595837262003
77.5786421231925
77.4075384953122
77.2427638226834
77.0808718200511
76.9184745229882
76.7522409313344
76.5788985756272
76.3952378731366
76.1981191307576
75.9845001676487
75.75361038778
75.508933836476
75.2543685617218
74.9937229522364
74.7307085535852
74.4689367550433
74.2119190989689
73.9630709614715
73.7257183644036
73.5031077022962
73.2984182021718
73.1147769778674
72.9552762743296
72.8224914254419
72.7174954223592
72.6411229009659
72.5942659536559
72.5778816642178
72.5930002726158
72.6407340733316
72.7222871662932
72.8389661975756
72.9921922485957
73.1835140581705
73.4146227924373
73.6873682227207
74.0018387261905
74.351749624702
74.7293066482598
75.1264460724593
75.5347782155724
75.9455477779917
76.3496129552187
76.7374455888052
77.0991547687302
77.4245362219942
77.7031494701343
77.9244240724043
78.0789941422602
78.1681301868087
78.1988441761421
78.1785008544668
78.1146701897524
78.0150362290549
77.88731981378
77.7392161680166
77.5783478035262
77.4122327342688
77.2482676700115
77.0937256627913
76.9557320714911
76.8381176096555
76.7389872735539
76.6559041621531
76.5864737903268
76.5283348466203
76.4791515163492
76.4366073029177
76.3984002984116
76.3622398686347
76.3258447280645
76.2869423868705
76.2432699552973
76.1930975228064
76.1403221186626
76.0922424207926
76.0561703667881
76.0393982431432
76.0492287774654
76.0930193043677
76.1782403924359
76.3125497407481
76.5038827089391
76.7605615596794
77.091426406554
77.5058959108257
78.0054300185051
78.5760717114004
79.2016888320237
79.865271345852
80.5487018906284
81.2325963667903
81.8962281254756
82.5175521008976
83.0733462631094
83.5394863763032
83.8913655673539
84.1080754513538
84.1928104741193
84.1592931056638
84.0223031363278
83.7972688100197
83.4999225039295
83.146008786846
82.751050817353
82.3301770120403
81.8980067725208
81.4685918854545
81.0554089709763
80.6688512997974
80.3088456011286
79.9728506497597
79.6584389764526
79.3632831857048
79.0851440633334
78.8218602928119
78.5713396286261
78.3315513992172
78.1005202321288
77.8763209103708
77.6570742822718
77.4410296789603
77.2276299543207
77.0171577108396
76.8099075669468
76.6061678759569
76.4062210387065
76.2103438329823
76.0188077587923
75.8318793986474
75.6498207921425
75.4728898242406
75.301340626789
75.1354239929145
74.9756129619075
74.8238172721577
74.6824884054599
74.5540486197429
74.4408973624755
74.3454206174348
74.2700017457988
74.2170338460444
74.1889336887719
74.1881573187871
74.2172174582509
74.2787028924238
74.375300074838
74.5085146424667
74.6736607853359
74.8641430806863
75.0732870791242
75.2942990570943
75.5202370701476
75.7439942348545
75.9582949648836
76.1557049750264
76.3286558501283
76.4694848419945
76.5704902958804
76.6241463184915
76.6284274739529
76.5883638309145
76.5095775168861
76.3977745228303
76.2586919164464
76.0980533736361
75.9215333435319
75.7347299124088
75.543146236022
75.3521802697733
75.1671224402042
74.9931608664446
74.8351627526408
74.6943977001217
74.5693830507173
74.458601927329
74.3605715122089
74.2738377208503
74.1969705282576
74.1285599091631
74.0672123611503
74.0115479858819
73.9601981088321
73.9118034221693
73.8650126387902
73.8186412436922
73.7739558396736
73.7341284396625
73.7023696450493
73.6818831141965
73.6758739962947
73.6875601586053
73.7201862554204
73.7770407337295
73.8614759286603
73.9769314725731
74.1269613271995
74.3152648512192
74.5452053020715
74.8147327816934
75.1183972138857
75.4506071804555
75.8056278090034
76.1775380810084
76.5601962803004
76.9472142985772
77.3319417328088
77.7074608730258
78.0665937754909
78.4019226303061
78.7059618962288
78.9747755499321
79.2084638523438
79.4074412061138
79.5722329235267
79.7034696780717
79.8018813324943
79.8682902385875
79.9036041069798
79.908808546185
79.8849593693057
79.8331747641787
79.7546270767011
79.6505245902138
79.5221020910469
79.370625478981
79.1973853601479
79.0036902070271
78.7908598606122
78.5602194134868
78.3130935044903
78.0508010479039
77.7746504127743
77.4859350612034
77.1859296482412
76.8762465555371
76.5598890799928
76.2401263520677
75.9201244049968
75.6029457236172
75.2915513433999
74.9888052840215
74.6974811161158
74.4202704808682
74.1597934087314
73.9186103148522
73.699235584138
73.5041526978981
73.3350445354336
73.1898291218988
73.0653670278373
72.9585973264401
72.8665218039805
72.7861916779208
72.7146968904669
72.6491578535534
72.5867195539815
72.5245479515111
72.4598286187148
72.3897675797581
72.3115943063033
72.2227648907701
72.1231540334091
72.0142253997391
71.8974619737976
71.7743341013104
71.6462966944564
71.5147870512317
71.3812232749279
71.2470032761647
71.1135043378815
70.9820832226493
70.8540768015406
70.7308031845389
70.6135632593502
70.5032775134524
70.3996492723125
70.3021389121079
70.2102156802751
70.1233568136428
70.0410467448015
69.9627763928797
69.8880425353858
69.8163472582031
69.7471974811978
69.6801045572159
69.6145839425187
69.5501549369267
69.4863396078764
69.4225567584446
69.3580224230186
69.2919347600015
69.2234982227764
69.1519239939049
69.0764305969611
68.9962446813641
68.9106019749286
68.8187483980591
68.7199413325873
68.6134510371978
68.4985622002238
68.3745756193455
68.2408136775654
68.097535050451
67.9471122680816
67.7921787232623
67.635323720267
67.4790902849375
67.3259749368996
67.1784293332807
67.0388636962941
66.9096519455919
66.7931384699116
66.6916464908562
66.6074879944223
66.5429752330211
66.5004338323276
66.4818977320591
66.486660980266
66.5126324990111
66.5577462058864
66.6199602416677
66.6972457212878
66.7875767814878
66.8889218737973
66.9992362756659
67.1164558134553
67.238491808802
67.3632272746566
67.4885143990778
67.6121733634665
67.7320493891088
67.8469526078332
67.9565266318805
68.0604404018895
68.1583620367992
68.2499593666391
68.3349004976473
68.4128544089143
68.4834915795251
68.546484644931
68.6015090810376
68.6482439142449
68.6863724554154
68.7155830554887
68.7355925999211
68.7464732301358
68.7485773486074
68.7422716334479
68.7279288480105
68.7059269521548
68.6766482453484
68.640478544506
68.5978063991035
68.5490223457449
68.4945182040132
68.4346864151018
68.3699194244018
68.3006091089231
68.2272232348361
68.151759440763
68.0776076880143
68.0081812763033
67.9468669469373
67.897031355208
67.8620308631619
67.8452246367321
67.8499910789487
67.8797476926714
67.9379745429143
68.0282415820584
68.154240213746
68.3198196069118
68.5288277641457
68.7807044701442
69.0703310392437
69.392325626586
69.7411834987783
70.1112255090883
70.4965545272134
70.8910204605671
71.2881947968857
71.6813558398475
72.0634859875352
72.427282500791
72.7651832043599
73.0694710160118
73.3357855875746
73.5650996221912
73.7589853164877
73.9191658565001
74.0474983126942
74.1459564520599
74.2166137672491
74.2616269951028
74.283220365596
74.2836707886861
74.2652941521602
74.2304328695949
74.1814554057075
74.1211333065317
74.0527394921663
73.9795629602231
73.9048699433824
73.831901190174
73.7638721148109
73.7039757587547
73.6553885125721
73.6212785626169
73.6048170528754
73.6091919878824
73.6376249481883
73.6933617020583
73.7784051218347
73.8930074003799
74.0373572851414
74.2117152962783
74.4164151195993
74.6518654488186
74.9185522970238
75.2170418027926
75.5479835623986
75.912114526127
76.3102635040186
76.7433563345188
77.2110777087083
77.7052011439273
78.2141873069003
78.7258831476702
79.2274882857085
79.7055570511856
80.1460454886846
80.5344085311683
80.8557515979914
81.0950390726084
81.2373594071621
81.2682440393209
81.1790910808125
80.9790999387209
80.681691982299
80.3006927534738
79.8500373591375
79.3435209974281
78.7945982794738
78.2162318588296
77.6207884370042
77.0199785081531
76.4248351957872
75.8457271276929
75.2923178849411
74.7691851661187
74.2739287701667
73.8037434891256
73.3559818039326
72.9281368187079
72.5178275586677
72.1227863537153
71.74084807289
71.3699410101909
71.0080792511846
70.6533563733265
70.3039403519416
69.9580695590303
69.614225042507
69.2736087536876
68.939438965976
68.6148648647188
68.3029188136623
68.0065278475735
67.7285274520393
67.4716774446671
67.2386798281329
67.0321985467081
66.8548811439031
66.7093823901688
66.5983900272167
66.5246528611629
66.4910067420588
66.4984905829537
66.5434324350927
66.6215185101823
66.7285020542936
66.8601631061171
67.0122738219029
67.1805691114589
67.3607225023033
67.5483272934623
67.738883177973
67.9277886035719
68.110339202503
68.2817326509444
68.4370820503764
68.5726978229821
68.6883713777351
68.7845306505452
68.8616440437538
68.9202175990081
68.9607920797976
68.9839399915385
68.9902625662696
68.9803867378965
68.9549621325271
68.9146580968325
68.8601607855696
68.7921703274794
68.7113985237813
68.6187406522665
68.515536235479
68.4031882805989
68.2830903951789
68.1566234689699
68.0251529386095
67.8900266251009
67.7525731299697
67.6141007729484
67.4758970519697
67.3392286050891
67.2053416536516
67.0754629064975
66.950800906213
66.8324747529536
66.7210733127754
66.6169579640748
66.5204886366825
66.4320255790672
66.3519302634637
66.2805663317495
66.2183005844419
66.1655040156544
66.1225528973559
66.0898299168101
66.0677253716545
66.0566384277061
66.0569784452669
66.0691613140289
66.0931569287221
66.1281282620336
66.1731613708234
66.2273469823124
66.2897778149966
66.3595461530805
66.4357416687929
66.5174494896297
66.6037485099518
66.6937099484767
66.7863961550416
66.8808596715776
66.9761425535233
67.0712759589016
67.1653734763604
67.2579505858361
67.3486310261504
67.4370348757661
67.522778769598
67.6054761638882
67.6847376468333
67.7601712956433
67.8313830805543
67.897977316137
67.9595571600359
68.0157251590443
68.0660838421693
68.1102363600615
68.1479626077107
68.1800705988945
68.2077459970992
68.2321809492129
68.2545722352453
68.2761203438373
68.2980289671249
68.3215049183874
68.3477584754801
68.3780041532518
68.4134619089819
68.4553587863556
68.5049310056424
68.5634265105774
68.6317302048921
68.7085306251905
68.7917089726464
68.8791289091712
68.9686342816624
69.0580470685594
69.1451666804701
69.2277706512216
69.303616755869
69.3704465885747
69.4259906256769
69.4679747875698
69.4941284971543
69.5021945278364
69.4914865327042
69.4664782232934
69.432714075051
69.3957273743544
69.3610307006569
69.3341152059013
69.3204586098441
69.3255418542064
69.3548744405305
69.414028616454
69.5086827749496
69.6446746960335
69.8280655998592
70.065107859138
70.3563393416926
70.6932561239351
71.0664192922276
71.4660873971762
71.8821223891647
72.3039211564976
72.720375613133
73.1198650164332
73.4902845784764
73.8191143759136
74.0935319638956
74.3005708696989
74.4276313888572
74.4720699829799
74.4431218447267
74.351115119918
74.2066344054172
74.0203586427764
73.8029282118342
73.5648427927227
73.3163901666417
73.0676050981389
72.828256790867
72.6078631151017
72.4157298346748
72.2610036366816
72.1488717464566
72.0747726769816
72.0327858819452
72.0171146294251
72.0220390932271
72.0418791005855
72.0709660949661
72.1036240919982
72.1341595630414
72.1568602774635
72.1660031720835
72.1558712939627
72.1207797802133
72.0564405918538
71.9671961709582
71.8607751596899
71.7448581751583
71.6270412576964
71.5148241674225
71.4156145979361
71.3367478060974
71.2855212631767
71.2692441693099
71.2953020372103
71.3712370463284
71.504845508767
71.7040328692024
71.9689074359602
72.2900634619084
72.65745071151
73.0607754891211
73.489374715389
73.9321174714942
74.3773366565954
74.8127945246011
75.2256866285555
75.6026890071045
75.9300531788501
76.1937525444759
76.3818061857289
76.4961348982039
76.5445658504427
76.5353527878065
76.4770288314928
76.3782878436417
76.247883530219
76.0945478774655
75.9269296597115
75.7535530749685
75.5827960760164
75.422887670235
75.281921909808
75.165613261095
75.0727651533716
75.0009424908571
74.9477658791531
74.9108991411159
74.8880384784265
74.8769031774207
74.8752277846324
74.8807556999031
74.8912341532462
74.9044105462392
74.9180301497249
74.929863595509
74.9402543624902
74.9541409666563
74.9769451849087
75.0141065595274
75.0710992948685
75.1534572095952
75.2668070199084
75.416910411372
75.6097155980781
75.8514193775644
76.1485410824692
76.5080103264231
76.9357403891046
77.4247074380698
77.9607245503181
78.5288845171359
79.1134450723463
79.6977132350011
80.263993829462
80.7936129008008
81.2670272770867
81.6640305054125
81.9640624325949
82.1466259427688
82.1987084218175
82.1312882914961
81.9611002134682
81.7054662158529
81.3819074162666
81.0078258716039
80.6002618004614
80.1757264962292
79.7501076728161
79.3386417840828
78.9559469231918
78.6161100614729
78.3306736807744
78.097263140486
77.9083317232238
77.7566209666484
77.635098965939
77.5368996803177
77.4552756557116
77.3835632440348
77.3151597093477
77.2435118244297
77.1621156866541
77.0645275247131
76.9445034796813
76.801247334157
76.6413909321711
76.4720277514293
76.3001402973359
76.1325897674396
75.976118304438
75.8373632812069
75.7228831271213
75.6391943561747
75.592819689051
75.590347472057
75.6385029895342
75.7434364952436
75.9029769082879
76.1098625435979
76.3567848202926
76.636375531654
76.9411332262604
77.2633632131341
77.5951316887269
77.9282349383264
78.2541849099702
78.5642126795019
78.8492913985763
79.1004385645913
79.3137098219093
79.4899856610466
79.6304566103112
79.736435047042
79.8093429039651
79.8506991196253
79.8621070204211
79.8452418093246
79.8018383212813
79.7336791882314
79.6425835383377
79.5303634849886
79.397971247566
79.2454326102665
79.0727584972683
78.8799931503126
78.6672142168365
78.4345327018578
78.1820927829202
77.9100714884528
77.6186782409451
77.3081542673729
76.9787718803309
76.6308336343025
76.2655540194105
75.8883587087607
75.5057471239063
75.1239729807258
74.7490432505581
74.3867273067384
74.0425749863632
73.7219426692952
73.430026633335
73.1719031411148
72.9525749445929
72.7770241544831
72.6502717157687
72.5768198120255
72.5553158574522
72.5812492641071
72.6502576969305
72.7581097296272
72.9006563005048
73.0737876757617
73.2733953845828
73.495338790982
73.7354161405635
73.9893400708484
74.2527177040364
74.5210355518301
74.7898111822453
75.0554790955124
75.3147909206618
75.564413829139
75.8009358132915
76.0208751488877
76.2206931707246
76.3968104684932
76.5456265550844
76.663542990292
76.7469898598376
76.792455413983
76.7965770980255
76.7593768046197
76.6859133144353
76.5817250646825
76.4523751229095
76.3034112471679
76.1403340530325
75.9685733225228
75.7934723229272
75.6202798867392
75.4541499359431
75.3001481118625
75.1632651921529
75.0481266166584
74.9539336637526
74.8753541349104
74.8069790681354
74.7434505210281
74.6794507054696
74.6096987833198
74.5289551728267
74.4320332128785
74.3138179858706
74.1692920119897
73.9935674012897
73.7819238898043
73.5302049803512
73.2414858427328
72.9252632815839
72.5910419617773
72.2480351284814
71.9051344998652
71.5709033005596
71.2535903859996
70.9611634777653
70.7013597947749
70.4817527914927
70.3098342783102
70.1931118895055
70.1392226842703
70.1545763049446
70.2363798250001
70.378386419795
70.5745672522472
70.8190192872125
71.1058752160015
71.4292235137434
71.7830378267759
72.1611154289366
72.5570249647629
72.9640641224539
73.3752282499424
73.7831912358832
74.1809364635199
74.5652930647853
74.9346379959153
75.2873192285552
75.6216577065752
75.9359540956874
76.2284963276676
76.4975679257723
76.7414570838915
76.9584664567002
77.1469236018246
77.3051919981201
77.4317023893563
77.5255710038056
77.5867274943033
77.6152276021705
77.6112103306571
77.5748966290397
77.5065875707972
77.4066620496586
77.2755740225547
77.1138493331777
76.922082153907
76.7009310872085
76.451114970258
76.1742762954402
75.8771093849008
75.5679587682933
75.2549290202171
74.945867789532
74.648368410955
74.3697881701154
74.1172809516264
73.8978432307588
73.7183727045239
73.58573928658
73.5068687097241
73.4888395969739
73.5377148692595
73.6508113693029
73.8217919748867
74.0444739083489
74.3127488462506
74.6204983025959
74.9615189639216
75.3294575067106
75.7177549271005
76.1196008530114
76.5278986925647
76.9352427952567
77.3340096463756
77.720868864166
78.0988236593337
78.4714928767344
78.8426452629089
79.216197993371
79.5962189222471
79.9869329477043
80.3927329128978
80.8181955085865
81.2681027139759
81.7474694114182
82.2611117647932
82.8084256969286
83.3849747672798
83.9860240733688
84.6065686024664
85.2412998334018
85.8845775716998
86.5304080256259
87.1724293019046
87.8039056421283
88.4177318210233
89.0064177949098
89.5619219974799
90.0758115024689
90.5394179442748
90.943918045578
91.2804316657299
91.5401373034261
91.7144037681352
91.7949357863639
91.7739302968722
91.6444215262459
91.4103689657693
91.0915279355607
90.7089254274571
90.2832565685224
89.834651693754
89.38253883432
88.9455953539847
88.5417808636689
88.1884435326942
87.902493235887
87.7002227831365
87.5825244716085
87.5309700723267
87.5262879400253
87.5494145667702
87.5813317104127
87.6029868080837
87.5952961839644
87.5392312588874
87.4159871528956
87.2072307587223
86.8957064274116
86.4780961177394
85.9695372353585
85.3864637193677
84.7449862529199
84.0606648026822
83.3483444783782
82.6220506607823
81.8949374579202
81.1792825914003
80.4865216265277
79.8273148635327
79.2116281447119
78.6477116443927
78.1414177052873
77.6982401703904
77.3236329640555
77.0231167842223
76.8023939248687
76.6674734679107
76.6248099202111
76.6814593834338
76.8452586143371
77.1250339739337
77.5308494344526
78.0706728379902
78.7345056700578
79.5060659476678
80.3684447813035
81.303607956009
82.2919485784747
83.3119050599693
84.3396638591343
85.3489749181949
86.3111148365923
87.1950372328214
87.9724531340524
88.6393700011006
89.2011492809924
89.6644251421828
90.036934719182
90.3273454291374
90.5450823657145
90.7001630339564
90.8030455714117
90.8644953565756
90.8953800408208
90.9014575011719
90.8806723300556
90.8303676813253
90.7479527404501
90.6309204354034
90.476866128159
90.2835070399998
90.0487021269382
89.7704720876693
89.4470191572516
89.0770831025601
88.6647282614386
88.2179927111968
87.7448228380838
87.2529149484336
86.7496805351442
86.242225398505
85.7373414139544
85.2415096620721
84.7609136456729
84.3014613990373
83.868811195855
83.4667301866326
83.0946675954429
82.7514853214375
82.4361247593673
82.1476006240242
81.8849953469656
81.6474539838673
81.4341795782376
81.2444289336313
81.0775087520545
80.9327721010881
80.8096100865874
80.7069943421629
80.6231196522725
80.5561381696449
80.5042365393241
80.4656287535608
80.4385498883922
80.4212506764594
80.4119928817056
80.4090454509724
80.4106814253099
80.4151756001383
80.4208029283201
80.4258376637547
80.4285532453195
80.4272229218593
80.4201211184644
80.4055255424856
80.3817200246062
80.34699808585
80.2996672156806
80.2380538394008
