Value(μV)
-34.7475171883439
-25.8447200366889
-23.1558647097387
-24.8325428299469
-26.339467719095
-24.5170493822604
-19.852987978793
-15.0627521782789
-11.8896650557667
-9.57154139976278
-6.252824458356
-1.3689571675309
3.72279318840015
7.29510915673552
8.93583179340426
9.45713224345509
9.43621254875926
8.37774203548052
5.53612477641122
1.29509058300758
-2.65772403430541
-4.5989312001448
-3.99600180719387
-1.38858887487312
2.65530889184283
8.05297432005599
14.6199559145169
21.3607297339454
26.7893125270147
30.0439047951883
31.4602757492357
31.9077675322775
31.7372728105546
30.6297179486395
28.4059316844996
25.5879294803705
22.8679762905931
20.165679066558
16.6009760987198
11.5670461340046
5.60714500337048
-0.049257998384773
-4.76954845367791
-9.04282812189337
-13.6241242828236
-18.4483129986888
-22.754661405897
-26.2564285488611
-29.7612816095833
-34.3033350044016
-39.799483141312
-44.9556282721296
-48.6238602941946
-50.962279033342
-52.9813892849894
-55.1240883400422
-56.7602663329573
-57.2472778310454
-57.0938712416441
-57.5656197557535
-59.1191591789046
-60.6858686371344
-60.8237169791794
-59.3367927376841
-57.3011652587998
-55.494124755777
-53.3504070660251
-49.8945656480529
-45.4050817607458
-41.4357323281591
-38.9316611951591
-36.8723416014917
-33.4547561187093
-28.5441130957507
-24.1829438335457
-22.1739758243439
-21.5823584566489
-19.4465337000154
-14.1024290780666
-7.06772697397947
-1.02680049269932
3.57529437380938
8.78459598306793
15.5467153365256
20.7295442794033
18.9318495598843
7.41108320552875
-11.7017487031615
-34.5659570943237
-59.8885027139285
-88.1739466200018
-116.175992324043
-133.669957645952
-127.956529793953
-92.255476779524
-28.5348444503579
58.7615053477177
170.22396024262
309.40011281071
470.832316853325
630.72875671256
752.536930603466
805.116168709739
777.807327531343
679.579673453942
525.802109977231
328.082928160547
97.1915452613954
-146.980085884804
-372.838418246509
-548.01372024749
-654.865034502767
-696.62119757204
-689.864428574318
-651.864669733884
-593.780719016678
-522.334334038168
-444.100864062643
-366.569734278135
-295.977489809483
-235.346108521121
-184.239584275187
-139.08183172323
-93.7179069566145
-42.0149989578571
17.1147892441074
76.2439653264733
122.523057549983
146.676965338085
150.268750168639
143.970682989486
138.245640195641
135.669331273346
132.144320331295
124.489085493974
115.357008090888
110.341142012228
111.454034795222
114.933488107933
115.60826952842
112.253584676794
107.775362437133
104.75905659117
102.308989638708
97.8526170115411
91.0873244924039
84.7975747731128
81.5731954272215
80.7006654842744
79.0944036620327
74.9379284778933
69.4739855818422
64.9998095221707
61.9351712462643
58.6898527638933
54.1818988529231
49.4753076688712
46.3817207686951
44.9579540748371
43.2291570491459
39.4969883698517
34.2639419054546
29.4109489456742
25.8567506887217
22.7623509144583
19.1489403171538
15.5940919886729
13.6609770354093
13.7992059948404
14.5102899264427
13.9294095059873
11.8491307638834
9.68364980703236
8.55697219162423
8.0428701901716
7.08822071018204
5.72869689311471
5.21714824431292
6.35747752639176
8.24749249482984
9.12256852514444
8.27504961753041
6.6682826188214
5.5852248491596
5.14291537979701
4.53899435100443
3.53337537557903
3.06867910100979
4.15523280589657
6.49947154405013
8.71416996344343
9.87942613653839
10.4795767016099
11.5887930679669
13.4459248428306
15.2596375558495
16.3680780656319
17.0831694496923
18.0485145189503
19.008432107379
18.7289086363694
16.3026735682969
12.2253328067384
7.89825369260144
4.23192914056337
1.12085733155633
-1.68292634434888
-3.66185044937038
-3.96280815711666
-2.66473013640239
-1.15043352727616
-0.93524368071637
-2.30453829062428
-4.38869884813533
-6.47690271634636
-8.82765985126405
-11.9839319119746
-15.6312623510185
-18.654760366662
-20.4358163741975
-21.7189044709041
-23.8505638662703
-27.2621390202154
-31.0459266071446
-34.0866300677192
-36.2588530881294
-38.2032606429544
-40.1025259292608
-41.1761342294062
-40.6213716032775
-38.7801169654179
-36.9728824440098
-36.1471306949357
-36.0017342909957
-35.6180784952933
-34.7099800868886
-33.8992181951759
-33.7877724692709
-34.1769788398532
-34.5064392032879
-34.8816966655549
-36.2332163986879
-39.2963245231774
-43.6799072579761
-48.2003532724634
-52.0288745558341
-55.1985135482413
-57.9446926693504
-59.9343219360575
-60.5453914727337
-59.8605194016517
-58.9695654962004
-59.0108586669511
-60.0428381804011
-61.1182381895034
-61.4280667732877
-61.0527089706843
-60.4428871566102
-59.4673258155972
-57.4275918655437
-54.1013743603445
-50.4158629884216
-47.7386090173675
-46.5407180589255
-46.0298891478215
-45.1488328332589
-43.6388060867973
-41.8740157314478
-39.8435382316919
-36.7799124096555
-32.0334417329135
-26.070581436218
-20.2236679803923
-15.3957010854512
-11.2769113272373
-6.99014666588195
-2.2806415816942
2.26142665821327
6.12753350521919
9.63684221098899
13.4596329914874
17.5536112977717
20.9794533185531
22.9397027501747
23.7815377404436
24.7199892460096
26.6461905825067
29.4873164840381
32.7801063261638
36.5184851919893
41.0549944657581
46.2015156477777
50.8283697644524
53.6525105996367
54.3445423527863
53.6419875562732
52.4100910758528
50.8781904032317
48.9247110032531
46.8170077304382
45.2261160560218
44.4033507305818
43.6516744474302
41.9270708604711
38.9269066982419
35.3430806130763
32.0151812489978
29.1249233445215
26.4521687991853
24.224354639585
23.246165614019
23.9693573848233
25.6777583998284
26.9541341834336
26.9845919750855
26.1309846005785
25.0891643464218
23.7527594486139
21.2737016420819
17.2353011173051
12.3705157339808
7.82621508528491
3.88706030027506
-0.164710632097334
-4.80202086125271
-9.17146162239551
-11.5794539040498
-11.0075283866402
-7.86006159537575
-3.16086358558269
2.63440553687443
9.66334955506376
17.599945163457
25.0669115042568
30.4666639801752
33.3169772462872
34.4922099187475
35.1341312354085
35.6109172925988
35.6969556308147
35.4721346807857
35.5460819650928
36.2449776958917
36.9126373207346
36.4071587434366
34.2975992480579
31.2924949077704
28.3825659894692
25.8139958125994
23.1709177749082
20.3323164976183
17.9024367376725
16.4551796862572
15.5948618079841
14.1828119419543
11.6011319525148
8.54053171895612
6.34074980515999
5.70219272397933
6.31436673459891
7.69351055611492
9.95859877622797
13.447649430592
17.7169965267516
21.3698116581878
23.1142674294418
22.8362688462854
21.4214161168901
19.6387508376755
17.5261511230775
14.9380783499223
12.315911933247
10.4755467771657
9.6165377366913
8.91660973258307
7.38249146941761
4.97084423443746
2.58632709164141
0.987194784098762
0.0216404544982112
-0.864457778002141
-1.6279126404031
-1.57778575854727
-0.416521587350736
1.02303142270384
1.43871971371208
0.412422565748273
-1.19470077315092
-2.27561575180613
-2.62128879557969
-2.7856709718368
-3.00308315283318
-2.72154200977123
-1.43679392607433
0.294368958219842
1.09592879666783
0.0843281422807678
-2.35022211715903
-5.22163971053142
-8.13705016610633
-11.4485950139479
-15.2758567461115
-18.8526984800845
-21.199214888515
-22.26836134516
-22.9800170238837
-23.9855966908913
-24.7324881867946
-24.080434591448
-21.7085407630579
-18.4907529878526
-15.3613605381011
-12.2047861075756
-8.29833415275985
-3.75431686240647
0.016869778981544
1.61491118277431
1.19268754202038
0.27782247912813
0.0361292177715988
0.106963207596813
-0.602538291439672
-2.29276330802555
-3.97695506107599
-4.88409150229876
-5.65212979564079
-7.63346038188978
-11.0888871208745
-14.532599846476
-16.0674456355154
-15.0648009842118
-12.2087837195693
-8.11667849049574
-2.54706895579146
4.72943700315975
12.6822857906093
19.2735058752335
23.1058751769799
24.4604686262128
24.46345931997
23.5436220437417
21.2055510204321
17.2875864321869
12.8019948103043
9.00209979069696
5.80325248383626
1.73808573124412
-4.28645784894048
-11.5847975150825
-18.4562258115478
-24.1528285350743
-29.497063832307
-35.3608563523943
-41.0822710415011
-45.0446268168625
-46.7783539094742
-47.8120957315063
-50.0039979747987
-53.3676365824507
-56.1588570937212
-57.1207981083236
-56.985736684459
-57.3062603915074
-58.219627033765
-58.1907825887321
-56.1586509591017
-53.2387483888687
-51.5982074344487
-51.8259888752168
-52.2031396188474
-50.8775221939885
-48.1269118717659
-45.7331149320705
-44.3248028403788
-42.3369566082694
-38.1493449749287
-32.6232128227248
-28.4809495769833
-27.0560700072417
-26.6171801374606
-24.6771877726208
-21.4653166296937
-19.9133414286332
-21.8307011654472
-25.0649797992319
-25.548044391026
-21.9658760246669
-17.1935120866351
-14.5502080872896
-13.6443765729715
-11.3633722889547
-7.00131524659887
-4.85604579850906
-10.46463077415
-24.806363616569
-43.7953138339043
-63.8155655496513
-85.9234902322128
-112.425727346659
-139.323490803444
-154.447370362099
-145.136255158241
-107.425134484446
-45.7384695814498
36.9995095764911
146.400125015015
289.897457079471
460.853550381666
630.267338374843
757.117981053819
809.890735388998
780.550322873937
680.325027507594
524.971118981397
325.900140078224
94.4322910375837
-149.043329477033
-374.005531857991
-550.182463442714
-660.555721390052
-706.230943206898
-700.833027771717
-660.695817787397
-598.195129964261
-520.807916583211
-434.046980171539
-345.054217405798
-263.863066249431
-200.305372946149
-157.515903651022
-127.313054539655
-93.6352459076801
-44.0998628483006
19.0891056152494
79.4478644677381
118.91928952022
131.956119184379
128.040891133695
121.079235199291
117.09883430716
112.377662416934
102.092199214119
88.4707998751602
79.3389243623583
79.7306493622121
86.8555473115575
93.8698183241613
97.2723505876743
99.1628368449069
102.598765794693
106.644202008318
107.341583769705
102.94281371002
96.4980118571318
92.5396086192459
92.0700923895959
91.9511303420532
89.1156735944631
84.1911945190638
80.2615826551088
78.7366281395645
77.6531982862931
74.3113302494251
68.6597598525741
63.1976591172991
59.7827860877544
57.5137747655098
54.1742674457223
49.104558922173
43.7947230212205
39.6978515252094
36.3380857476388
32.173579970469
26.9344999923184
22.2764699386785
19.8903149076323
19.5273524936808
19.4256469585653
18.4741780118482
17.3057835403313
17.0560465804366
17.5927126870414
17.5934797643873
16.313149793042
14.6552954935646
14.122941157542
15.0092294642981
16.1334500875057
16.3757596552185
15.9707001203877
15.9462235576882
16.5769224349597
16.9613057728419
16.2669238596476
14.949524861864
14.2903369297386
14.8134628613662
15.6101420073685
15.4177387923162
14.0563204953721
12.4314852322457
11.2206328111704
10.0419170516643
8.19782919526498
5.97353864406326
4.72792523541165
5.57757447062166
8.28019588707886
11.6516979591803
14.9066285565073
18.2227995857021
21.9390847189956
25.5842864423154
28.0846620992862
28.8915173121926
28.5555474654648
28.0092404546712
27.4862503206515
26.4253676362412
24.3881564042613
21.7330177022681
19.1875539246294
16.9490816052474
14.5356837627196
11.5675530533039
8.40614642388278
5.77483848211246
3.84173249917915
1.95679246382742
-0.62093956385032
-3.94597832034497
-7.52338957767286
-11.1005327078408
-15.0134934964664
-19.6213485912725
-24.601986914153
-29.0847334465987
-32.5033057799712
-35.1132276253503
-37.5546032185494
-40.0622641955045
-42.3320012982152
-44.1438030026956
-45.8446282028269
-48.0123609375123
-50.7387189606366
-53.4892644718969
-55.7423051186809
-57.5874850931681
-59.5264124579298
-61.767027136711
-63.9489977359407
-65.6392003797611
-66.9040986037025
-68.171967890366
-69.5599763275435
-70.5752922909369
-70.624435099787
-69.7002811762635
-68.3649668200887
-67.0483669504135
-65.562448757255
-63.4431061683428
-60.6518203105983
-57.7075567802378
-55.0725257612817
-52.5971489070349
-49.7609151145748
-46.4183316891832
-43.10540059507
-40.5201963542997
-38.8305224111729
-37.6487081636163
-36.6369371993929
-35.9203191989799
-35.7889087787785
-36.1282499092195
-36.3663324606782
-36.0305808969443
-35.206512908367
-34.3274045322788
-33.5949719599808
-32.7790128224473
-31.6016707763238
-30.1285648933483
-28.6108631819203
-27.0016986128862
-24.844816450547
-21.7537635721659
-17.9000183837991
-13.8824551739455
-10.1387709022615
-6.64852898693825
-3.28251275941105
-0.285602472654416
1.811653659374
2.80209341708923
3.15781633503972
3.63031751220501
4.53582894260946
5.57469187133553
6.37138382889463
7.02771914203683
7.99341376425971
9.45165632930434
11.0427513438024
12.310671759798
13.3265448039413
14.7101027739892
17.0190009232357
20.2430347437679
23.9675907853192
27.9163699215935
32.1500477435481
36.7023790096915
41.1826351583725
44.8980248680549
47.3611791828972
48.5673001209494
48.7560150653941
48.0387361319985
46.3925431484737
43.9779009004688
41.2899141975003
38.8947111506369
37.0780347155714
35.847545020559
35.2358779409707
35.4369884370183
36.5500664651333
38.2751314564657
40.012436592293
41.2941671158343
42.0221848665115
42.2320941041743
41.7429798144847
40.221265756966
37.6287370921911
34.4657633583364
31.4285241804103
28.8420714643243
26.5433844509843
24.3327517414426
22.3858398666502
21.0727922476005
20.4171398981378
19.9304205614941
19.1028130833802
17.9795884844648
17.1068801617362
16.9005388203609
17.2080882945196
17.579416750511
17.858899954981
18.3155345028289
19.1427814633971
19.9901083455101
20.163453756851
19.2850488787596
17.6216163299192
15.7112488966365
13.7903012363317
11.7287256990606
9.4881320013133
7.44249437538607
6.11120969815659
5.64371473278057
5.71895542988599
5.97382454181616
6.39502928275432
7.18987354178527
8.35984536359342
9.58048212651769
10.5476591491324
11.3013431006275
12.0683764711376
12.8332651819306
13.2366112711581
12.9674938896204
12.132322409848
11.0851328704123
9.92111329506349
8.31461908843795
5.95431402883537
3.02770995832969
0.104217088403979
-2.46196302396859
-4.83483045672449
-7.28194372879199
-9.55745941720528
-10.9061482870064
-10.7510170562253
-9.24987137483816
-7.04986727914968
-4.57257555387821
-1.74356947250794
1.51510211512462
4.72089820103844
7.00024331539893
7.85452807102254
7.59935578452966
6.94392287106766
6.24803070085734
5.36846684135755
4.21046208979703
3.17713024789752
2.86233268281798
3.35442328989538
4.06484761617931
4.34043272960841
4.10801995072497
3.75392628912115
3.42672503840199
2.69195360739655
1.0003211159555
-1.63388327884326
-4.62348190777265
-7.47742969706225
-10.2769120007606
-13.342271803864
-16.5301079124274
-19.0837395399636
-20.2522249905502
-19.9210939757358
-18.5132760988622
-16.3698503965289
-13.4492880127868
-9.69260194209662
-5.48130199716133
-1.4991555929398
1.86831894039135
4.82279255364541
7.76029439491396
10.7219732615622
13.3909845574526
15.566171881943
17.3849930755787
18.9363361597392
19.8045610540355
19.2661475832922
17.0172810207691
13.5531450272297
9.7039794446279
5.90647199497589
2.13257079527107
-1.48620230172963
-4.26572532805763
-5.46723305411151
-5.14224800719101
-4.22555534363785
-3.66880036543278
-3.63786508382879
-3.74515417961436
-3.9629188940097
-4.96780001728359
-7.40078496893981
-10.9745248188425
-14.6231174813183
-17.5699487321649
-19.9736684002044
-22.3156847633299
-24.3191138030117
-24.8404103953972
-22.9620452901201
-18.9637337054291
-13.970608793063
-8.74640624975953
-3.17634743409113
2.93589072933629
8.87115639532568
13.2060429212886
15.084130938144
14.9974084743237
14.1100893393307
12.9859507413374
11.2932049273935
8.74236736164413
5.89593292199359
3.69385935303247
2.28889789838594
0.75977857813149
-1.84325994963927
-5.41951139898077
-9.0758129506347
-12.3564869654182
-15.8110602042922
-20.1523869482116
-25.1485068614436
-29.7751277795319
-33.4848220439145
-36.9157762507698
-41.035309229654
-45.7663338389409
-49.8810028234186
-52.3418184150389
-53.3880097416959
-53.9884526693082
-54.4255165125436
-53.9252399259304
-51.8574764666071
-48.9021320603799
-46.5487973101242
-45.4668537900507
-44.8111957957657
-43.3568021297544
-40.9833674852013
-38.5987793501018
-36.7027052930572
-34.6377154309444
-31.6350897217648
-28.2470266332851
-26.0959396887878
-26.0908279406213
-27.4274019803208
-28.7382176907335
-29.775438228386
-31.0675103636058
-31.7179765023304
-28.5106240465639
-18.4633118094431
-2.61585438514527
13.4560198361482
23.7116753094321
26.2881761202214
23.7496284032391
18.9337719216841
11.4627288834126
-1.04437830757426
-18.9652145716052
-39.2446189549451
-58.4679128951183
-76.3310185294829
-94.5945746421942
-112.348299545187
-123.481555218365
-119.87653427436
-96.605145658685
-52.5588929796416
14.2566350649794
109.827500373578
239.137097354418
395.845091533941
557.07788547542
690.259861382508
767.295835521242
774.394518092508
711.102540952704
583.42157520467
400.411045454841
177.083723277088
-62.6082575081201
-289.458481591384
-478.13507319975
-614.101156831236
-693.388137628586
-718.205099321515
-694.589798073527
-633.48722625569
-550.758467679137
-462.609732814034
-379.41671214846
-304.117830014407
-236.56097029234
-178.133000648822
-130.780099759544
-91.9459240335806
-53.0061809764807
-5.52464904920169
49.7393973342754
100.706281970632
132.229338967076
137.723041017981
123.696174837948
103.835783219618
89.065801036299
82.3981640156455
81.1564128914893
82.0338019386872
83.6189833229737
85.5899674710169
87.4212931568902
88.5669479754192
89.1989725162147
89.9227709233105
90.7971624696242
91.2381872469158
91.0945654929139
91.308868675881
92.9452517054948
95.6146083625496
97.3810798710995
96.5142228575416
93.1004641195017
88.6226739103184
84.1045734574907
79.1439068206144
72.9464822684767
65.9095322397266
59.6561076287518
55.4474721931185
52.9507094017536
50.8299868201691
48.3117867090791
45.7489738742067
43.629958563551
41.5067781899913
38.3310591028422
33.7654272198195
28.7399970704792
24.5095265696668
21.3969153487889
18.7710036191937
16.1852024722951
14.1411352320192
13.5019778657343
14.36768515066
15.8980827365333
17.3018235584687
18.6941052930418
20.7206638749631
23.4511888191925
25.9675514760189
27.1611548697201
26.7339326835274
25.212098891115
23.0906982714213
20.2898328473473
16.5894759154183
12.373160451371
8.61757424638812
6.07724931269853
4.66073617820937
3.72729456555
2.85892912259572
2.13304734187884
1.6703406406168
1.20436219590512
0.326771646061199
-0.917230499423229
-1.92755276704012
-2.14974514362809
-1.65576596015497
-1.00142336957909
-0.5894297349147
-0.37356798227766
-0.233222653731716
-0.426817145468716
-1.4326541258956
-3.3336270498212
-5.5591945890929
-7.37752514454959
-8.57359224552088
-9.50723893763184
-10.5338360152534
-11.5599642318399
-12.2804118499975
-12.7210653171155
-13.3146913208322
-14.3754865751331
-15.6583600063981
-16.6043144800535
-16.9927379665715
-17.1956709486658
-17.7387073182023
-18.7467819780625
-19.9586915795654
-21.2180103083955
-22.7254283805417
-24.683346625772
-26.8087887077391
-28.4099252651198
-29.0140523279571
-28.8173481662773
-28.433397704523
-28.2837033509944
-28.3850747041473
-28.7302040537626
-29.6703006974118
-31.7166837556404
-34.9616968710214
-38.852738152189
-42.6413451333019
-45.9989886881005
-49.0993866985932
-52.1418382435432
-54.9596392893031
-57.1880535702722
-58.7163450071814
-59.7984749903279
-60.6727934588371
-61.1936335895099
-60.9586476805492
-59.7730154171279
-57.8725178599059
-55.6575310017347
-53.3110071857961
-50.7763294920183
-48.05621575258
-45.3695246348454
-42.9259271459633
-40.6276425107039
-38.1329351729292
-35.2450942686605
-32.1512861273017
-29.2158395394
-26.5989001653022
-24.1803022571073
-21.8497485821893
-19.7360183749723
-18.0374588227181
-16.6654852173656
-15.1931662088958
-13.2311099813508
-10.8036361138894
-8.28142495202198
-5.96908862623355
-3.85492976124083
-1.79171715746899
0.185177894395758
1.85240842141303
3.11781640353008
4.22794781973919
5.55745179652997
7.20964752130663
8.90316736268299
10.2633129295907
11.145902387016
11.6221729446491
11.7197621890376
11.3219011697115
10.3800678607572
9.13995918228645
8.03314541633041
7.31654237103273
6.8822708024483
6.45889904940678
5.93993393271742
5.43668347087764
5.03478075660203
4.62842345577025
4.09180784060078
3.57457893233733
3.50542875051891
4.23652641316994
5.72168675979784
7.59845529591349
9.55988753879935
11.5677802784338
13.6908860953989
15.8387481337309
17.7765336410538
19.4134264224215
20.9775866954966
22.8186393076078
25.0462315493508
27.4188526773285
29.5862307312201
31.3697181614509
32.766394366941
33.7525984506494
34.2145427807194
34.1277848682855
33.7391238737795
33.4752304882945
33.6503683500795
34.3045096219415
35.3300713670019
36.6760447046356
38.3456609653705
40.2163849636976
41.9763427136904
43.320946384358
44.1856034866232
44.7100135269044
44.9661521751006
44.7988919926267
43.994201281037
42.5637368930829
40.7744549649679
38.8806778594788
36.9109543127807
34.7965592196749
32.6721416051201
30.9268547391416
29.8847230790077
29.4760542620344
29.3011874912716
29.0155066924616
28.5751520115182
28.0748699760285
27.4369297662142
26.3928586874015
24.8023990646873
22.8943101470646
21.0931410216335
19.6175807473636
18.3265727939694
16.9744277976018
15.5261604394172
14.137747680349
12.8695668939526
11.5538746698639
10.0128969232001
8.32970790380182
6.78171658694794
5.49397142049008
4.26316339601374
2.80207971293044
1.10466509149546
-0.536553699338924
-1.871532739354
-2.9134278480914
-3.70666841711286
-3.93465247187669
-2.94189802398594
-0.26814976884009
3.87416033880743
8.73853899909705
13.6395556770147
18.3008642749672
22.5813295599304
26.0082610266531
27.8082722392318
27.497153301309
25.3526458028715
22.1849568604263
18.6420899051939
14.8237133479855
10.5718466000207
5.98347953392482
1.47675834268769
-2.63143803785193
-6.44354557930667
-10.2619640783873
-14.1116548067892
-17.6094319151595
-20.3207217148216
-22.1262578443719
-23.1578038063353
-23.4705484667751
-22.9612854816886
-21.6594430894469
-19.9512370805141
-18.3453625310153
-17.015116037039
-15.7074406421946
-14.1719634120723
-12.5758316271659
-11.3569824487709
-10.6949035815959
-10.310285511563
-9.91138184994665
-9.74999991511367
-10.5430145534392
-12.7735704821312
-16.1771370175241
-20.0221390187495
-23.8277826951118
-27.6325512752975
-31.509728644962
-34.9887352690642
-37.165283274759
-37.4152758700874
-35.8704699145349
-33.119071305236
-29.5554908531262
-25.1961312361083
-20.1311596210758
-14.9555807641825
-10.572297733828
-7.58357851940111
-5.99861972081948
-5.54509876551859
-6.09717120911916
-7.64310423508763
-9.89284177183317
-12.1371199945745
-13.6350991621872
-14.0950774000607
-13.6870956695325
-12.6454561114536
-11.036087861919
-8.98316076832558
-6.97012407802165
-5.69626809122819
-5.57630876229226
-6.48760682822408
-8.07230456163989
-10.175566703271
-12.8375835258332
-15.8956464050911
-18.8229185805269
-21.1231448631538
-22.803185167723
-24.2628367189028
-25.6871279792669
-26.7270537255367
-26.9204669729803
-26.3112019753001
-25.3987940323938
-24.4076785397113
-22.8261953147841
-19.9135548823187
-15.6343644249793
-10.8466310751501
-6.44898143354406
-2.53470136971365
1.34417209600955
5.09538500713488
7.58801328431016
7.48942472132782
4.52899949151421
-0.301845803463731
-5.82162260738162
-11.6480677719604
-17.8879328259754
-23.9934653470754
-28.3495690760242
-29.2646026122133
-26.2797994269617
-20.3088362175204
-12.5582991286367
-3.61412966041771
6.28414828359467
16.3747113840615
25.2481125148839
31.754722825719
35.8285278387456
38.2055975818725
39.4456874564316
39.5089612677604
38.3022140873019
36.2668747811005
34.0692557036218
31.7741048180855
28.6978504386527
24.2752128827466
18.8627627501063
13.3929092211323
8.28403930966449
3.03801857193194
-2.91581197886391
-9.24556894199788
-14.9580692211648
-19.6047499665462
-23.8547399317963
-28.5870847065929
-33.5940105713948
-37.5669434857165
-39.4268824855095
-39.3291922391955
-38.1109511486974
-36.0088092771815
-32.4300344424415
-27.112296652199
-21.0748675583541
-15.966774023576
-12.5449210833882
-10.223009503105
-8.23805042160404
-6.81086134898905
-6.69121337665112
-7.73717261522494
-8.61953804714961
-8.27938273848283
-7.26957990102156
-7.05703391888276
-8.0621132739591
-9.09540780192243
-9.14154305860709
-9.14945059021543
-11.1034517527621
-15.1097182862255
-18.2127333643222
-16.9561706150779
-11.0398804333539
-3.72783260642293
1.53529553717586
4.12202023429317
5.17198587733394
4.17122100014554
-1.90207014801549
-15.300416943145
-34.3535032440074
-55.0196283168028
-75.4758631223461
-97.3053218556718
-120.615510310807
-138.823075075639
-140.766943420567
-119.274134982409
-76.1198483036092
-16.05737724714
63.9825271327257
176.083625410844
327.276616727045
502.614934010067
664.31965018701
771.291840976301
802.10561330049
760.488597212894
660.712003390674
511.15980926025
314.377363691892
81.4657797855337
-158.518899848523
-367.847664711122
-520.264999349749
-611.89527324097
-653.446799550855
-654.72610672049
-619.040227678617
-551.254427982542
-466.488882182251
-386.400695445192
-325.632767674248
-282.98726863689
-246.405784965281
-205.428912724307
-157.938812378258
-106.582208516388
-52.5738351584352
4.24608037490968
60.1415083920773
105.55192014193
130.836345595285
134.044777916249
122.178000821764
104.93406527885
88.2098785059313
73.6773580638201
62.6371098065355
57.6906140859718
59.9220318521761
66.0444140527765
70.2642805889041
69.3048698072355
64.6519437725762
59.4736598365018
54.3926306127148
47.5938531222777
38.9448526620984
32.389206997856
32.8574793659221
40.8834701112974
51.2892339687736
57.7174981419763
58.0755181912052
55.1853488483105
52.7059680815736
51.4904098892544
50.1317704172128
47.9659938280694
46.2542028431514
46.3186282528673
47.5502246962591
48.0856979714221
47.1571418443079
45.9057661639931
45.6289001859621
45.890510713856
45.0426764758659
42.4453047185867
39.4306778816193
37.7457636654911
37.5033605890407
37.24872458707
35.9491717224215
34.2779647440095
33.6119130619923
34.1878512868404
34.8698185405085
34.7551892073997
34.4227782780217
35.1655123122936
37.2397002403122
39.4193470341104
40.3837536375223
40.092720665122
39.4260031594139
38.7165424991765
37.2194448591394
34.209611566318
30.1670040564581
26.3843402154543
23.4493597564324
20.5694287048008
16.6141497018798
11.5173383352073
6.25377117545571
1.51690615296845
-3.0790988515924
-8.19531413186793
-13.4556805369923
-17.4356976438519
-19.0806090671941
-18.8142532360049
-17.9790486428957
-17.3572767893019
-16.6205636018665
-15.2670619752371
-13.6726092450889
-12.8158301511568
-13.0519199357849
-13.5815752765519
-13.348143576857
-12.24410622467
-11.1432599533192
-10.8159964744819
-11.1699435968083
-11.7124558552683
-12.4646105303939
-14.0056198676222
-16.5719198802628
-19.4570079924645
-21.5810219684119
-22.5476139143492
-22.8612472918387
-23.0874678052357
-23.1093296860381
-22.4481646048655
-21.1509776608949
-19.974708886583
-19.5502216349638
-19.6077364073285
-19.3147572461721
-18.3399829570087
-17.3025665461389
-17.0524776927071
-17.7242943367163
-18.7613721565827
-19.8105605750147
-21.25761196067
-23.6817926434012
-26.9599934736418
-30.2268227902425
-32.7833474793606
-34.8159902278246
-37.0411027281932
-39.7715301071879
-42.5980441625313
-45.0174733438479
-47.0959330434281
-49.2641005972713
-51.5470407710346
-53.3067964523165
-53.8991029752627
-53.4306691639689
-52.660029982127
-52.1868238990217
-51.9594098843772
-51.6549440576535
-51.3174579802332
-51.3367076297529
-51.7886426463285
-52.0589968213625
-51.3265257392571
-49.3545501931537
-46.6271143873269
-43.7074175940934
-40.6717493093282
-37.3073908275193
-33.7109170515918
-30.4007548025752
-27.7480248597931
-25.4873318842247
-22.9999337154495
-20.0516205784777
-17.0607318148908
-14.5755371774175
-12.6553863775897
-10.9393796033555
-9.2489703826458
-7.86443895375544
-7.07645102655188
-6.61791477281792
-5.78017466615748
-4.13474599869148
-1.978793255524
0.0403672011427219
1.62967784856525
3.00852781250516
4.39782675542974
5.59434638766186
6.23358953206792
6.38738530048421
6.66425245792174
7.6183103052907
9.18026364251482
10.8041879292295
12.1095427161822
13.1941224210075
14.2761157961945
15.2259518507479
15.6676277220238
15.5242987172672
15.247789654063
15.3659170492939
15.8857486641802
16.3020868734351
16.1923385443236
15.6403968868775
14.9883184975958
14.3128208446923
13.3694275402064
12.0894426939816
10.9383568115614
10.5907793993704
11.2646605299006
12.5212570668385
13.7652790939345
14.8148311524304
15.8689865698796
17.0114658106992
17.97565704167
18.5030205547486
18.799029024324
19.4339091006964
20.7537879139076
22.5107849818642
24.1482390941079
25.3574723661407
26.2248847880628
26.8718178678487
27.1554770535148
26.8713013956519
26.1758108555647
25.617077661778
25.6630306225084
26.28221386346
27.0753705173557
27.7592343047326
28.3861135515907
29.0757997633815
29.6932539321377
29.9502487601613
29.8029609673253
29.5903055020361
29.6857867332343
30.0779757166342
30.3960920856151
30.3301515125954
29.9146536968377
29.3693592637705
28.7893471465184
28.1383528554308
27.5301513333744
27.3475410039476
27.9517499756633
29.2985986662827
30.9279623926438
32.320882817503
33.1651107548937
33.24849674915
32.2534024056435
29.8750108387619
26.206374159819
21.8829072626305
17.7140802880639
14.1816707020673
11.3806030682411
9.41703158464103
8.67455161563286
9.52760875579135
11.8337769489216
14.8866167019317
17.9610207536195
20.815759453735
23.5401786032206
25.9546734298769
27.3596342741593
27.0101343218662
24.7825736865357
21.2455920258397
17.0744405818587
12.5359099871463
7.63233823695179
2.62761236790941
-1.80136388947879
-5.04215969247721
-7.08827857309942
-8.48823922237287
-9.77316559311901
-11.0379548552979
-12.0932359142253
-12.8709160033258
-13.5116685255286
-14.0646481079488
-14.274843020411
-13.8018772139723
-12.6165539434739
-11.0740318851631
-9.58274588268432
-8.2968040302699
-7.18428212148211
-6.29544849540394
-5.80298567506908
-5.74096464805112
-5.82694037250774
-5.67294186417869
-5.1728947937946
-4.59604936891781
-4.27428107770704
-4.27703532426181
-4.45653783780616
-4.74430254306722
-5.26226444457192
-6.09314314337221
-7.04169892055877
-7.74810898873409
-8.04622066204682
-8.1235901702159
-8.28742027695419
-8.63959828075407
-9.05371624482287
-9.42344541210265
-9.79737979858816
-10.2049358423456
-10.4388337667693
-10.1499513415974
-9.19494722692657
-7.81589029252607
-6.42199738884541
-5.24373761675994
-4.27574803378186
-3.52482326462361
-3.17251589810646
-3.39580547805065
-4.08048245526339
-4.84078274369697
-5.37185461801313
-5.71852643743428
-6.13849041483397
-6.7514880885226
-7.42223245905713
-7.99259021390563
-8.51157146411812
-9.13565660087837
-9.84419009584782
-10.3857655961157
-10.5663611536128
-10.5178526613765
-10.5897456661645
-10.9923432062601
-11.6384059626742
-12.3535504689979
-13.1268799369081
-14.0307669597913
-14.915940406839
-15.3361085269466
-14.883904823046
-13.5693480324639
-11.7803156428798
-9.87770627938715
-7.93580703050546
-5.93625800126984
-4.11889301764137
-2.97732853213463
-2.84960079889007
-3.59383796809136
-4.74993266851855
-5.98199166657723
-7.25411300268101
-8.54684707166498
-9.50739125635044
-9.49882483236639
-8.00820484205137
-4.95355673423404
-0.602948298662838
4.69281462615098
10.5908687681999
16.6260261026054
22.1345593142895
26.4101636394732
28.945556043875
29.5298841561507
28.2033527719747
25.2321549924394
21.1207597991733
16.4927576678524
11.7994749942507
7.11839398574742
2.3018302200845
-2.66958620812472
-7.56671792780152
-12.1855576723483
-16.6310036105692
-21.1587192228777
-25.6996158500945
-29.6846102227755
-32.4877730632276
-34.0238566179842
-34.7836688674846
-35.2574854274713
-35.4623089247004
-35.1458644114208
-34.345781426583
-33.5097331685822
-32.9805561362046
-32.5375793597036
-31.6525609697137
-30.1699879792335
-28.5266843332095
-27.2250023875632
-26.2874504643911
-25.4483355256487
-24.7904412757389
-24.8475425351168
-25.8969801356819
-27.3714644309711
-28.3085019496822
-28.3767939081472
-28.0969375798148
-27.8311298558826
-26.8622822089329
-24.014411459529
-19.3099627267735
-14.5413082695953
-11.7016811906581
-10.9476475732594
-10.6650754986222
-9.77478315009751
-9.44756490342729
-11.8090638357137
-16.9113668042299
-21.7686971444416
-23.1543776747968
-21.3273074443719
-20.426041875326
-24.95993809717
-36.3109479536461
-52.9001747643163
-72.9418099984987
-95.4918440662777
-118.000450963058
-133.642063174632
-132.604045078678
-106.718599276698
-52.4161047713722
30.9035963012019
143.539117651918
283.403138130937
439.382689973547
587.923553191031
699.6927013776
753.001872832421
742.31917780279
674.174359497619
555.89785216186
390.410264972595
183.253574512954
-46.5352488807511
-265.812089848669
-440.923846942887
-554.309231953663
-609.396996341399
-620.942771952561
-601.915248763431
-559.242462831052
-499.158109165933
-432.453984020365
-371.907386091093
-324.739446122142
-289.028197952448
-257.953615536866
-226.574068646913
-193.729354353536
-158.501771430664
-117.480342999248
-67.5510767672867
-11.3560255304861
41.5300765207533
80.2596071689973
100.156581083747
104.928129604108
102.243845445428
97.7976283900849
93.3513101757912
89.0257606730696
85.7826899937707
85.0819391983627
86.8534920299317
88.8742037272931
88.549173602343
85.1025865634089
79.9113675325138
75.0109617551097
71.6032002430706
69.8342173220447
69.4190268044235
70.0654942864633
71.4341249476537
73.112131318109
74.8233726797516
76.5168528995825
78.0975581659535
79.1817394697028
79.3439455619594
78.6387531631269
77.6916471020792
77.1345375247103
77.0248316732246
76.9461747178655
76.6150374514467
76.1687990347794
75.7727202758019
75.1402359937309
73.7076925888974
71.3171502891528
68.5257997286689
66.0896978810593
64.2243920711798
62.5341028110626
60.6338968225256
58.6072115733457
56.7060067978774
54.7499727329807
52.1090764065753
48.3818067237023
43.9303483282464
39.5718069646267
35.7864746514622
32.4068877442105
29.1150705351325
26.041212416631
23.6703356966269
22.2097021525948
21.285914133662
20.3930275825221
19.5119309941047
19.0908091782822
19.4064183564786
20.1157050871512
20.5376635083316
20.2646793082317
19.3342746683261
17.8392994260835
15.6100206996028
12.4551837629744
8.63267676074698
4.86210916796211
1.78063123375441
-0.519169375093627
-2.33885208061944
-3.88173495038126
-5.09826554750865
-6.02390211527034
-7.03886797319197
-8.56444763760798
-10.5113286810107
-12.2189688547723
-13.05427116358
-12.9928659767756
-12.5104586393509
-11.9867430317909
-11.429877619587
-10.8611202271538
-10.7709578234116
-11.912733218307
-14.5633038108774
-18.1345308385266
-21.6530346391138
-24.5737139965576
-26.99539702573
-29.115181700734
-30.7042006053727
-31.3035988317137
-30.8580669858608
-29.913799308844
-29.0715371361238
-28.3592598915142
-27.305557165941
-25.6115235033414
-23.5840181885651
-21.8362284878995
-20.7016312419137
-20.1161764907862
-20.0395014555657
-20.7550215574461
-22.5830010228492
-25.3759017728396
-28.5037856050209
-31.4158383398956
-34.107321685021
-36.9385214147062
-40.0913009111863
-43.3979750626924
-46.7428136763715
-50.4342564496305
-54.9548498412731
-60.3245480365329
-65.8744444559008
-70.7636879187646
-74.6561412665061
-77.7761848421237
-80.3372669398999
-82.0942050306647
-82.5624221792266
-81.5745819731403
-79.4387865836879
-76.5153189844903
-72.7905593459216
-68.0134710629392
-62.2232860124857
-56.0088775215868
-50.2023046352704
-45.4031088836974
-41.8548203504095
-39.6560091199509
-38.8626111275191
-39.2878499470632
-40.3335771715034
-41.2205164882519
-41.4584885045066
-41.0417080684018
-40.1816150087145
-38.9730207963813
-37.4316804186618
-35.7749017848662
-34.4232773940033
-33.5583654189675
-32.7341555111869
-31.0983279271188
-28.0808389972108
-23.817481801635
-18.8734438001101
-13.6692361674234
-8.32968994051866
-3.07072652808398
1.50217570635874
4.713172192439
6.45928790976438
7.39935090495618
8.40918893515135
9.89261773497549
11.6867528922106
13.5562587357692
15.5857025764511
17.9970870580977
20.7126016355407
23.3091405474543
25.4725642376305
27.3858312952462
29.5535236107798
32.267209972136
35.3364535814313
38.3379273498737
40.9962756234717
43.2305693964282
44.9192884139207
45.8117507656632
45.7529900842441
44.8969558044442
43.5681131753659
41.9177663449542
39.822513783782
37.1540340592989
34.0452832282224
30.7973031026054
27.601831846767
24.5498734716259
21.9972540826315
20.7749302625324
21.7994597386292
25.3655064291959
30.8737405853035
37.2992221207769
43.8454771136579
50.0459610954091
55.3278792824069
58.7881748721804
59.6760579402897
58.1186946119942
55.1928617813635
52.1401926511797
49.5225903082056
47.1775194172767
44.8746123131248
42.7837255417302
41.2045847202863
40.0090082864111
38.6202729519391
36.6403063860995
34.3697138169623
32.5621705857683
31.6844330534371
31.5342399130097
31.5901195902649
31.5733636969504
31.5258860207749
31.4149011497408
30.9012993007519
29.6466508431449
27.7694466123963
25.824348988749
24.2775545858009
23.091719887425
21.8848453337184
20.4061125548236
18.7253713696925
16.979420645895
15.1217634916375
13.072789422544
11.0601286059946
9.62178942962411
9.1611182574146
9.53760867421302
10.1530017347938
10.3826356056216
9.82180256244968
8.15595475711583
5.02882348396239
0.276637870110971
-5.68297791498334
-11.8597056645541
-17.2301889350668
-21.2761520611495
-23.9679459560227
-25.3303871582919
-25.235501234456
-23.7099190718049
-21.2846660997511
-18.7817418104548
-16.6530366763853
-14.6380563335484
-12.195472363856
-9.2287149364992
-6.2505528218632
-3.82102364324827
-1.98931058818963
-0.431601138459443
0.945632023742925
1.77949878256558
1.7456436448253
1.14900962229191
0.808897892876788
1.30329236606837
2.44709615384454
3.59563929375036
4.35251844168387
4.81110149620148
5.12246592878647
5.06986478773279
4.28348726969974
2.83085191481151
1.36715130748637
0.563404463441564
0.457594505456438
0.485892539509177
0.104562203873545
-0.788706980420798
-2.0864715892419
-3.90956156939949
-6.55157016985453
-9.95079393601191
-13.4235149824488
-16.1169725202137
-17.7143365543239
-18.5704485520134
-19.161484995707
-19.5812355086355
-19.6960465391505
-19.6455721601598
-19.8901979482328
-20.6296560431017
-21.3337983408224
-21.0881499024845
-19.4520620934166
-16.8438462580242
-14.0226769120697
-11.3481847371728
-8.736139443421
-6.27904606865783
-4.6010730189753
-4.3576023320736
-5.44603383743079
-6.95270789096747
-7.98676594242628
-8.442414507434
-8.81423567886365
-9.37112165137965
-9.76432737272192
-9.52884137821418
-8.75419732540301
-7.99446686706678
-7.514207750109
-6.869489896191
-5.41023290476384
-3.09833420749953
-0.622719176722267
1.30744790842045
2.57989918867197
3.4732078387856
4.01412432563149
3.84333349246146
2.79459186288599
1.36517043165162
0.347652622681807
0.0102823112500854
-0.138494348552338
-0.687215578083612
-1.61011327443442
-2.40997949033847
-2.86299734890372
-3.28645061560085
-3.89263229942606
-4.086574937506
-2.76219012505273
0.598798911785062
5.32373973951849
10.206517020237
14.6357511116127
18.8235478931927
22.9415005621125
26.3992615449773
28.3071110592755
28.5704195234974
28.1525078136177
28.0495955229657
28.1800732376679
27.5387959324344
25.3798442112901
21.9148906526882
17.7100425999468
12.7104472768091
6.30106904866037
-1.62736542951152
-10.0787427023744
-17.7609105102889
-24.3816215510993
-30.7807702038177
-37.7009861951131
-44.7763902660502
-51.0480272635193
-56.2787639917575
-61.2182106090112
-66.3288388061092
-70.6157501305437
-72.2503654721784
-70.4303662950683
-66.2356619571315
-61.3955889638562
-56.5007681052086
-50.9016917377579
-44.342639193019
-38.0789155124203
-33.8497446756445
-31.899589909928
-30.5999769171352
-28.2707390056626
-24.9922716803094
-22.1919336499485
-20.6400559809124
-19.5085272197849
-17.6799074022137
-15.4748783420434
-14.4067598032131
-15.2391114551888
-16.931022875741
-17.8354531411019
-17.3843056038229
-15.8145246435068
-12.3988940041245
-5.18453782045402
6.46613012835952
19.391758430234
27.9911339952293
28.8783298704368
23.7427982508137
16.7563216207242
9.30221667669832
-1.56948898655264
-18.8023008675983
-40.3682519560663
-60.1915874214342
-74.3595317428914
-85.0184256280662
-96.5686907722274
-108.141251627016
-111.369426444924
-96.3671450221248
-58.6792382324086
1.31474034799671
85.0777882502106
198.142651523
341.529020579289
499.842246483043
640.486091336908
728.548963890014
745.128294075266
692.40939786795
582.660473685909
425.185874658942
225.975657964351
-1.33944084954897
-228.662976185799
-421.79828692751
-557.60057221748
-633.388740904322
-660.66173615747
-651.812115025097
-613.990887695373
-553.526633097101
-481.476852356415
-411.236047889597
-350.734452189177
-299.14502921999
-252.061532907023
-208.125345391259
-168.572633785247
-131.112547694905
-87.885124259621
-32.6812552655991
29.7325340141322
83.9025678594894
115.489806908965
123.2800610685
119.134197735507
116.35304032199
118.884920934563
121.698540209181
119.73271619496
114.288561223127
110.479358686858
110.428331262672
110.964642880791
107.947219938771
101.211329140385
94.2457685799465
89.8130590659225
87.361342829211
84.9590267414694
82.4557997461732
81.5083462267946
82.7804964702282
84.4424819281871
84.1424822896096
81.8466631285155
79.7888122205024
79.6162586338119
80.4485137076002
80.2563328109018
78.6017810163013
77.1234235581501
77.2345929813318
78.1448060572359
77.7810619997769
75.3346299232444
72.1065166186937
69.6573240115108
67.7897382064782
64.9893846073066
60.6275334366243
55.9396622083452
52.4922314996347
50.1945240598128
47.4803839194248
43.4011062257737
38.884619023197
35.560199645602
33.7414742966037
32.195198813894
29.9141128331485
27.4929813007787
26.2980815833545
26.5656444463028
26.9573938267087
26.1566576895596
24.420397427702
23.1065747315463
22.868529104936
22.9016553693667
22.1637640299589
20.8690253992212
20.2393938394605
20.8476069008633
21.7575706283922
21.6068804592406
20.2230130515132
18.6916256314244
17.8497697783928
17.21844841838
15.7485929812573
13.3300794273067
11.0242289322118
9.70056595237944
8.87988809098625
7.30970382814686
4.51986791327577
1.34348173250802
-1.22265488546737
-3.27130947133479
-5.71037704875799
-8.88204791783149
-11.9592655959245
-13.9452667264736
-14.9572237842994
-16.0928110029199
-18.0483422238273
-20.2915415152405
-21.8408049201356
-22.5830970632242
-23.3817332327027
-24.8603726373346
-26.5132739416438
-27.350574191058
-27.241619737773
-27.184437171575
-28.1348523516754
-29.9099999265867
-31.5629721715878
-32.68616138073
-33.9088277904434
-35.9619211003244
-38.5960910947587
-40.8217300953107
-42.1708424658214
-43.3183782536952
-45.2443161939335
-48.0357729857117
-50.8806132508276
-53.210214725126
-55.4377594709164
-58.3081005666274
-61.7496671631785
-64.7949704166606
-66.7143787171698
-67.8810293691558
-69.2201055429695
-70.9569093970056
-72.3032347076216
-72.4846080856298
-71.7457102442237
-71.0096414168222
-70.6555111564306
-70.0513322114759
-68.4828438719895
-66.2654535997238
-64.560793055055
-64.0967089478551
-64.4109703950146
-64.5477878703941
-64.251901654627
-64.0988828872575
-64.4440930769235
-64.6441694492844
-63.6372517733564
-61.1642590131264
-58.0582554820097
-55.2374428836938
-52.705241171984
-49.8034992119069
-46.2922354468199
-42.7680891895755
-39.8662561492485
-37.3456116733846
-34.3235056222478
-30.3927769057715
-26.1685615776834
-22.553136421124
-19.6870143426674
-16.9452391996244
-13.9308453777416
-11.0923004175237
-9.11211059033055
-7.88320230987168
-6.47803682012043
-4.22322248997979
-1.5195587312116
0.652466110040081
1.90883487695456
2.81980687396862
4.04103235175582
5.41730270505071
6.26908095094404
6.48398635165648
6.94870897526732
8.70104285669753
11.8431335825995
15.5599015187763
19.1537828707785
22.7301147045111
26.6979598312052
30.8443174091691
34.2787874756643
36.3497907974923
37.3242933427627
37.9401691462439
38.4370402714019
38.3421452433656
37.2549116701131
35.5398250557323
33.9867914797207
32.9103866403498
31.9200694760137
30.675274111616
29.5837390519078
29.4496951976623
30.4884915455905
32.0083833476712
33.2104357979681
34.0831334643852
35.237039516897
36.9316338853472
38.6265501961001
39.6893100075756
40.3231819295899
41.4348378310918
43.5344580011663
46.0572466898411
47.9882052354297
48.999067720309
49.6560201066393
50.4891440769369
51.2121360104625
51.1676308477826
50.4229428081383
50.0301947641979
51.0124683953928
53.2902797780593
55.8608747419186
57.9528192096104
59.6681704689738
61.3545714714829
62.6389776865081
62.485164634326
60.2644773581375
56.474994120561
52.1830888461125
47.8999338305176
43.2937542946121
38.0074659587495
32.4233684151942
27.3599408843889
23.1549177604447
19.3989635971045
15.6755248999516
12.2884408759436
9.9758074662877
8.98289283900311
8.73737688389868
8.56131770630635
8.45845671645537
8.92062010484604
10.038209631861
11.1645830420754
11.6480492097973
11.6753451422314
12.0553959008857
13.1491629252816
14.3120000971222
14.591434717281
13.7995348245635
12.5903059988542
11.4813963693784
10.150845089826
7.96918674263276
5.06928239349916
2.50034495222126
1.17786544017002
0.915038430304591
0.738099052063646
0.0496700775799255
-0.848911939411082
-1.47040183259487
-2.0428975675947
-3.33494935031196
-5.61427409994043
-8.14334550280132
-9.93682605872955
-10.8537812977305
-11.6590902988379
-13.0353383971932
-14.8660294464446
-16.6789520050784
-18.5425458967754
-21.1018153813533
-24.6366251486031
-28.4063583687383
-31.2308764330216
-32.6379571759577
-33.1408008854585
-33.3396815937701
-33.0802067296022
-31.7927518294855
-29.5160662000941
-27.1440142850109
-25.4491234821655
-24.1078957690664
-22.0393037581469
-18.6979793512093
-14.71081599309
-11.0771585505204
-8.00410171493055
-4.89570753037803
-1.46687760511113
1.55205874786982
3.12338575628035
3.14924039678946
2.63624260257105
2.53546540423429
2.72295276944807
2.38651261992807
1.25051875023899
0.0137475225162262
-0.537054261548029
-0.510698840396778
-0.663706686846343
-1.2659012774288
-1.626745397785
-0.957596503402442
0.534563899486344
1.74243914540592
1.80374857060847
0.808193856323406
-0.77441101676872
-3.03842776764893
-6.57310232915494
-11.4271612734808
-16.5501226597652
-20.5898609001955
-23.1240123189249
-24.7858473603389
-26.1789324971546
-27.0617863053387
-26.8823168227495
-25.8675641433149
-25.0592181394883
-25.0850054168754
-25.235284650214
-24.1466400817974
-21.3381957865565
-17.6929190143442
-14.304516401669
-11.2281073647312
-7.78423488282134
-3.98081937563995
-1.07386371481805
-0.368987792663667
-1.7047413786322
-3.57196799830301
-4.77230202032664
-5.54288748456763
-6.76737833480072
-8.37832545697391
-9.09387405558832
-7.85976334111315
-5.10826992012195
-2.17200068377722
0.386726832013151
3.33617282724457
7.48017154739551
12.199715470922
15.749348407451
16.9523039207371
16.1551992236377
14.3327835986829
11.6752567075335
7.60228797416952
2.15028988631161
-3.22870272350475
-6.67573373484555
-7.56120215899744
-6.72384098469446
-5.12262039729632
-2.76053824885718
0.740655849631393
4.86791650035632
8.19475448496111
9.83111252876436
10.4526609756564
11.4423309381983
13.1607884436041
14.5742351480598
14.6998389103152
13.8891627485308
13.1663384518661
12.4943137330813
10.4086414949883
5.72536507563371
-0.797547683517267
-7.08111104293092
-11.9639963773148
-16.2400041205546
-21.1834159155167
-26.5342940268122
-30.6468292388067
-32.6400907575391
-33.6726345600419
-35.5417030840553
-38.3473619923126
-40.2861123854718
-39.9077793808647
-37.9245879101909
-36.2206319519308
-35.401502024444
-34.1663185659439
-31.3429790731527
-27.8125223565101
-25.6307699106961
-25.421928021853
-25.5462159027879
-24.2643319615709
-22.0707457305217
-21.0207972585231
-21.8704727201568
-22.894301407675
-22.1027921212138
-19.9314319404667
-18.6200046144074
-18.8893542861022
-18.4277543642403
-14.6268194546406
-8.29789660683365
-3.32617286419537
-2.20744921763723
-2.97657446359093
-1.66794525247941
2.59296311972675
6.45549539282237
6.8706806180642
5.44176995535976
6.51483824912911
10.8993136324251
13.2563207855653
7.10047753983912
-8.3638550440556
-28.1875647619967
-48.595472765327
-71.6648378058536
-100.661228381827
-130.888853042514
-147.828972482584
-136.522449309889
-92.2765705794004
-20.2342399745771
75.4813896075907
198.806942218651
354.025977142311
529.978595595863
694.312949363713
806.82147427813
840.796666097406
792.983396015028
675.469250987041
501.769919153534
283.000354161418
35.5418542712723
-212.844849026447
-429.171454764392
-589.278233729136
-686.253376378775
-726.535372337395
-720.383618241307
-677.194318438065
-607.513899958069
-524.8662733012
-442.369344900538
-367.563542615025
-301.831079730621
-244.554500203128
-195.831662475538
-154.16425128824
-113.574710067056
-66.6689304709463
-12.4855994411417
39.8059314496253
77.2902241188906
94.3504127599116
96.8710041930646
95.2745753205209
94.4601382523482
91.6929699895733
83.6748429526672
73.337819264604
67.9799868739895
71.3160498611888
79.2702988524952
84.4525314030807
83.7920159243825
80.5732311560497
79.3935049781768
80.8237840060872
81.9204539424871
80.9141997684798
79.5984183204201
80.6592851635646
83.9179015132525
86.4834813677636
86.3790280973006
84.761890729602
84.0181513448171
84.5133418012283
84.3138744669487
82.0281647706446
78.8007392946834
76.790274492357
76.2213379993955
74.9445040596774
71.064890029641
65.1980936499392
59.5208526214482
55.0395094624098
50.7270439485984
45.5516560277827
40.5409813661465
38.0181649497305
38.9214105178313
41.6499457785553
43.8908448923432
45.0589815571314
46.3130156958466
48.3489012195395
50.0041156963366
49.4992473980755
46.6207918443906
42.9618630085396
39.9391550691253
37.186407973992
33.3452149605143
28.1132303033632
22.8524668004117
19.0463468718467
16.6962877687171
14.7024171314883
12.5751878392497
11.1163209822031
11.1844029227526
12.2574132469992
12.7579422653262
11.7498517871537
9.8246289778786
8.10950537812194
6.79766423286454
5.13999312067345
2.80302313873671
0.658125510162492
-0.138953566496667
0.401934141336525
1.04319031814831
0.752810350830842
-0.198978189874836
-0.834157518715237
-0.886231258145159
-1.1567820866378
-2.39641643113329
-4.26066316618116
-5.75051603974821
-6.54309173332673
-7.43591523576585
-9.30797580959521
-11.9418754614182
-14.1971257136506
-15.2412204360167
-15.225046284919
-14.6323011526189
-13.3352016057528
-10.7260926986496
-6.76683677746507
-2.50405946570302
0.720567341113949
2.41298699874507
3.01906725556091
2.9655860021084
2.0059886772703
-0.266696167061689
-3.52090151902281
-6.73874036346206
-9.27033945521769
-11.5481599973086
-14.5075816057375
-18.4341319709717
-22.6970299682765
-26.6524571163134
-30.4729416043087
-34.8026443344962
-39.7409395988075
-44.5678693165708
-48.6273824736356
-52.2127470877021
-56.2566645613458
-61.1853383615352
-66.3930765938728
-70.9810725000599
-74.7595716305521
-78.2084098220319
-81.5124391894973
-84.0340011551531
-84.9959572080466
-84.5089174259127
-83.5672629963585
-82.9500799618824
-82.3812383341464
-80.9722615955078
-78.332692566243
-74.9258763730657
-71.2964469981681
-67.2869305161552
-62.3363063186837
-56.4801352651095
-50.7147829890414
-46.1985906136688
-43.2538961196457
-41.3538250274885
-39.9824985511068
-39.1820598786042
-39.1285588035224
-39.4391688862038
-39.2638153589721
-38.1152198626506
-36.35487745218
-34.6818141026279
-33.2817666916535
-31.7232248955081
-29.6691815930718
-27.3902871154562
-25.3716287938832
-23.5726510006704
-21.399923999004
-18.4938590173948
-15.2992704558215
-12.6266898474719
-10.7311280079129
-9.08555641015449
-7.12536407361053
-4.96899158892821
-3.16632833584367
-1.8346866935672
-0.372945727325497
1.81897585208502
4.54485010244724
7.01477920574486
8.83485059049562
10.5357948896146
12.9698720026133
16.3502844190906
20.1376578258962
23.8462881009449
27.646995837203
31.9483614014498
36.5234543081388
40.379916078407
42.6194214387907
43.2527552719027
42.9987692751688
42.3950514577187
41.3745465711076
39.7661543499157
37.9263671727439
36.5684205011762
35.9786726568607
35.6693815233368
34.9615882407822
33.7712178901808
32.6144410606622
31.8853152993391
31.3974168450074
30.7794606362651
30.1344474918248
30.0102265419129
30.673390987667
31.654315392589
32.2143042931603
32.1795551689153
32.0913448654829
32.5026270954467
33.3482168272059
34.1835407760761
34.9132763238191
35.9825553159954
37.739801162261
39.814699654317
41.3702723164515
41.9554666708951
41.8996808856369
41.7869957410412
41.7318010444508
41.3901087615629
40.6252467101964
39.8719165985214
39.6692380442679
39.9737458056487
40.1812528782987
39.8545556377827
39.2185947892976
38.7940931262814
38.6775694988414
38.4216894555415
37.6400861004467
36.4819065902103
35.3144450621053
34.0544130253995
32.1022535658669
29.0433936816618
25.2303599941309
21.4703172283865
18.1972847749268
15.1822072495891
12.118529407868
9.25351002888965
7.17432108848673
6.00482556400658
5.10637653396198
3.76545979003592
2.06044778978405
0.820743556427818
0.716140492258443
1.59939250000096
2.86879587267812
4.2922717902257
6.16831742018115
8.61618539486166
10.9696280893757
12.1422640614784
11.5817099116055
9.66977543069984
7.13430763986039
4.27189334291296
0.940694421939288
-2.79111553725076
-6.31518621752307
-8.9715304132052
-10.7208904351593
-12.0992575984303
-13.4997146405629
-14.7110818250986
-15.2893922492544
-15.2336762313069
-15.0586508454081
-15.1903874801956
-15.5194563934213
-15.7098892674348
-15.8149927945282
-16.3179950909271
-17.4890844131198
-18.8916293711172
-19.7070156733999
-19.4873845398604
-18.4016288115468
-16.7345770502953
-14.3930283176764
-11.1265986301529
-7.15231758665106
-3.26791166843054
-0.190363748389416
2.09204823208677
4.13494641164607
6.2631678688826
8.20558109199987
9.57672828948246
10.5026301700596
11.4951979307113
12.7058897309065
13.5681367656031
13.3733569262939
12.1011800261151
10.4573722078464
9.07111837822237
7.87248898586218
6.41002344282652
4.6241764660559
3.00881946168492
1.93747708724457
1.07492729422489
-0.291505398024576
-2.38009352178889
-4.61509491340024
-6.28529763833601
-7.31148030672052
-8.15798944225955
-9.07200659852154
-9.71526452713878
-9.69652488725409
-9.2689251261
-9.19800414736488
-9.89721306873381
-10.924441265402
-11.4987279471882
-11.3865390497732
-11.0451232501213
-10.9032660413075
-10.7881704278868
-10.2763486949161
-9.47382563356331
-9.12465827512842
-9.82771255441001
-11.3423551913742
-12.8788029006186
-13.9984886141392
-14.9749848501675
-16.2107274964089
-17.566665156489
-18.549116485673
-19.0968930118877
-19.8490623480717
-21.4371459093641
-23.6694452343602
-25.6751595516105
-26.8446750226611
-27.3585658475857
-27.6463218671223
-27.5501630544514
-26.375922008574
-23.8198601572905
-20.5393660395126
-17.541400518994
-15.1089943583046
-12.6378249119561
-9.60915760004727
-6.44747849641016
-4.14363655855679
-3.1218777813459
-2.81275821441514
-2.46679476715992
-2.1116771845512
-2.36425786977747
-3.32324217283771
-4.00960017812715
-3.1527816232591
-0.401003652693602
3.50212943169072
7.70067482494321
12.0477246449247
16.7552631384866
21.4745717209695
25.1661375530048
27.0323516293541
27.3292848710711
26.995774025834
26.5695400710056
25.7554711132218
24.0939265226013
21.7061816129285
19.0567069419769
16.0978193370407
12.0829006870392
6.4558016157819
-0.287970395154371
-6.93820103897346
-12.7333689408367
-17.8726244248828
-22.752173147799
-27.0199179532599
-29.8108924600396
-30.9241417506616
-31.3459760595709
-32.287518966618
-33.8590847524875
-35.0644639430531
-35.1462958394568
-34.565812234511
-34.3701184586146
-34.8122525638042
-35.0725764877663
-34.4645577702116
-33.5143816993374
-33.4379057747032
-34.6528155205372
-36.2584115924511
-37.1493248567628
-37.2750965510796
-37.3994930512785
-37.7698567038469
-37.5909998199018
-36.0656268082843
-33.5400783748658
-31.075683965878
-28.9609151718941
-26.293994104247
-22.4128455994622
-18.2817555500786
-15.6695425434171
-14.7884089836322
-13.4075610340013
-8.96624742630903
-1.45469681176744
6.37136861717864
11.709154980667
13.9770905362284
13.902482648777
10.9523361845293
2.8948219012512
-11.6440437848745
-31.1089284346044
-52.5964621175151
-75.1881705057547
-100.030604743662
-125.936402038183
-145.786131152263
-149.390870631261
-130.807831552604
-91.3780889114694
-33.5699814537079
47.6890748672502
163.92438426496
319.195005934784
495.75946980834
655.628453531531
759.968095024992
789.885389089518
749.991003076338
653.705176295479
507.925858117526
313.943856377277
82.1819930743994
-157.978784282166
-367.134384184619
-516.883833629771
-603.014313288045
-639.280349792848
-640.361504956939
-612.218019459677
-557.581476851157
-486.661558612273
-418.174412914478
-367.975509475524
-337.203316425572
-312.621440241446
-278.850890127906
-230.350857561709
-172.638540909848
-114.124769182352
-58.5762992011976
-5.34753142618599
44.9714611611477
87.101513375452
113.858041678118
122.092227698501
115.851281385668
104.143189063667
95.6752693582548
94.7018117581822
100.19542997682
107.828170174167
112.98631557411
113.191283147731
108.909127861302
102.536177158993
96.4048716036612
91.3538228397317
86.888546750243
82.4634397003605
78.4141327102866
75.6397511632483
74.5949398695465
74.8242756870915
75.4878352050131
76.1537912218256
76.9676042224651
78.1820994649234
79.7475701168847
81.3967872225583
82.9292810330178
84.215703902139
84.9571628055151
84.6458750781059
82.9022535963623
79.8203445106197
75.9138041558594
71.7704575383566
67.8735942487192
64.7513357771925
63.093989645757
63.4747317712305
65.8605194299779
69.4748437725139
73.2412371634308
76.3842208547775
78.6068507246001
79.7924444147688
79.722696992277
78.1991387495028
75.3722711271155
71.7819628202337
67.9639711462357
64.0207391555963
59.6138253839538
54.3602240920049
48.1967080259204
41.3841976781011
34.2623589222025
27.0861502586414
20.0750522077602
13.5058504092461
7.66005723772064
2.66672504140965
-1.57005611336725
-5.27454687920125
-8.63769243473271
-11.7281712481792
-14.4946591694081
-16.7938034331674
-18.4211538014047
-19.1849042405829
-19.0263456073426
-18.1042831123631
-16.7583650196714
-15.3697447731917
-14.224206599887
-13.4563884866301
-13.0650560612537
-12.9506197902427
-12.9578647618313
-12.934610748023
-12.7973160437028
-12.5716214302754
-12.3945925287734
-12.493367536527
-13.1407604367898
-14.5612115544491
-16.7956817868441
-19.6188680128022
-22.6144144106573
-25.3859003882092
-27.7326039380329
-29.6385539564474
-31.1190904557749
-32.1205890185908
-32.5868968898682
-32.5842201760906
-32.29338080242
-31.848052161347
-31.2112706953521
-30.2637970835711
-29.0351094378036
-27.8319040803507
-27.1225911546351
-27.2922382084239
-28.4905838951871
-30.6551196268807
-33.6020252003709
-37.0644283453605
-40.6923058012012
-44.1048269910681
-47.0103966620021
-49.3069892844708
-51.0895456527607
-52.5847847981216
-54.0662458056391
-55.7514044857455
-57.6701165471599
-59.5764552803359
-61.0263324505067
-61.6260322271644
-61.2660481709491
-60.1385300654857
-58.5611283332864
-56.8391785768524
-55.3154844141943
-54.4674918866939
-54.7954428307247
-56.4926306060658
-59.215471439811
-62.2439432103656
-64.9231290446905
-66.966084817282
-68.3620422230323
-69.0851357823813
-68.9925832397126
-68.0116655917417
-66.3198823083898
-64.2255022256183
-61.8472443531214
-58.9678531852288
-55.2447733891507
-50.5456201046515
-45.0532498127562
-39.0849634540935
-32.8924304986227
-26.6595972402477
-20.6066868622202
-14.9740824285935
-9.86547613984127
-5.16672686668166
-0.68384279890584
3.6431837506529
7.69812280092915
11.3405366712277
14.5283437705798
17.2567157430385
19.4436605144911
20.986564785747
21.9696167065045
22.7490096383842
23.74772826159
25.1460622064813
26.7970567555165
28.4284209056728
29.8563533744695
30.9696253712824
31.5892927031711
31.4919543015911
30.6464165325983
29.3776592729565
28.2106936522512
27.5341815493918
27.4504598516346
27.9335707276417
29.020599233411
30.7483343838989
32.9376870104721
35.1824795267039
37.1436067759196
38.8089196456334
40.366825145191
41.8221433883783
42.8396677736686
43.0360918196152
42.3669685155986
41.1246217425345
39.5737709170519
37.7449560719484
35.7062735377233
33.9651281857312
33.3935913533001
34.6164848601439
37.4946965556816
41.2773076661759
45.2155167787832
48.8990067355793
51.9762423050408
53.7523949788434
53.347050872212
50.3700947181194
45.34953961689
39.3642388704968
33.256850073466
27.2843636440753
21.5026455807064
16.2845490575119
12.2582864165554
9.73972187452199
8.39984006687841
7.6134739289658
7.07439765723692
6.93940299155884
7.37224493762362
8.10126547955023
8.54655238880733
8.32920815519025
7.5202935534669
6.37260322686187
4.95311058573296
3.17040289893824
1.11209276942752
-0.823321228217459
-2.22799482367737
-3.05175815152633
-3.57274273374661
-4.03281267528612
-4.42247709911983
-4.65829995930033
-4.83673233127496
-5.14848571901745
-5.53738773658682
-5.59411812355368
-4.90618308225292
-3.47758790684048
-1.7055130943691
0.0476010377783265
1.73657535482862
3.43265069563774
4.96274415114446
5.9374084309961
6.18853808257386
6.05209232878802
6.08296676989032
6.50710520831186
7.06443462344004
7.40626528549209
7.51324556202165
7.6054455355662
7.71171291901253
7.52481164043545
6.7776632127075
5.65377593583126
4.66280861599751
4.09858796361102
3.7516758296578
3.22961124929253
2.45469247226445
1.6937104801533
1.11356636426132
0.500890532005339
-0.434065475701126
-1.5514901072787
-2.27210243433741
-2.1445293919
-1.31323327167018
-0.31336949143106
0.531991430471886
1.34305086298383
2.28195392368016
3.10184808856766
3.29581349816702
2.69115362107507
1.71798640351095
0.973275141806675
0.600776614372028
0.241359215088777
-0.427568310442646
-1.28662605038686
-2.01112390178071
-2.58757084454765
-3.38051720625591
-4.63528402031475
-6.07103211302885
-7.1134749435704
-7.47853995216141
-7.3651342473251
-7.04663567445161
-6.44879549429943
-5.29591634768725
-3.61336539221282
-1.87428259410607
-0.558022454506604
0.299556187825614
0.954402679372398
1.40979041560381
1.24907779248857
0.129626465659671
-1.68801794113749
-3.49674117031629
-4.81136667969354
-5.67073794499134
-6.16499754886568
-5.84845216272264
-3.92926107333138
-0.135462301665158
4.79827930066125
9.69762765007493
13.9371188995048
17.6594145115734
20.9987344017005
23.3731176663439
23.848425876756
22.1887940446299
19.2578791266712
16.1807778390583
13.2159632534484
9.66939675253134
4.90425582073128
-0.831721245639368
-6.74777548465701
-12.4912250003798
-18.4470556117022
-24.9558550146076
-31.4629094189015
-36.6959418640125
-39.6573553337582
-40.2336383665412
-38.8068179565455
-35.5639236185425
-30.4952355510147
-24.0222072710161
-17.2785677875642
-11.5360659178782
-7.45348841358614
-5.07690251533825
-4.47032544298187
-5.96774398603135
-9.58927999591697
-14.4404705856524
-19.1075078563066
-22.7717295757172
-25.684218971353
-28.341226465472
-30.4102273456489
-30.9017007510662
-29.5001760977162
-27.313261726347
-25.8341714079265
-25.1690734959499
-23.7208403234047
-19.9179193320248
-14.0611801326547
-8.08899515085933
-3.51911136387442
-0.06516181526057
3.34815148419765
6.36039326410708
6.4688584528154
0.894135728251717
-10.7827694122838
-25.7587040493514
-39.5407166865826
-48.383234762635
-50.9966501961682
-49.0460341470967
-46.5055221490551
-47.7264893849861
-54.6293450237005
-64.9101097176058
-73.266346680871
-74.8448691366394
-66.9803643030357
-46.4225530132636
-4.948909326703
69.7074565360397
184.623500451761
330.733514972831
481.478303294429
605.015005979579
680.43030348146
703.291455715049
676.284171363087
596.652374426307
456.086670403296
255.055597699596
16.4235149712497
-218.275505715355
-409.590636990311
-539.954918367087
-615.31345789881
-649.825132411325
-651.081365238714
-620.110955528583
-562.465778154039
-494.479391467163
-435.519087115052
-394.078435743275
-363.064523780724
-329.41920188461
-287.452850735312
-241.889954259138
-198.844473503582
-156.365682561986
-105.864928838347
-42.8387617202572
25.1756172437929
82.2684446418103
115.883649089109
125.323125905936
120.137857465249
111.810741119194
107.065159997907
107.072080573872
110.174573438209
113.967510274589
115.818670934484
113.62800209327
107.430925348041
99.9511066866097
94.5777210951714
92.336639413066
91.0871028629381
87.9221404339321
82.148444004615
75.6461339431676
70.5239046804569
66.9836440354053
63.7058394853423
59.8802642160095
56.2292820476567
53.9495378503504
53.165586987394
52.8913636183712
52.3775842462849
51.9653759737271
52.3487954756738
53.2899775691637
53.5174862511606
51.9758958384569
48.8784852551658
45.3177687278842
42.022551382405
38.8364738236495
35.4577719196276
32.3507512469981
30.5942483753933
30.8549390377135
32.7764835772661
35.4954779791638
38.5685277905229
42.1617476516016
46.3797591586787
50.6978503141618
54.240852034837
56.5120735424883
57.6373703801995
57.8911205578798
57.2132391338649
55.3697658114871
52.4938502599779
49.2257768504967
46.2203492910761
43.637516949574
41.2409345108993
38.9119370769875
36.8539774623836
35.2204440290727
33.7152945155044
31.782834452687
29.2192680988795
26.4446983649959
24.0702666582035
22.2793381700249
20.7665447345057
19.2545764286893
17.8795592437482
16.941908222469
16.3757062691693
15.6704216404219
14.3909864669267
12.657868564102
10.986675158568
9.68961313871997
8.56825104394871
7.21843127581951
5.48534766234405
3.47098659713559
1.14943454452978
-1.80781954104664
-5.68434010336777
-10.2653418799635
-14.8792623239399
-18.9194744092926
-22.2259502353397
-24.9104747185708
-26.9469779794662
-28.1358300892807
-28.5033414366097
-28.5512702608987
-28.9117096891635
-29.7392321142605
-30.5695599283493
-30.8407567651752
-30.4660275495414
-29.7998099214344
-29.1175331369308
-28.3340662941168
-27.3385633049781
-26.479538625687
-26.4969692862855
-27.8893298178139
-30.4404649162273
-33.4643527995822
-36.4618713138505
-39.4164316580787
-42.4581589208701
-45.4292316462671
-47.956436761219
-49.9198783768152
-51.6595830853313
-53.5992788490615
-55.7351167642404
-57.6262546591304
-58.8919712756163
-59.5943899632517
-60.0686625485208
-60.487915181671
-60.7575929111923
-60.8403934472797
-61.0031893436566
-61.5765902142869
-62.4921977901962
-63.202991120924
-63.1300829113684
-62.114674758521
-60.361846769971
-58.0290201341185
-55.0507753029819
-51.4235964574766
-47.5016346275507
-43.7975090376997
-40.4443510097941
-36.9843265323847
-32.8014824125738
-27.7267871097993
-22.1261218241959
-16.4301679695751
-10.7502994589
-5.06513438411595
0.326906697476268
4.77554121533319
7.81786476446485
9.67249047207404
11.0698843479603
12.5801658030217
14.1807267198869
15.4742739413553
16.1778461674971
16.2608715364635
15.6696645241681
14.1518959032515
11.5296461967848
8.11980353028268
4.75558695968096
2.34422691862131
1.44787767449033
2.27215994203215
4.86968353060533
9.12904108520732
14.5388204679157
20.1702035688855
25.1190172519174
29.0150464465776
32.0208146433753
34.3300968529354
35.8059142451666
36.2138429298412
35.7033731784598
34.8204508559643
33.933036541861
32.7744023730581
30.7532579604236
27.742810247076
24.4129790265991
21.6756332757859
19.8826858864715
18.7139676265108
17.8309321860989
17.4327769491854
18.0145899386656
19.6699584745724
21.8648414123183
23.9971372219781
26.0451027144194
28.4917465421194
31.6220639398106
35.0518209443335
38.0135364742407
39.9745864932379
40.8275909516106
40.5484187930439
38.9359819638234
35.8743229933778
31.7684580029224
27.5010711880998
23.8610735690745
21.0894003130329
19.0300075109559
17.5795303917065
16.7794747721492
16.4652867041493
16.0837405543355
15.1200332157931
13.719150213919
12.7019401572394
12.8513130874772
14.2517192518195
16.4125177531163
18.9238526862542
21.7462711137258
24.7768922597021
27.359923801493
28.5480679032252
27.9481569571238
26.1550033725362
24.2063409453324
22.6710562902624
21.4085593866909
20.1605336343075
19.0935932292651
18.5510941694764
18.3907213927756
17.8883051449899
16.4594945755338
14.3377062349759
12.3305505674487
10.9166700104697
9.77472771539438
8.27459244321745
6.23564345476954
3.96378103272404
1.5888537130599
-1.30791938463009
-5.15759888599449
-9.57902988231592
-13.3595977388719
-15.3833483496263
-15.4761165665038
-14.2513698277013
-12.2889873446671
-9.74836156811009
-6.83656377524831
-4.3510980503324
-3.39058913906817
-4.44064635744716
-6.92278937977746
-9.77356663704085
-12.3675997791412
-14.730423891303
-16.949770156259
-18.6995111790103
-19.5374323038003
-19.5180681219748
-19.2038541095207
-18.9743187958452
-18.5128356424163
-17.1614303332902
-14.7145098232686
-11.6618668678101
-8.63239461989933
-5.83157909054656
-3.21064468577243
-1.04415301870095
0.0128294900306543
-0.386481208523662
-1.69996844910394
-2.84875639821221
-3.16612893141031
-2.83387595973069
-2.35538940212071
-1.85187517693354
-1.13894384321772
-0.413528425619596
-0.480234615068362
-2.02516771319729
-4.7698238241286
-7.61807864970359
-9.69867570120151
-11.0609100975693
-12.2333065216437
-13.3414433926862
-14.0337040114916
-14.3183933359822
-15.086451574095
-17.4072209374792
-21.3122814876339
-25.5840457550856
-28.8941731933586
-30.9340076977598
-32.1713526330268
-32.633315419979
-31.3919368406641
-27.5223407617045
-21.3424647284362
-14.2864947653884
-7.4713162242826
-0.723526005368332
6.68898026429444
14.5209595550758
21.1514660079755
24.8603526538147
25.2450624560807
23.1323194523475
19.2900567178312
13.7234555680657
6.46561647724404
-1.26748340484802
-7.22651341884337
-9.60791498148649
-8.21341183073307
-4.07513398944505
1.76155891330695
8.72696743100915
16.1184496646964
22.5908870391959
26.7548654533662
28.263915857102
27.9734297716666
26.9031976974928
25.282480082544
22.7940647342875
19.480402441889
15.899545491756
12.2444657826797
7.72505046625974
1.3089521912215
-6.91947230976397
-15.5259804232216
-23.05201829985
-29.3234026535328
-35.1358714791628
-40.8012952714835
-45.5361460186499
-48.5486979346809
-50.3565679409541
-52.4420435050553
-55.4940710753116
-58.4262515748798
-59.4844052894017
-58.1148828671788
-55.2938048787939
-52.0284011620164
-48.1139988344978
-42.81952835022
-36.5093586613938
-30.8625192654237
-27.1926938229661
-24.9903181095255
-22.6455944820805
-19.4711166072625
-16.3879121081275
-14.4035385325844
-13.0150860296808
-10.8297220575856
-7.65109076887373
-5.09741738622399
-4.62990833021347
-5.46389790518895
-5.31784103937591
-3.33010648475951
-1.36147263830985
-1.66806091103462
-3.66141435605961
-4.02007056519393
-0.381001963754698
5.85807212444046
11.2341909097317
14.3340353309125
16.965598324361
20.6785142518397
23.101840597738
19.1706547729624
6.14518758657228
-13.7966830227203
-36.6942416523513
-61.3386053360901
-88.5877639545151
-115.628783963931
-132.890709354617
-129.163553276893
-100.063285479176
-49.2721752141431
20.3104038821462
115.063025596289
245.984617976185
411.861775625111
586.784183056871
727.282722729142
795.615202090709
779.056528297256
688.907826818873
543.501454417154
354.533571059429
129.811645616174
-114.064940926632
-346.436469619954
-533.0957214165
-653.367895835587
-707.918398577499
-711.667769835805
-680.616645521286
-624.761862773734
-550.363157656767
-465.219636202224
-379.970606089158
-304.672600547279
-244.541937382186
-197.992085788805
-157.447206751823
-112.706332175747
-56.6561456786448
8.93335410071052
72.3293299789299
118.42762039621
139.196783523971
139.171208986353
130.734375664385
123.644019504227
118.922513905758
112.316890502661
102.26763575589
93.1213597853276
90.5638663562111
95.3031371767896
102.454622252887
106.866089739528
107.821479796589
108.034703274743
109.076521644175
109.271483085025
106.345238140834
100.959449372396
96.444306814763
95.1059245659783
95.7486989171233
95.3096232254335
92.3379064673518
88.0709437127789
84.2192429341991
80.6690403251782
76.0106732435128
69.8819373769338
63.8318175621242
59.5413755121499
56.755547424509
53.5850557701282
48.7208684759586
42.73787899586
37.0165602906033
31.9235453684499
26.6758091530129
20.9121327398304
15.7052595961137
12.5488423384648
11.5764517819645
11.2997881489737
10.2055247618414
8.22907907740329
6.40142737932026
5.3510885573552
4.68377760704131
3.92078482024201
3.55408580547382
4.67271837166334
7.56970115518612
11.1141181356795
13.6982925089849
14.5937817942726
14.1479671779739
12.8396687248961
10.6194962731545
7.38817413780044
3.80393514865162
1.13459029630525
0.180877558830218
0.589781272333653
1.41316991254422
2.18345575195951
3.17831227080927
4.68364392711226
6.38062037595412
7.73218691906061
8.81127785153282
10.3555687444324
12.8479284542188
15.7551297865654
17.9235300605511
18.6833867243689
18.3371535193158
17.5282796560985
16.4104656190551
14.7097915091926
12.5121938406811
10.608980283373
9.8116777205851
10.0312361747695
10.2840260379551
9.65804302807276
8.10814841680757
6.22333393429377
4.41524589069285
2.61470808634252
0.768847203648548
-0.68027146837472
-1.1133301526722
-0.525919800069623
0.207478169894337
-0.0262699777091271
-1.75743255411701
-4.81062360387394
-8.83268645535074
-13.6625957638454
-19.0982004113938
-24.5347822001224
-29.1566500916907
-32.5924603554632
-35.2583966983642
-37.9457990738624
-41.1265734900201
-44.7493336779011
-48.6182175455977
-52.7159626471366
-57.0111475156094
-61.0901881694304
-64.260998295905
-66.1552714107229
-67.1412430413222
-68.023196478514
-69.3582065289952
-71.1590263888151
-73.2175357032135
-75.4962692642874
-78.0283444180934
-80.515751363789
-82.2902980933177
-82.8442525489
-82.3472731889377
-81.5037182007554
-80.8840030378739
-80.4909478270022
-79.9941799794654
-79.2202611583715
-78.2228730259345
-76.8970706227973
-74.7745419361066
-71.4324739311331
-67.1160089534567
-62.803467966733
-59.5470290685515
-57.7617763831617
-57.1667185629655
-57.2808551938786
-57.761862717487
-58.1951534770118
-57.7441035843552
-55.3089016941751
-50.2087967980726
-42.7071545167335
-33.8161429410017
-24.6010460378733
-15.7023775670038
-7.44817400335798
-0.219287940556686
5.48047346041476
9.32941969072185
11.4473348953229
12.2626820221266
12.1365503341811
11.167810930263
9.36026849226223
6.92022825498815
4.36043584141416
2.34645111663959
1.46525572035141
2.07467553078912
4.2382950561709
7.7047228918682
11.9570793730735
16.3646018475646
20.3688312269831
23.5885012144985
25.8288423951922
27.0951555888923
27.6544270448859
28.0250197668616
28.7579505842616
30.0913463839705
31.7649513025194
33.1867427162444
33.8134242113311
33.412621502591
32.0410103122539
29.8897971377714
27.2348411177315
24.5067061248834
22.278081357269
21.0426406107271
20.9316633177449
21.6345174410886
22.6062433232621
23.3817556908259
23.76661378225
23.8477500425399
23.9205170885622
24.4040947470684
25.7212182994574
28.1256330009113
31.5589187986593
35.643612227581
39.8116227757995
43.4626623073099
46.0807890198796
47.3407595189425
47.2378022742491
46.1583712578155
44.7590557043526
43.663526049111
43.1861661116159
43.293518777702
43.7866667283838
44.4848761557419
45.2492648052369
45.9195408790849
46.3439667363497
46.528028614068
46.7181237939493
47.2571978874733
48.2958533496193
49.6229183601685
50.77469527255
51.3109131916994
51.0113039763325
49.8746660879847
48.0149151644012
45.6050810628414
42.895638801226
40.2094298888595
37.8380407108443
35.8891070806031
34.212124469212
32.4861233902159
30.4356564855878
28.0465737724601
25.6407214986399
23.7499918857129
22.8643648450605
23.2200016306053
24.7494166331697
27.1594527722276
29.9949380103374
32.6215744852359
34.2417594556915
34.1017480808709
31.8499909901638
27.770153354895
22.6472472459193
17.3506458566254
12.4869100538584
8.3696855049722
5.18846610611163
3.06899350482328
1.93036325342153
1.37749446203823
0.879146395467528
0.133274814897023
-0.751324728446631
-1.46097887629599
-1.84864997094599
-2.07861834590619
-2.43984417448251
-3.10428945892378
-4.11277768564999
-5.52556222769064
-7.44719621118096
-9.82422537542406
-12.2616001539243
-14.1399558247653
-14.9782845217067
-14.6997358836899
-13.5788027324847
-12.0076536106082
-10.3607686931467
-9.01599902889608
-8.3424200137803
-8.53417523286373
-9.44317326889518
-10.6428512484763
-11.710072111268
-12.4621259557111
-12.9611323132134
-13.3874755830417
-13.9914920158812
-15.1290104022205
-17.1883051082528
-20.3380591498318
-24.3209059297297
-28.5580061050379
-32.5066203354367
-35.920131570465
-38.7884588061369
-41.1321452041746
-42.968464589879
-44.4718225737711
-46.0217496297739
-47.9391169913174
-50.1392623439291
-52.1076057245645
-53.2618085970108
-53.3216981428562
-52.3311982260484
-50.4279444205211
-47.7361082107893
-44.5057993462605
-41.2064662911865
-38.2996742718061
-35.868477444155
-33.5454275365941
-30.8600119905994
-27.6153105811912
-23.8876318119324
-19.758440431888
-15.2386462268835
-10.5344378105149
-6.24303351582158
-3.05759299371859
-1.18993136130304
-0.170514517945825
0.702193798364045
1.78311204518058
3.05901603604683
4.64270450711232
7.04029461548664
10.7247377289829
15.4957527351425
20.4855684338451
24.9126516653837
28.70889804188
32.2324358386689
35.3969859369163
37.3124839908117
36.9382800093095
34.0044039773432
29.1241041889618
23.0376978321661
16.0122242471745
8.18923410091707
0.411637390658541
-5.62231959229556
-8.25293312552429
-6.90779899874329
-2.23294633517503
4.66940077390616
12.9020983730703
21.6672914533071
29.8302062730382
36.001854279221
39.2304745491289
39.5259593673689
37.6156074205683
34.2671574937065
29.9554151207535
25.0651923137879
20.0846851742414
15.368733489438
10.8043159296736
5.96450180229727
0.683366340538631
-4.66465223057481
-9.5760916373511
-13.9980739189326
-18.3007089311212
-22.6825161674163
-26.8503444871379
-30.466794028501
-33.7727201431123
-37.4558696390696
-41.794408467984
-46.1280355430051
-49.3830186945671
-51.0472719481763
-51.4023790744008
-50.7994000536462
-49.0415629418522
-45.7771546068875
-41.3775182082032
-37.0093832088631
-33.6234432510193
-31.0768528996736
-28.5328386990277
-25.6303402762623
-22.872798362157
-20.728012715085
-18.7315512877616
-15.9655154996991
-12.3978766916098
-9.22704973362648
-7.55546576887896
-7.01927973683756
-6.29033829535486
-4.98204447685372
-4.44296823780301
-6.1054110143073
-9.23876348617977
-11.0390000043425
-9.29156901197748
-4.60663204421202
0.35655047982995
3.55747691800538
4.75934272284475
4.03729391503355
0.161585497394677
-8.43090412620332
-21.2256900282753
-35.5275880372239
-49.6490589518003
-65.3866916300771
-85.5482869415203
-108.278013656823
-124.997415360526
-125.601064839621
-105.700099141156
-67.0159684187393
-9.49573975239894
75.2687840614029
198.808876950242
360.538554672112
537.054216600687
688.568589002651
778.910770802425
792.03235443663
731.900915616539
609.78409402654
434.515973432588
215.30930988846
-29.0966919059938
-268.494670384081
-471.332503446727
-617.955601984742
-704.896440654467
-738.242708697124
-725.050696690597
-671.587027542723
-587.694644363244
-489.589763978342
-396.09536579925
-321.00843553172
-267.810732722838
-229.798202977957
-194.283210125085
-148.562394405448
-86.3114879392211
-12.2617159282191
58.6585496728582
109.490028223383
132.130262356515
132.144935645411
122.950252638229
114.691707410678
108.311202957351
99.6112532612365
87.5237756049735
76.9927119652498
73.8416082857889
78.3178877191527
84.9542046779038
88.4846743418395
88.6270386472579
88.5829067726265
89.9540204800538
90.6366189641552
87.9023220210936
82.2876890458443
77.2829530796553
75.3988828809524
75.6263462026926
75.2116899114156
73.1551185072564
71.0001484973306
70.2948428262773
70.3361739877996
69.1064370591488
65.9547349633827
62.3952413304167
60.0463193783578
58.5105617383886
55.950300418286
51.4983205219264
46.3149345442829
42.018069534279
38.6909989011184
35.1173919501507
30.8447244216397
27.247492061932
26.1169530090731
27.5722926889433
29.958603112225
31.8023985973525
33.2935238355827
35.5047266290673
38.5558667735439
41.218467150013
42.4441772053283
42.7369369167128
43.5341483486606
45.3998720184237
47.3482401354577
48.0808107062186
47.4472642131229
46.2727181289184
44.9453828613582
42.7715556734729
38.9825595540687
34.0025482186837
29.2195710266226
25.4996750298936
22.3528691224358
18.7915759659157
14.7033071964718
10.938322717358
8.07286596128944
5.57405146489983
2.5257918986216
-1.03650925964748
-3.97074477144939
-5.30307700876443
-5.31966377126005
-5.11818718691626
-5.26489095874046
-5.30333399721449
-4.65881759359272
-3.62809143552084
-3.09218126116153
-3.35091894338112
-3.66735912635153
-3.15962800291566
-1.89016039734156
-0.764177814101302
-0.442234216735113
-0.740962374150161
-1.2642047931139
-2.30135878526395
-4.66786679784008
-8.62636711801842
-13.3272295281421
-17.5701416942068
-20.9476055124395
-23.9179968915122
-26.7737039979497
-28.9376408496851
-29.5750914365129
-28.7292491725797
-27.4486477867971
-26.6805257179585
-26.3423496049943
-25.7751752612358
-24.9758320219193
-24.9693557467557
-26.7910300574966
-30.3575406462524
-34.6512245089138
-38.9354068820206
-43.4003876432042
-48.4285304816478
-53.5137088437253
-57.3456445531273
-59.0526847910463
-59.0755703761352
-58.6004948076338
-58.3036257982892
-57.9771190804914
-57.3905831558486
-57.1202669709995
-58.1661145755783
-60.8160837957525
-64.2326963298022
-67.3138283771706
-69.7551728386673
-72.0326558589874
-74.4519531589278
-76.5751620663153
-77.7450348901156
-77.9352585748275
-77.7530330235205
-77.5914175573853
-77.0669538848165
-75.4751507804379
-72.6351804637928
-69.0133910601712
-65.0256594022341
-60.5227182971446
-55.1708991154399
-49.1784296547176
-43.3224082489636
-38.1856449886024
-33.6154996670844
-29.1504659904324
-24.8571609481276
-21.437138860194
-19.4153340415777
-18.4602511830868
-17.7447950008617
-16.8922643341233
-16.2668879038157
-16.2240747990699
-16.3219841915085
-15.5778347324901
-13.4986047566102
-10.5918332976305
-7.71393959693939
-5.0941036784238
-2.25362746260333
1.15480625253716
4.75205609385777
7.87825193060707
10.4687744169779
13.1757639286493
16.5541892058998
20.3649765993985
23.8793882103846
26.7444551278288
29.2599134625996
31.7490596512224
33.9396512805266
35.2432113219829
35.5756942884511
35.5872701828949
35.9278069119996
36.4698190315085
36.5046660993723
35.6686302479076
34.4004449932641
33.354093240754
32.5773644381715
31.5803813730185
30.2304527077717
29.2818285551751
29.7803066835371
32.0274060267399
35.3647876304367
38.9973425424378
42.7745751716806
46.9737546341784
51.4767670584449
55.5173597718805
58.3835570170148
60.1676257627199
61.5783439518478
63.0537822473598
64.3072684213749
64.8357765613132
64.6466602866589
64.2122333265469
63.7445467829433
62.8203812815687
60.9147809121707
58.1570709420252
55.2854713857715
52.8156514615496
50.4810783397737
47.6585784079609
44.2087630558971
40.6335053833516
37.3751916388439
34.2274386989445
30.675739703973
26.7416187723017
23.2154620626341
20.9412604032741
20.033984264356
19.9725594003925
20.360824909601
21.3171172537023
23.0165314522561
25.0791294881109
26.6998085535288
27.3992146457407
27.4231468431431
27.2769566437044
27.0267692945563
26.2878966310287
24.8719379271754
23.1674892238344
21.7011894439736
20.4629579800387
18.9327773147954
16.8153956057048
14.5158976557504
12.7001635763283
11.4936293929166
10.3690376259631
8.87428357651014
7.23544488880361
6.02942280609422
5.36147504631028
4.65885141944667
3.38659281071339
1.75682660712335
0.482110755917997
-0.132914695341363
-0.590796464114607
-1.57609346375777
-3.12486257387189
-4.66511440318123
-5.84471293052091
-7.01902403895684
-8.72522176727852
-10.825934667086
-12.4689576625312
-12.9620508764852
-12.4755440701839
-11.7150150513969
-11.0406012917533
-10.1926907541585
-8.93643530245405
-7.7032470419841
-7.32063612431046
-8.14548350075735
-9.713622724496
-11.3411093500358
-12.878172393465
-14.6640067857716
-16.8310957889552
-18.9635831962226
-20.5864065971388
-21.7937603177744
-23.1189192563971
-24.7857987857311
-26.3451019156519
-27.1921271478147
-27.2617796690075
-26.9435476514812
-26.3310906054848
-24.8740668361268
-22.0022995602092
-17.962561839174
-13.7422581473969
-10.1124681943946
-7.00766824780213
-4.0616308764317
-1.59533422190923
-0.69968968844865
-2.18988719622352
-5.69667855059339
-10.0458852327465
-14.4584496429829
-19.0600377151975
-24.0925034278283
-28.9176541943001
-32.1923571940041
-33.0849652462989
-32.0447937501892
-30.1866053233209
-28.0932262852907
-25.5208423429364
-22.2616341989032
-18.9118388662861
-16.4687834819387
-15.2654062303216
-14.6379885552654
-13.7610905837623
-12.5699810770479
-11.6216258803439
-11.175352477072
-10.7801623308169
-9.91656647321479
-8.78322945654984
-8.1150837544155
-8.23782038769019
-8.6171327334048
-8.5181939634041
-7.90673710410036
-7.39677556201924
-7.3332748235208
-7.27121219663176
-6.58420263572586
-5.39642111569022
-4.55375592540293
-4.61020963704669
-5.14209776318663
-5.31100818349964
-4.95790282595721
-4.7930102052612
-5.42841066316323
-6.53846542714094
-7.28041346831054
-7.43961031853526
-7.78048040614852
-9.10660698380153
-11.2332608180496
-13.2077548722432
-14.4860352800298
-15.5234071902164
-17.0139219870524
-18.7954222962527
-19.8745260306226
-19.5447026729517
-18.1338141924265
-16.4227314463498
-14.5432653075254
-11.8428039635239
-7.90037130257084
-3.33694808549815
0.666776828107303
3.52177288739828
5.56567483696273
7.22163573680067
8.20558380505116
7.9129017309076
6.47666528716983
5.0304365882801
4.74331079119218
5.83770795853157
7.82307357298255
10.5330646223024
14.4680637189882
19.9175079174192
26.0698039902359
31.4305080997415
35.1392371912972
37.5151025944045
39.129280599281
39.6707192774992
38.184372242681
34.4214374834383
29.4736802702136
24.7289457082047
20.4181545320759
15.6479543206163
9.90368633379462
4.03521254375171
-0.636557357598236
-3.97140634375958
-7.23044803480734
-11.5111761133057
-16.415206088559
-20.7077846842727
-24.1010672627111
-27.7562702736719
-32.7571719484622
-38.5313527945857
-43.3503076198608
-46.3279262237973
-48.313694135848
-50.4899172383264
-52.5400003937528
-52.8858962182906
-50.7610404995621
-47.367911664927
-44.4892476447343
-42.3076995171231
-39.3389722103825
-34.6376260290071
-29.3494305463375
-25.4413294910278
-23.1945355714049
-20.8281229801973
-16.887111239543
-12.2608571985593
-8.99817298985891
-7.31851530268932
-4.8583759491668
0.505430301462432
7.69176228011764
13.2726726588081
15.3368251076746
15.4890945173404
16.2813801786937
17.3004546410866
15.171504193847
7.88071398164532
-1.94436287232979
-9.25147560083904
-11.9244893539931
-12.8244700389716
-16.1351304180987
-22.8814277167359
-31.4223041892292
-41.8166928816993
-57.2017347172522
-78.8263738510394
-100.315614131772
-109.326904013066
-96.396122828068
-61.1180818143864
-7.67096064485843
65.5233661856178
168.454377486443
308.065976359026
472.688533832444
629.332986432328
739.113957638907
777.67591921425
742.633925191314
644.064192311131
491.273768237765
290.674361846514
54.9425583873322
-189.845735420467
-409.846423124771
-578.008870713397
-684.186181399169
-732.801954853413
-732.967864214069
-691.777652473598
-615.49850666748
-514.175140209584
-402.953468135839
-298.530989570361
-213.997342562029
-155.141741172861
-118.833067478301
-93.7854985994429
-65.1392857748413
-22.653461720577
32.1998983081284
86.6494770322031
125.65947541763
142.549891810915
142.09694023536
134.142403719392
124.864634392625
114.224543913311
100.599540379762
85.9733477369836
75.54564405849
72.7941636819658
76.0950836177804
80.5653075580693
82.5784370446262
81.9623896584214
80.3719077644153
78.7585437425839
76.976763552059
75.1095168408362
73.9921121841238
74.0762324917594
74.4275585559128
73.5389532268441
71.0725054674264
68.2589163303275
66.3859151381508
65.2892552204727
63.7211540129352
61.0192563981873
57.890784256107
55.3961173377493
53.5812695920035
51.5574545334445
48.8201896389429
45.9806576716506
43.9480848694748
42.7001186072135
41.2921878039873
39.0676809648753
36.4439924594543
34.2557396843915
32.5689946389454
30.5535781688238
27.565179466859
23.994142767739
20.7829215120613
18.287855103104
15.9917072108849
13.3997999695184
10.8773118887093
9.29237889151416
8.9338731407637
9.12690143806241
9.03626323247115
8.59824520914823
8.39596921737522
8.71138229929365
9.0462742704396
8.73453525826255
7.80505210211091
6.94340013009335
6.61318112810251
6.49655977217262
5.96111863366604
4.89918059089094
3.82983484804243
3.16924087543736
2.67513334637432
1.80282736976787
0.469604025581059
-0.815456924963435
-1.63518548974159
-2.24733291389808
-3.28714277658699
-4.97687210905542
-6.87086385626635
-8.44245990416627
-9.70939523855325
-11.0668175055831
-12.5688291661358
-13.6389926645422
-13.626971659165
-12.5192009902614
-10.9148030044519
-9.33163783224711
-7.74680256170302
-5.92116970559994
-4.01269757923742
-2.62954365635437
-2.24324123219225
-2.7285837748317
-3.61369667918975
-4.68877556990801
-6.18237453721533
-8.32057943485289
-10.8989209913778
-13.4453711619792
-15.7425911884704
-18.0091675450375
-20.5184535327188
-23.1896837614216
-25.7049984816764
-27.9849001106593
-30.3739108099788
-33.2810380911106
-36.7418350148537
-40.4549588009733
-44.2027886965817
-48.0693920677954
-52.1730837452088
-56.3028454651154
-59.9775533592974
-62.873516016304
-65.0732910738667
-66.8340702491816
-68.2111502959496
-69.0396511974348
-69.2659643703432
-69.1385639335889
-68.9694522129743
-68.7780273265967
-68.303350242881
-67.3781793734095
-66.1676230464302
-64.9551872616627
-63.7694820579592
-62.360528253072
-60.5607082282079
-58.539401945895
-56.5953469279082
-54.7525619483888
-52.7006410064262
-50.172170636881
-47.2694615269456
-44.3133256892206
-41.4129838974172
-38.3212732263653
-34.7616893283377
-30.7947264804427
-26.7470211579323
-22.8091697377358
-18.8422817044817
-14.649673078902
-10.3518356974239
-6.36755135961284
-3.02080221185646
-0.272362824328383
2.10722750256485
4.19029497658886
5.8436846611796
7.02466922576812
7.99296497585745
9.12505296187075
10.5539568843811
12.0921202125962
13.519703491534
14.8465153976942
16.2141105587488
17.6026105484021
18.7671750475703
19.5076487402918
19.9154251054728
20.2663147819398
20.6994109016626
21.1021921919477
21.3391147236386
21.503246693601
21.853221076512
22.5320822880931
23.4537644730578
24.4991590720129
25.7308371786525
27.3116896589248
29.2300050775606
31.2143927738833
32.972877768962
34.44725636041
35.7481184194384
36.8739262408449
37.622119174639
37.8402897826205
37.6794971611843
37.4692674938362
37.3243902594951
36.9761161593704
36.06526697526
34.5488916522184
32.7200570849922
30.8370749330761
28.8656137008576
26.6872567068299
24.5058051553977
22.8971208167801
22.3807959993141
22.9936805057014
24.3464813968814
26.0497645805536
27.9688482844433
30.037212100019
31.9483172416889
33.1875187261988
33.4003592166281
32.6501123631329
31.2657631643664
29.4990648770223
27.4107819048527
25.0594092545477
22.6663124140598
20.5068448336574
18.6862814162715
17.1207253565287
15.7454529919169
14.6501000549998
13.9499314903477
13.586793529597
13.3630242135177
13.1814228040378
13.1555591666577
13.4164197408782
13.8694385361452
14.2518800260755
14.4407614204869
14.5958778146478
14.9119935514869
15.2798015842153
15.3135621051898
14.7484770136688
13.7203184016676
12.5737030316612
11.4550610528018
10.2359394617683
8.88040833484359
7.76464499153926
7.47931340907703
8.2944941373512
9.91346209047273
11.7986242406909
13.6500883224279
15.4546288774499
17.103491789778
18.1434709207355
18.0448178365099
16.6851869897447
14.4538433728361
11.850764490176
9.07276544793408
6.05321917659956
2.8171929893505
-0.364840224806644
-3.22160193990759
-5.76446159253594
-8.20772669106063
-10.6289273350939
-12.8237527557736
-14.5361383377563
-15.7332865452939
-16.551791474112
-17.0161458983561
-16.9581476379201
-16.2821597551932
-15.2140969476736
-14.155886630059
-13.2937794740395
-12.4689773096045
-11.497215888567
-10.5232340532188
-9.92590348939319
-9.87418987717881
-10.1116795492688
-10.2683612328886
-10.3074361221749
-10.522491777897
-11.0793391979548
-11.6996598259758
-11.9128788153452
-11.5688000407537
-10.9626490165337
-10.4242728773573
-9.91041070534322
-9.1157888482472
-7.926083495471
-6.59370292865716
-5.40421061050596
-4.29105509638112
-2.92626204577479
-1.1765886331649
0.673214280760089
2.21443065460116
3.32219067207393
4.13971775633989
4.69740606649354
4.73497736869707
4.01610534197868
2.72811805471078
1.40001639722393
0.393484701130753
-0.398012711584208
-1.26252424730264
-2.18958510631619
-2.85054182855412
-3.07141076994679
-3.1458309241341
-3.51831535472911
-4.20480601833384
-4.70255749349892
-4.53748156337289
-3.77467015872255
-2.86021314373047
-2.02884227018784
-1.06952074571134
0.247801503258891
1.6738852980583
2.61126049950223
2.74714898634698
2.38386294717115
2.03951653405336
1.83517128950364
1.45137043771098
0.675217679980756
-0.220795333450916
-0.78977946187835
-0.996517146155242
-1.28135940194674
-1.99442378123907
-2.9395001546268
-3.63600240904481
-3.96132774651282
-4.33054706551343
-5.18282029578334
-6.46215565006308
-7.77812761389778
-9.01008146767787
-10.5126105642422
-12.6130272694993
-15.0589609009753
-17.1733142405057
-18.5506864498591
-19.4061402704858
-20.1396325418176
-20.7189416024273
-20.7225852927987
-19.9888790487625
-18.9772995589702
-18.3030661425578
-18.0090971789484
-17.5250769093531
-16.3918510661991
-14.8303855990809
-13.429749025274
-12.3747174952591
-11.2267348538557
-9.53176994191415
-7.43583579006014
-5.48877059258619
-3.90271713007288
-2.25798024389569
-0.0571120351828487
2.58339704008049
4.9698539955214
6.48430772004371
6.96734555978518
6.4031338381002
4.50015689540287
0.908975936902635
-4.12033238551989
-9.54366369469455
-14.1366333780014
-17.1718026394204
-18.3230775090509
-17.0625293217253
-12.6023162422532
-4.72738988615754
5.47426493713609
16.0826293735811
25.6683105694902
33.9476920678461
41.0049119395575
46.156573969433
48.0704519888675
46.1509183405796
41.4535146923239
35.8229664621295
30.1504290729151
23.831667711482
16.0704724938637
7.35857507773714
-0.766173367993247
-7.37985020897606
-13.1119349517507
-19.134407999643
-25.4770824101645
-30.8151380950566
-33.9749271603683
-35.2016797351814
-35.5920243559682
-35.525651341938
-34.2244194128734
-31.0224445080803
-26.6142395670699
-22.562036691532
-19.682049793078
-17.4507067434677
-15.1944774630008
-13.3776992808658
-13.1264753798987
-14.552512563843
-16.2119715197756
-16.6355422538075
-16.0378546584528
-15.8962584333557
-16.8445381288582
-17.6817027005843
-16.9594240092043
-15.1301899361201
-14.2394788328969
-15.2351704538134
-16.2894490047822
-14.5695057071189
-9.54935981521564
-3.7546731934891
0.124272307411158
2.17342431430815
4.44062632680666
7.3128820140075
7.82386442151956
2.43573761944448
-8.80394659905562
-21.7792492470424
-32.1659528982582
-39.0480913066324
-44.2568829152568
-48.9989132117305
-52.6396141111503
-55.147655727662
-59.2175891108722
-68.0747761355283
-80.8401103695271
-91.2619505067806
-91.7560717140452
-77.5552284622982
-45.1447452730498
12.9128637000968
107.902659217169
245.120833051901
411.89861752561
576.686884182594
703.059125873398
767.255072006088
763.957153383004
697.55717765989
571.413385031351
388.227397157339
160.196361747833
-84.9040032742037
-311.479684251604
-491.866730074066
-615.42649294465
-684.252142844818
-703.354832173984
-677.257717664742
-614.697610628359
-532.126579432285
-448.505523347818
-375.587686987596
-314.333838340069
-261.055040822073
-215.212728639104
-179.216618207426
-151.160890433293
-121.068588970282
-77.681481505059
-19.9830972034801
39.1673647295449
82.2719810711979
100.716625248477
99.7602649560914
91.528785760326
84.5036480162621
79.6974705757863
74.8623900524307
69.7921144408389
66.7397995520496
67.1504661837829
69.8935584584693
73.0593692843461
76.353620883704
80.7764208706813
86.3270369952408
91.1137575553605
93.158141237547
92.5109726539786
90.965974063699
89.8638242590833
88.8307109572621
86.8375676800198
83.8812466862811
80.9883417525079
78.6988038155691
76.2426131305203
72.5789322275704
67.8804913929017
63.446411178141
60.1545375535848
57.5042961806755
54.4766672199522
51.0108640312097
48.1184044303619
46.5125840335151
45.6090518374814
44.2370917527737
42.1214516232243
40.185624157009
39.2917967298293
39.0744469930373
38.370424683017
36.6503308209458
34.5875313678338
33.0807565948961
32.0679778610129
30.6852360643163
28.5144526460387
26.2457189916784
24.8834556164809
24.5394631555976
24.3628302284658
23.648124975793
22.6615819443569
22.167360601853
22.3657149347936
22.6730065203187
22.5906068718508
22.4512001538512
23.0222146727331
24.4829848694127
26.1134405696623
27.0783674991055
27.2653991813655
27.1206388564491
26.7944410190142
25.8112898911548
23.728762105412
20.8842328246374
18.1813771417111
16.1335790897184
14.3713932974808
12.2248822660021
9.60224733574647
7.03333046829981
4.87635566977335
2.79221572345611
0.218057448723135
-2.77214933688297
-5.36871397119851
-6.86279783600956
-7.38686616106767
-7.6588607903723
-8.10723398219146
-8.50757482800378
-8.53933456628667
-8.45468138182356
-8.93324975995686
-10.2971880473361
-12.1123739409158
-13.6980577437288
-14.8934235056963
-16.1234415153552
-17.7374798332795
-19.518164184965
-20.9822488245993
-22.026813685354
-23.0373572728494
-24.319869310586
-25.629942962015
-26.4412988004501
-26.615602927986
-26.6103783569369
-26.9716849345454
-27.7801695883594
-28.7422543211096
-29.7407862033464
-31.0610965090952
-32.9716748854909
-35.2273384535118
-37.1883577374728
-38.4480615766089
-39.1958483651471
-39.8844610450902
-40.6602437323495
-41.28646196203
-41.6085175895573
-41.892701398859
-42.5571866299095
-43.6378900231999
-44.694917081328
-45.2958324046199
-45.468692524796
-45.5706599768332
-45.7772845683109
-45.8594570432611
-45.4972456026894
-44.6665545682634
-43.5723263657788
-42.2450217360441
-40.3842882673429
-37.7016588906368
-34.3389764233552
-30.8278884476334
-27.6501232719758
-24.9587629133554
-22.7668000971718
-21.2594416116762
-20.7261589396562
-21.1550177578467
-22.0419789068146
-22.7362231100598
-22.9553408291638
-22.869636500146
-22.6958092927592
-22.355507488249
-21.637781731401
-20.6122764165102
-19.6898351636363
-19.1891878410467
-18.9396009885158
-18.4408526697905
-17.4079856302759
-16.0421308862041
-14.7198751984136
-13.5276795776923
-12.2386152843099
-10.7276979911481
-9.24195955405053
-8.13759305595395
-7.4069321390752
-6.61238768611543
-5.33715806642454
-3.6080652191009
-1.78421091512161
-0.0787542240029588
1.67681234138382
3.75698343524981
6.14900882374429
8.56557004183342
10.8370146518096
13.154956897288
15.8287438981814
18.8384760560488
21.7228362502482
23.9222021536665
25.1608800639518
25.4654366149428
24.9134448719367
23.5206605636309
21.4246458474194
19.0818557306957
17.1564962683137
16.1736816903888
16.2999859758635
17.4327791533245
19.3968763046581
21.9765941299981
24.8132926783888
27.4250498134636
29.4340558942645
30.7638170942734
31.55834254952
31.9157443442031
31.7656555452681
31.0253586171644
29.7956017291208
28.3064477061083
26.6708994632146
24.7843660236871
22.5333672852063
20.0635779866996
17.7520267856837
15.8853130006216
14.4129950422095
13.0503879270382
11.5732973801103
9.93690916552293
8.12144742951989
5.98489061155151
3.38317814497678
0.434130091152369
-2.42541219575274
-4.69762353532521
-6.11095685550133
-6.62712967651409
-6.23533593349204
-4.87182655830032
-2.60121850407978
0.205932898683884
3.01085349013129
5.47087503618116
7.61389345139731
9.60573468890426
11.3935824745578
12.6705247390052
13.2037126734676
13.1027220526957
12.6747724620835
12.0417129934676
11.0094438194222
9.37237858509096
7.28431910580876
5.22917927105222
3.60924625475008
2.43192845901803
1.44570105918191
0.527202591584029
-0.157957242333824
-0.379989072711873
-0.126435172159077
0.429569896674582
1.21387764947827
2.39777358324673
4.20115896318425
6.59015919497497
9.23295252190218
11.7448162897995
13.9103851962425
15.6512627533967
16.8713663981594
17.46074856662
17.4840502119332
17.2843056122532
17.3082541458433
17.8116996346068
18.7623767030831
20.0093706861693
21.4620413467094
23.0488670750232
24.561941420394
25.6738147364641
26.1837311009938
26.212566069969
26.0846398591339
26.0103572429903
25.9337821950907
25.6991565942531
25.2854261769217
24.7873822941135
24.181858210881
23.2307911995965
21.7110212635108
19.7185395427728
17.6552235923385
15.8777619547153
14.4120881975527
13.0628437007654
11.7547507535519
10.6562767177984
9.92845423046913
9.44195717240641
8.86292848913076
8.03308448344285
7.16591597669468
6.58035792095367
6.26502056655635
5.79293223369438
4.69336667851834
2.84329203859055
0.442575175976086
-2.32701050495866
-5.47142851203409
-8.94324319717131
-12.3106424855937
-14.8121607452745
-15.820544536646
-15.2448073302297
-13.4727646212358
-10.9902658507634
-8.14012534719129
-5.22688853349889
-2.70058896464747
-1.07364603162755
-0.611001220213176
-1.15816689453537
-2.3168594546164
-3.76327580970618
-5.369518414128
-7.07898121095894
-8.78907260245893
-10.4161363059314
-12.0052164397348
-13.6612816797586
-15.3436698911382
-16.7983738276745
-17.750501249768
-18.1282638924763
-18.0295243130027
-17.4848923119783
-16.3642990549222
-14.5945894714289
-12.4120322320867
-10.2687297136143
-8.43694540441774
-6.78345502620758
-5.02804750630843
-3.2032057548798
-1.74655022928468
-1.08438657060901
-1.19783726766996
-1.69733418254428
-2.29781104271328
-3.07763515141408
-4.17920219316646
-5.33651568634803
-5.86894297980036
-5.21881107695434
-3.42949129251414
-1.01964313324155
1.56502738096323
4.26308765911152
7.16740763548716
10.152786034274
12.899314413315
15.2717535706998
17.5086060094163
19.9165178779707
22.4267720855393
24.561235689123
25.8196243637059
25.9634230077126
24.8630489198813
22.2284440236217
17.7408367209832
11.5292381244172
4.35484775497561
-2.87311606744778
-9.78127229197362
-16.6196766204952
-23.652833836567
-30.63308889038
-37.0410924235099
-42.7692234547656
-48.2866368065128
-53.940749626279
-59.1952973129279
-62.8027309537697
-63.8278323127069
-62.3929595595439
-59.334450137291
-55.2757951270777
-50.291120963472
-44.5134097663866
-38.789338811877
-34.4055512361812
-32.1068783085384
-31.5539018934301
-31.8371754809002
-32.3760985199281
-33.1412676252018
-34.102379526727
-34.8019228527124
-34.6789875404221
-33.6606260946741
-32.1621133758397
-30.5100530436031
-28.6583751631878
-26.6166094531173
-24.827581307496
-23.5899845733705
-21.992108590046
-17.9509280582341
-10.0284494581837
0.527815688404094
9.86359231254272
14.0796606743762
11.93465958795
5.09759027812753
-4.02696785589002
-14.4171937673446
-26.5067130686135
-40.8214242577531
-57.1591216823249
-74.9308418878491
-93.3817569697016
-110.742613108424
-123.374346062644
-126.469410937333
-115.680087118828
-87.1921708264668
-35.6447047916516
46.6407910528993
165.086117036966
314.409523150027
474.083189289815
614.349744247787
709.942068143552
750.117413118546
736.255847010115
670.806496169932
550.767842427903
374.181119042191
153.374020762788
-80.2433874844672
-287.719194168259
-441.865203230078
-537.625820890097
-585.776131593488
-598.574613951719
-582.283339784078
-541.7056494899
-487.771508777813
-436.534905667586
-399.001488619832
-372.779029578148
-345.370856456561
-306.508018287131
-257.253989256478
-207.231494908642
-163.866449347504
-125.319063851769
-83.999514400258
-36.1785137342478
12.5732331726217
51.3208924882858
72.6894578052001
78.2342455634473
76.1502287694593
74.5931279357194
76.8627748881139
81.5824097460554
86.0682833584041
89.1095691588192
91.1709863769227
92.8786469419951
93.8314604579573
92.8764829862922
89.3820277939354
84.1898687605405
79.3096678015035
76.5593544702133
76.297642417487
77.3334640425093
78.0376410955228
77.5891178572563
76.255229384867
74.6742519190692
73.1126901590408
71.5062911729619
70.0259898653222
69.2691362688114
69.7307546871289
71.2089041748838
72.9331735467592
74.2924322087213
75.2637086992731
76.0291564381228
76.328266617971
75.4499275237806
72.9417778852455
69.1602244602154
64.9436608636434
60.7780553822783
56.4560762404444
51.6062763709507
46.3908131958556
41.5029812536055
37.516063082526
34.4367435993449
31.9907757214519
30.1872280268568
29.3652904242537
29.6451293322259
30.5129530657147
31.1114527998106
30.9087556182139
29.9625991546009
28.5513809731665
26.7488830315848
24.5194801954565
22.1446292254275
20.3066650497527
19.5999305082997
20.0132484870646
21.0010992506371
22.0376635854513
22.9760661020104
23.8429749533852
24.449969894987
24.4030584155349
23.5072842987695
22.002967586256
20.2841477598258
18.4392348249317
16.1933510632828
13.3111274309388
9.93821637250791
6.47745595027245
3.22344792637408
0.263502886258269
-2.26749669059554
-4.01480309686751
-4.6495026583074
-4.27717261436802
-3.48454483704806
-2.92991495564344
-2.94637579776908
-3.57423662828459
-4.85253915830934
-6.87909375232648
-9.52495258833255
-12.2371007873995
-14.3118332923944
-15.4102068249202
-15.7318621465151
-15.6626163053818
-15.358161614669
-14.7692759934277
-13.9958434557407
-13.4055913310758
-13.2822947268701
-13.4451367101855
-13.3879270178322
-12.8456241310791
-12.1287829612193
-11.8272283240208
-12.2558124055847
-13.3099304738381
-14.8442334264197
-17.0134461783379
-20.0941239268221
-24.020181594781
-28.2665513544121
-32.2786606601424
-35.9464432476965
-39.5684690976749
-43.3960300500364
-47.3394233699405
-51.1425083081865
-54.6967955798444
-58.0284738103613
-61.0019036309755
-63.2119929472717
-64.2873483978678
-64.244180888325
-63.4287821826837
-62.1209430432064
-60.3188094992763
-57.9671694617504
-55.2689681337052
-52.5926167720694
-50.0567041071969
-47.3754577570431
-44.2652124071634
-40.967608239349
-38.2218574503765
-36.6596442743751
-36.309290320151
-36.7565958472578
-37.6805732630741
-39.0294752813583
-40.617105632801
-41.7333466990898
-41.4038058754176
-39.1225161197335
-35.2509598744948
-30.641584754895
-25.949111107052
-21.4006956007258
-17.1487566766746
-13.5896894136793
-11.1432672406425
-9.76477777909331
-8.8630300775906
-7.8002439205799
-6.41536491434536
-4.99330485782573
-3.79976849764801
-2.79589334999502
-1.82718789061735
-0.922494655919946
-0.23019844664749
0.327433834982914
1.168729024877
2.71099349547335
4.96414009441104
7.55578454880336
10.1322575178988
12.6134423215965
15.0192039426863
17.1917605818025
18.8757828497021
20.0936489565436
21.2872747442212
22.949991186991
25.1349475146125
27.4191447853416
29.3485442773882
30.8038063277483
31.8721588825374
32.4852426880034
32.3829773902843
31.4918262210879
30.2022503792743
29.1169746037872
28.5195978882739
28.1866943443126
27.7373786200277
27.0476456064678
26.2277919666469
25.2870475220016
24.0327053037252
22.3980519866954
20.7517030954369
19.7026549330312
19.5632816718518
20.1076304141662
20.9103720875803
21.8176370280836
22.9549789744925
24.3187619388728
25.569581679231
26.3723224551542
26.8590881318517
27.5626933197689
28.8194892050148
30.3390929813441
31.461378002067
31.777596488887
31.3675702666625
30.4396534228213
28.9410002709957
26.7055787365443
23.9405140347511
21.3493589761004
19.6323578257436
18.9135436556935
18.7562578872256
18.6966498441288
18.6107972871983
18.5245827553346
18.2533428043118
17.4664907444076
16.1422075716633
14.7797170310074
14.0022702641016
13.9765261669567
14.3339318160914
14.647802030419
14.8284681652597
14.9620099939898
14.9036745168485
14.2758978201432
12.9473531637765
11.35943113912
10.2003221378009
9.75903990092631
9.72341403443814
9.63035023885658
9.35794418234233
9.04761320717288
8.64982938445343
7.80511653554513
6.29484613942858
4.46802027060236
3.01172264737793
2.2745953459458
1.96181922200598
1.56245443457986
0.931860164413605
0.282394892515152
-0.330752221145525
-1.22901687507875
-2.63230078944389
-4.08306783715896
-4.61702091662972
-3.61466739061739
-1.36303360765319
1.32661629104354
3.92541303683163
6.38803626984831
8.55809464100878
9.68626784861682
8.8612665519822
5.93937073063304
1.82093582326229
-2.33247515589273
-6.03898555018399
-9.50697395156428
-12.81487284944
-15.3959764272343
-16.5170732423482
-16.108030374268
-14.8293464385899
-13.26608036991
-11.288510660014
-8.40826131630326
-4.66243901774485
-0.875666849773664
2.03662398976727
3.83258049925986
4.84822112573484
5.28190461400228
4.90004155443281
3.58187831912505
1.92988577476375
1.0256406257385
1.51981172166617
3.13600261474229
5.15233036716984
7.18370054410332
9.26370677016342
11.2281262594142
12.3688274928032
11.9531820790714
9.99609409385569
7.26719744432771
4.4800846093862
1.66725862625938
-1.51742675078934
-5.05614653195409
-8.4207671500562
-11.2018537658466
-13.60466878265
-16.0770975601186
-18.5441379381641
-20.3145164465465
-20.8553179855963
-20.4478974213775
-19.8579425943539
-19.4541125134519
-18.949652080009
-18.0921592962737
-17.3088171341645
-17.3330699771559
-18.2291784167008
-19.1362783565658
-19.1894729368203
-18.5179050027962
-18.047830596862
-18.3537883161959
-19.0410489994184
-19.4405876053005
-19.6393553320219
-20.3892838416893
-21.9289737902925
-23.2709898134478
-23.0016909008763
-20.699784267013
-17.2370460938619
-13.6305009675563
-9.96439805773794
-5.7613479675056
-1.21991201638144
2.4555972220627
4.21771852571104
4.38888860263911
4.32154447916855
4.87776980708171
5.63814959908462
5.80092752211245
5.5191476048782
5.86436487336797
7.45508933958296
9.59835943134726
11.1371390143843
11.9166252534978
12.914468807212
14.8193979106161
16.9094933991039
17.7159586813782
16.6146201296926
14.2748597477689
11.4440126632431
7.79112149224879
2.44628265960226
-4.4652065427787
-11.4329704978072
-16.9924617564976
-21.1933921580214
-25.1947005772179
-29.5357421008758
-33.4127334673919
-35.9361304595524
-37.6088401935802
-39.8653324517642
-43.1146869915402
-45.8943698783746
-46.4410372652583
-44.7880373491256
-42.6672759331651
-41.2983708275122
-39.9765102717717
-37.384229772613
-33.8993185213541
-31.6853548964439
-32.1797869387133
-34.140944779302
-34.9114745274247
-33.4496804265354
-31.295413593788
-30.2381051809062
-29.7671141233977
-27.7166611594838
-23.3032887996933
-18.5017855037805
-15.8064994488924
-15.199978582158
-14.2369375298939
-11.0077620476957
-5.91873309915488
-0.00109526274468408
7.47541029458779
18.0537992550074
30.506636194216
39.7570203779949
40.9539003754767
34.4122884361818
24.9862241477937
15.9480165590493
4.89668683970831
-12.5324294300613
-35.2647552523496
-55.4955553374967
-66.5343996060761
-70.9429614689066
-78.2798712855639
-93.6176013133426
-109.704481090105
-112.161511545162
-91.6186129678076
-48.1213274592518
17.0219432496332
109.941251336985
239.108115044788
398.942724619196
560.941229664571
685.785980403893
747.019098638719
742.804191697118
684.688843404515
577.886293017298
416.79384287496
201.1391118169
-46.6184496344534
-284.40741214543
-473.329947103292
-597.887805632671
-665.344480065097
-689.165495219337
-676.537360135428
-630.99823974432
-561.541900710242
-483.507026598757
-409.547101780735
-342.644360384675
-279.951275336849
-221.459956385561
-171.224704757834
-129.501412616678
-87.5662036304772
-34.9104689148732
27.4254539257688
83.3898220530432
114.62287431514
117.068081314984
103.983854999649
92.5699660436345
89.0925207089462
87.7606188246826
82.1494780949417
74.4715970132071
72.4680904282172
79.240783569402
88.953939615863
93.081417253703
89.1285623552358
81.8779208208907
77.0372966396051
75.6828598816918
75.3149988403837
74.4437426553481
74.098512265069
74.9797727400355
75.1021516704621
71.6488127307851
64.5808318764931
57.0050904042722
51.6756730891542
48.173413143988
44.3354158233339
39.8353892084677
37.0576611044392
38.1119575858866
41.9626796294821
45.4426357789013
46.8024909636204
47.2263585580286
48.5461985865578
50.3684663681773
50.4385504975966
47.669836592611
43.7573833992243
41.2320742819779
40.5067028775458
39.7217312913128
37.4757325394102
34.8039296198745
33.8741331814621
35.2114441870023
37.1042533440835
37.8839379533691
38.0170293561271
39.3019734366879
42.3219120766961
45.5355602630745
47.1484708128965
47.2619517277839
47.5291895744571
48.8794121073033
50.337210505691
50.3957404578903
49.0059659038209
47.5271529145332
46.7822611084276
45.8738312543274
43.3431082901075
39.1182013865917
34.6889832517531
31.3360434027851
28.7850380405362
25.9996120958569
22.9273293732201
20.7738597770302
20.4107148195528
21.0574410031684
21.0322072298225
19.6270975256425
17.694284135743
16.2560514279886
15.0477507855396
12.9275802633287
9.55442017237294
6.04150986105311
3.67438152964658
2.36792457460267
0.886371058725723
-1.48025301945999
-3.99264124958536
-5.47333829739674
-5.87352882313811
-6.32177118609168
-7.63464880213498
-9.30907908217963
-10.33953152708
-10.7441762290823
-11.7299460386902
-14.2360212135221
-17.7489488657602
-20.9234058641955
-23.1646284353741
-25.0936019251415
-27.3442991199302
-29.3797454860688
-29.9823031636862
-28.8237700066084
-27.0480850543557
-26.0626240581414
-26.0673906785683
-26.1797945927209
-25.9146575734465
-26.0250433060585
-27.5936849032146
-30.595119665715
-33.8479182329295
-36.4427237814675
-38.7970721222758
-41.9877890119103
-46.2617317651388
-50.664206240006
-54.2233628066964
-57.0999740650108
-60.2113276538091
-63.8796953018872
-67.3185315943725
-69.6184013909252
-70.9005799019401
-72.1111264814751
-73.7487380021981
-75.2154708610103
-75.6230200112848
-74.9578832388032
-74.072518089352
-73.563711739252
-73.0664506191673
-71.8906683692477
-70.1028739913411
-68.5611373338474
-67.8259862465743
-67.3794185907114
-66.1740583657363
-63.7734007138928
-60.5950299760703
-57.0140323178516
-52.6274427631178
-46.7431398842075
-39.4673322144815
-31.9095467638021
-25.1685373427573
-19.381528202359
-14.0381754805721
-9.07568413760573
-5.23350064044079
-3.15269286750712
-2.41929397222769
-1.87179182517252
-0.832846333836034
0.316446264468491
0.954978884099322
1.33058078725801
2.46121046210191
4.91885510127567
8.07475284604127
10.8018756916521
12.7318133044062
14.4451521134033
16.3860163230077
17.9770464806701
18.1509724784563
16.6476107662083
14.4018895871511
12.5109573085931
11.092855889902
9.45721841847899
7.28314011706966
5.21368684826693
4.09351842753106
3.88570177985191
3.71893706101225
3.01816020911386
2.25574325193058
2.37744284940389
3.68906835131504
5.64439742881764
7.72878318026252
10.1820232053209
13.5717691046918
17.8165579867653
22.0162288326539
25.365383819546
27.9662167270789
30.4821985026077
33.1156761576695
35.2843997035146
36.419615104919
36.7880425440122
37.1936490025223
37.9174659915424
38.3022289597613
37.5687308150121
35.829798423262
33.9907989489798
32.670797411174
31.5481003864142
29.9598904275643
27.93204546837
26.2631632144564
25.5520890388065
25.4573394686743
25.1647262874084
24.4443227454196
23.9150037607592
24.1980075649684
25.1024226977353
25.9104370781222
26.343627793184
26.8897101501749
