Value(μV)
20.409252166748
16.9759197235107
15.2592544555664
12.9703664779663
18.787956237793
19.9324016571045
21.5536975860596
23.9379558563232
24.3194370269775
29.8509159088135
29.278694152832
22.125919342041
23.8425846099854
28.9925842285156
31.6629524230957
36.2407302856445
40.3416519165039
43.3935050964355
42.0583190917969
39.2925796508789
40.7231369018555
38.8157272338867
39.5786895751953
43.2981338500977
38.9110984802246
34.810173034668
36.2407302856445
37.4805450439453
38.8157272338867
41.6768379211426
41.962947845459
38.7203598022461
41.0092468261719
41.8675804138184
36.0499877929688
37.099063873291
42.5351715087891
47.6851692199707
54.8379440307617
52.6444282531738
45.7777633666992
43.2027626037598
38.8157272338867
34.6194343566895
36.1453590393066
37.6712837219238
34.6194343566895
30.995361328125
30.8046188354492
30.4231376647949
33.1888771057129
39.9601707458496
39.1018409729004
34.1425819396973
34.5240631103516
29.3740653991699
23.0796222686768
31.9490642547607
39.2925796508789
33.761100769043
30.995361328125
31.6629524230957
29.9462871551514
25.4638805389404
22.4120292663574
25.6546211242676
27.4666576385498
30.8046188354492
39.6740608215332
44.0610961914063
51.7860946655273
65.5194244384766
66.3777542114258
61.0370178222656
57.9851684570313
50.9277610778809
43.679615020752
36.431468963623
28.8972129821777
22.5074005126953
13.5425882339478
6.38981294631958
11.8259220123291
15.2592544555664
3.24259161949158
-0.9537034034729
14.1148099899292
28.3249912261963
29.6601753234863
21.839807510376
14.687032699585
14.1148099899292
13.0657367706299
4.1962947845459
-8.48795986175537
-12.8749961853027
-7.91573810577393
-6.38981294631958
-10.9675893783569
-19.8370304107666
-26.9898052215576
-24.7962875366211
-26.3222141265869
-34.810173034668
-39.197208404541
-39.864803314209
-43.4888763427734
-48.6388740539551
-51.7860946655273
-56.5546112060547
-59.9879455566406
-61.8953514099121
-60.7509078979492
-52.1675758361816
-44.0610961914063
-43.679615020752
-47.2083168029785
-51.7860946655273
-53.0259094238281
-41.962947845459
-32.3305435180664
-34.3333206176758
-30.995361328125
-25.9407329559326
-29.4694347381592
-27.4666576385498
-20.409252166748
-22.9842510223389
-24.4148063659668
-20.1231422424316
-22.6981410980225
-22.6027698516846
-12.7796258926392
-4.95925760269165
-0.762962698936462
2.00277709960938
-2.1935179233551
-10.4907369613647
-12.1120328903198
-14.9731435775757
-16.4990692138672
-8.10647869110107
-5.34073925018311
-6.19907188415527
1.62129580974579
9.15555286407471
11.0629596710205
11.2537002563477
8.20184898376465
2.09814739227295
-14.3055505752563
-48.2573928833008
-80.4925689697266
-108.531448364258
-157.742538452148
-214.487899780273
-234.706405639648
-222.785110473633
-212.866592407227
-207.144378662109
-179.868453979492
-114.539779663086
-38.6249885559082
34.4286918640137
143.246246337891
307.092498779297
519.672973632813
790.810852050781
1089.98767089844
1351.96997070313
1584.00598144531
1793.43920898438
1928.0068359375
1979.31604003906
1939.83276367188
1756.7216796875
1391.93005371094
897.81640625
417.435974121094
-16.4036979675293
-441.850769042969
-767.158996582031
-940.828430175781
-1054.41442871094
-1131.56909179688
-1138.05432128906
-1103.33947753906
-1039.05981445313
-947.790466308594
-871.208068847656
-833.44140625
-833.7275390625
-847.270080566406
-853.850646972656
-854.518249511719
-830.675659179688
-774.121032714844
-710.032165527344
-642.509948730469
-582.712768554688
-556.485961914063
-553.529479980469
-558.584106445313
-569.456298828125
-561.922058105469
-523.77392578125
-475.802612304688
-427.3544921875
-373.565612792969
-323.400817871094
-291.070281982422
-278.004547119141
-277.336944580078
-282.868438720703
-282.963806152344
-268.086029052734
-236.709182739258
-192.743453979492
-144.962921142578
-107.768486022949
-84.4027481079102
-66.5684967041016
-63.2305335998535
-65.9962768554688
-59.0342407226563
-51.7860946655273
-38.148136138916
-11.635181427002
14.2101802825928
39.2925796508789
61.4184989929199
70.2879409790039
73.2444229125977
75.8194198608398
75.1518249511719
76.3916397094727
78.5851593017578
85.8333053588867
110.629592895508
136.379592895508
150.875885009766
159.554580688477
165.086059570313
176.339752197266
183.492538452148
173.478652954102
172.429580688477
185.590682983398
196.749008178711
206.286041259766
207.144378662109
203.615676879883
205.809188842773
210.959197998047
215.441604614258
217.348999023438
221.259185791016
222.022155761719
214.392517089844
214.678634643555
217.348999023438
216.776779174805
224.31103515625
233.371215820313
235.946228027344
235.564743041992
236.232330322266
231.654556274414
218.111968994141
205.1416015625
200.086975097656
198.465682983398
201.136047363281
210.959197998047
216.872146606445
218.970306396484
220.019378662109
209.910110473633
191.980499267578
179.3916015625
170.617538452148
164.036987304688
167.470321655273
175.004577636719
177.865676879883
179.677719116211
179.773086547852
170.712905883789
156.02587890625
147.251800537109
144.867553710938
141.148101806641
135.330505371094
135.521255493164
135.807357788086
131.515701293945
135.521255493164
137.047180175781
123.599960327148
106.433296203613
90.8879318237305
79.2527542114258
77.7268295288086
88.6944122314453
98.9944152832031
100.234230041504
104.144409179688
110.248115539551
101.950889587402
84.1166381835938
74.1027526855469
59.8925743103027
37.4805450439453
35.7638778686523
51.0231323242188
61.0370178222656
61.7999801635742
50.832389831543
37.1944313049316
30.8999900817871
31.1861019134521
29.6601753234863
20.0277709960938
15.0685138702393
15.6407356262207
16.6898097991943
20.5046234130859
18.6925868988037
10.7768487930298
4.57777643203735
-4.29166507720947
-13.7333288192749
-17.1666603088379
-22.6027698516846
-25.5592517852783
-26.9898052215576
-38.4342460632324
-45.2055397033691
-45.300910949707
-48.5435028076172
-50.355541229248
-55.5055389404297
-65.2333145141602
-68.1897964477539
-65.9009017944336
-63.5166473388672
-56.3638725280762
-47.5897979736328
-50.9277610778809
-61.5138702392578
-72.2907180786133
-81.3508987426758
-86.7870101928711
-91.8416366577148
-92.0323791503906
-86.5962677001953
-83.0675659179688
-78.4897918701172
-74.9610900878906
-78.8712692260742
-79.729606628418
-77.6314544677734
-82.7814559936523
-89.5527496337891
-94.1305236816406
-95.084228515625
-87.8360824584961
-77.345344543457
-73.5305328369141
-75.4379425048828
-76.3916397094727
-82.5907135009766
-86.7870101928711
-83.1629333496094
-86.1194152832031
-84.8796005249023
-76.2009048461914
-76.1055297851563
-76.296272277832
-75.0564575195313
-80.3018264770508
-77.1546020507813
-66.4731292724609
-67.903678894043
-76.5823822021484
-74.3888626098633
-66.9499816894531
-64.4703521728516
-62.0860900878906
-63.4212760925293
-70.8601608276367
-75.9147872924805
-74.198127746582
-69.0481262207031
-68.4759063720703
-67.3314590454102
-64.5657196044922
-67.9990539550781
-70.0971984863281
-66.4731292724609
-67.5222015380859
-70.7647933959961
-65.137939453125
-56.0777587890625
-55.0286865234375
-60.6555366516113
-62.7536849975586
-59.5110931396484
-59.1296119689941
-54.5518341064453
-43.4888763427734
-40.7231369018555
-42.3444290161133
-38.7203598022461
-43.1073951721191
-51.8814659118652
-51.4999847412109
-50.1647987365723
-50.355541229248
-46.6360969543457
-45.2055397033691
-52.8351669311523
-51.9768333435059
-42.5351715087891
-39.0064697265625
-33.9518394470215
-35.7638778686523
-44.1564674377441
-45.300910949707
-46.2546157836914
-40.5323944091797
-28.9925842285156
-26.7036952972412
-27.0851764678955
-24.5101776123047
-21.3629570007324
-22.7935104370117
-27.2759170532227
-26.7036952972412
-21.4583263397217
-18.1203651428223
-22.0305480957031
-23.4611034393311
-16.7851791381836
-11.1583299636841
-10.2999963760376
-8.67870044708252
-6.00833129882813
-12.0166625976563
-18.8833274841309
-12.6842555999756
-7.6296272277832
-10.204626083374
-11.3490705490112
-9.15555286407471
-2.95648050308228
3.147221326828
5.7222204208374
3.24259161949158
-1.43055510520935
-6.86666440963745
-6.1037015914917
3.5287024974823
9.72777462005615
11.3490705490112
16.022216796875
21.9351787567139
23.7472152709961
19.360179901123
14.1148099899292
12.4935140609741
16.30832862854
21.7444381713867
20.2185115814209
18.9786968231201
19.4555492401123
18.2157344818115
20.409252166748
18.3111057281494
14.9731435775757
16.022216796875
13.7333288192749
14.1148099899292
23.7472152709961
30.995361328125
30.8999900817871
28.4203605651855
24.7962875366211
22.4120292663574
20.3138828277588
21.0768451690674
22.5074005126953
16.8805503845215
10.9675893783569
12.3981437683105
17.5481433868408
21.4583263397217
23.0796222686768
20.5999927520752
15.5453653335571
16.7851791381836
16.8805503845215
13.9240694046021
25.6546211242676
39.9601707458496
38.3388748168945
38.9110984802246
41.0092468261719
32.5212860107422
27.3712882995605
25.7499923706055
21.7444381713867
20.7907333374023
22.6027698516846
21.5536975860596
21.839807510376
26.4175834655762
23.4611034393311
19.5509204864502
19.360179901123
19.4555492401123
25.0823993682861
27.2759170532227
28.3249912261963
32.04443359375
31.3768424987793
28.5157318115234
28.1342506408691
29.5648059844971
30.6138782501221
29.8509159088135
28.6111011505127
29.7555465698242
22.3166599273682
14.5916624069214
22.0305480957031
25.8453617095947
19.1694374084473
12.7796258926392
12.9703664779663
16.7851791381836
19.5509204864502
20.3138828277588
19.9324016571045
24.1286964416504
29.0879535675049
29.0879535675049
28.4203605651855
25.6546211242676
23.4611034393311
27.1805477142334
32.04443359375
34.7148017883301
33.6657295227051
32.7120246887207
39.3879508972168
48.066650390625
54.8379440307617
62.1814613342285
62.3722038269043
56.3638725280762
51.8814659118652
42.1536903381348
32.1398048400879
29.278694152832
20.409252166748
10.9675893783569
15.4499950408936
29.1833248138428
32.8073959350586
18.6925868988037
18.0249938964844
33.6657295227051
37.5759124755859
37.8620262145996
35.2870254516602
24.1286964416504
22.2212886810303
25.3685111999512
15.6407356262207
7.0574049949646
12.3981437683105
15.2592544555664
9.06018257141113
0.858333051204681
-7.0574049949646
-13.9240694046021
-24.5101776123047
-31.7583236694336
-34.2379531860352
-42.8212814331055
-44.9194297790527
-42.630542755127
-45.7777633666992
-43.8703575134277
-40.0555419921875
-42.0583190917969
-48.5435028076172
-50.1647987365723
-38.148136138916
-34.0472106933594
-38.8157272338867
-32.4259147644043
-30.0416564941406
-32.7120246887207
-31.4722118377686
-30.995361328125
-25.8453617095947
-19.2648086547852
-21.1722145080566
-28.5157318115234
-32.1398048400879
-29.3740653991699
-22.125919342041
-13.5425882339478
-15.1638841629028
-21.7444381713867
-15.6407356262207
-7.6296272277832
-3.71944332122803
3.147221326828
0.762962698936462
-6.86666440963745
-6.77129411697388
-6.29444265365601
-6.96203470230103
-9.63240432739258
-16.6898097991943
-16.022216796875
-11.7305517196655
-10.2999963760376
-3.8148136138916
2.28888821601868
6.19907188415527
3.24259161949158
-9.15555286407471
-22.4120292663574
-43.7749862670898
-75.7240524291992
-103.953666687012
-144.390701293945
-206.762893676758
-238.711959838867
-226.50456237793
-211.340667724609
-203.04345703125
-177.48420715332
-111.297187805176
-26.7036952972412
48.1620216369629
139.240692138672
277.241577148438
467.219299316406
715.75439453125
999.481140136719
1262.79870605469
1490.06616210938
1703.31420898438
1861.43823242188
1927.05310058594
1920.75866699219
1788.00317382813
1457.2587890625
981.170043945313
495.258178710938
60.5601654052734
-352.774871826172
-686.857177734375
-877.407104492188
-992.137634277344
-1079.78295898438
-1114.49780273438
-1087.88952636719
-1023.89599609375
-943.975646972656
-864.341369628906
-818.18212890625
-822.187683105469
-845.171936035156
-863.196960449219
-865.867309570313
-843.93212890625
-792.43212890625
-716.421997070313
-641.842407226563
-578.039611816406
-532.834106445313
-530.449829101563
-553.624816894531
-567.453552246094
-568.884094238281
-552.575744628906
-507.084106445313
-446.619293212891
-383.484130859375
-325.403594970703
-288.018432617188
-271.137878417969
-267.704528808594
-269.421203613281
-263.222137451172
-250.728622436523
-233.561965942383
-198.179565429688
-153.641616821289
-119.785148620605
-89.1712646484375
-63.039794921875
-56.2685012817383
-58.9388694763184
-62.9444236755371
-69.1434936523438
-57.6990547180176
-24.1286964416504
5.53147983551025
25.6546211242676
48.1620216369629
65.137939453125
74.0073852539063
81.16015625
84.8796005249023
91.269416809082
103.190704345703
115.49348449707
127.224029541016
143.532363891602
158.886993408203
166.802719116211
172.238830566406
172.238830566406
173.669387817383
176.625869750977
172.811050415039
174.623092651367
182.348083496094
186.449020385742
195.223083496094
208.765670776367
216.967529296875
223.261962890625
229.079559326172
228.69807434082
229.651779174805
232.79899597168
228.125854492188
222.403625488281
219.256408691406
216.299926757813
213.72492980957
214.106414794922
219.92399597168
220.019378662109
208.384185791016
196.272155761719
191.122161865234
194.36474609375
196.55827331543
185.209197998047
176.530502319336
183.015686035156
189.977722167969
196.749008178711
202.566604614258
200.277709960938
191.026794433594
169.091613769531
151.543472290039
157.742538452148
167.279571533203
163.846237182617
161.461990356445
171.952728271484
184.541610717773
182.348083496094
169.186981201172
162.797164916992
159.268463134766
152.211059570313
146.107360839844
138.191619873047
140.003662109375
142.960144042969
136.093475341797
134.376815795898
122.83699798584
102.332374572754
91.9370040893555
82.6860809326172
79.729606628418
83.5444183349609
81.3508987426758
86.5962677001953
96.0379333496094
92.6999740600586
89.4573822021484
82.9721984863281
64.4703521728516
50.7370223999023
45.0148010253906
41.0092468261719
42.5351715087891
50.832389831543
60.274055480957
57.6990547180176
45.5870208740234
35.2870254516602
25.8453617095947
17.357400894165
10.5861072540283
4.48240613937378
2.00277709960938
7.82036781311035
15.6407356262207
14.3055505752563
7.6296272277832
0
-10.1092557907104
-22.125919342041
-26.7036952972412
-24.4148063659668
-29.7555465698242
-34.5240631103516
-30.8046188354492
-26.7036952972412
-26.7990646362305
-32.1398048400879
-38.2435073852539
-48.4481315612793
-60.1786842346191
-60.274055480957
-51.6907234191895
-44.9194297790527
-36.2407302856445
-31.8536930084229
-43.4888763427734
-54.2657241821289
-58.1759071350098
-68.1897964477539
-74.1027526855469
-73.8166427612305
-78.7759017944336
-73.6259002685547
-56.2685012817383
-51.6907234191895
-59.9879455566406
-66.5684967041016
-69.2388687133789
-75.6286773681641
-87.6453399658203
-96.9916381835938
-95.1795959472656
-81.3508987426758
-74.4842376708984
-78.012939453125
-76.8684921264648
-78.1083068847656
-84.6888580322266
-88.1221923828125
-90.5064544677734
-95.084228515625
-101.283302307129
-107.86385345459
-107.673110961914
-103.095336914063
-97.6592254638672
-89.8388595581055
-82.876823425293
-78.2036819458008
-72.8629379272461
-70.6694183349609
-71.5277557373047
-72.5768280029297
-73.3397903442383
-68.1897964477539
-66.7592391967773
-72.0999755859375
-69.4296035766602
-72.0046081542969
-79.4434967041016
-73.8166427612305
-74.1027526855469
-78.2990493774414
-72.8629379272461
-71.1462707519531
-72.0999755859375
-74.2934951782227
-77.2499771118164
-68.3805313110352
-56.0777587890625
-58.1759071350098
-68.3805313110352
-69.8110885620117
-65.7101669311523
-65.3286819458008
-62.4675712585449
-60.9416465759277
-62.9444236755371
-61.4184989929199
-64.9472045898438
-70.0018310546875
-61.7046089172363
-51.0231323242188
-51.3092422485352
-51.5953521728516
-49.2110939025879
-52.7397994995117
-52.1675758361816
-44.6333198547363
-38.148136138916
-34.9055442810059
-34.6194343566895
-38.0527648925781
-43.5842437744141
-47.1129493713379
-45.8731346130371
-36.2407302856445
-21.9351787567139
-16.6898097991943
-18.8833274841309
-17.1666603088379
-16.2129573822021
-15.6407356262207
-13.3518476486206
-24.6055469512939
-34.5240631103516
-23.1749935150146
-16.022216796875
-17.738883972168
-12.0166625976563
-6.6759238243103
-3.5287024974823
0
4.29166507720947
5.43610954284668
-2.8611102104187
-11.635181427002
-14.687032699585
-15.6407356262207
-17.0712909698486
-12.588885307312
2.1935179233551
9.63240432739258
3.43333220481873
2.8611102104187
8.77407169342041
2.1935179233551
-8.29721927642822
-4.67314672470093
-1.62129580974579
-5.24536848068237
1.62129580974579
17.6435127258301
24.0333251953125
22.8888816833496
21.9351787567139
17.6435127258301
14.4962921142578
15.4499950408936
19.5509204864502
23.9379558563232
21.0768451690674
17.9296245574951
20.1231422424316
16.5944385528564
16.7851791381836
23.6518440246582
24.9870281219482
20.5999927520752
17.2620315551758
20.3138828277588
24.2240657806396
28.3249912261963
34.1425819396973
39.3879508972168
44.251838684082
36.7175827026367
19.6462898254395
11.8259220123291
18.2157344818115
30.4231376647949
35.7638778686523
40.6277656555176
44.9194297790527
39.6740608215332
35.6685066223145
27.943510055542
20.409252166748
23.9379558563232
27.1805477142334
34.6194343566895
47.2083168029785
48.5435028076172
45.5870208740234
44.6333198547363
40.2462844848633
35.4777679443359
26.7990646362305
17.6435127258301
21.2675857543945
31.4722118377686
35.9546165466309
34.3333206176758
31.6629524230957
34.1425819396973
38.6249885559082
38.3388748168945
33.5703582763672
30.5185089111328
35.6685066223145
41.2953567504883
42.630542755127
45.0148010253906
42.3444290161133
31.1861019134521
25.0823993682861
20.9814739227295
18.787956237793
30.4231376647949
36.7175827026367
31.9490642547607
28.1342506408691
18.787956237793
14.1148099899292
16.1175880432129
14.4962921142578
21.839807510376
27.5620288848877
17.4527721405029
13.0657367706299
19.7416610717773
27.7527694702148
33.0935096740723
43.9657249450684
59.7972030639648
66.6638641357422
66.0916442871094
61.8953514099121
53.7888717651367
44.6333198547363
37.3851737976074
33.761100769043
30.2323970794678
24.7962875366211
26.4175834655762
35.2870254516602
29.4694347381592
16.9759197235107
20.3138828277588
28.0388793945313
32.6166572570801
34.810173034668
31.2814712524414
34.7148017883301
33.0935096740723
16.1175880432129
13.1611070632935
17.5481433868408
14.7824029922485
14.8777732849121
7.0574049949646
-2.76573991775513
-1.14444410800934
-6.19907188415527
-19.1694374084473
-26.1314735412598
-33.3796195983887
-37.1944313049316
-32.9027671813965
-33.9518394470215
-37.3851737976074
-36.7175827026367
-38.0527648925781
-41.5814666748047
-48.5435028076172
-48.2573928833008
-34.7148017883301
-28.0388793945313
-27.4666576385498
-23.9379558563232
-23.0796222686768
-24.2240657806396
-27.0851764678955
-29.278694152832
-31.7583236694336
-40.5323944091797
-43.2981338500977
-33.9518394470215
-27.657398223877
-26.6083240509033
-29.7555465698242
-34.7148017883301
-31.9490642547607
-24.6055469512939
-24.1286964416504
-25.8453617095947
-24.9870281219482
-26.7990646362305
-30.3277683258057
-28.5157318115234
-22.6027698516846
-21.5536975860596
-22.0305480957031
-18.6925868988037
-15.8314762115479
-16.4990692138672
-18.787956237793
-17.8342533111572
-15.2592544555664
-9.82314491271973
-4.10092449188232
-13.5425882339478
-27.7527694702148
-37.6712837219238
-59.7972030639648
-90.6018218994141
-125.221252441406
-172.429580688477
-214.201782226563
-224.692520141602
-213.62956237793
-207.525863647461
-201.612899780273
-164.60920715332
-100.043487548828
-29.6601753234863
51.1185035705566
144.676803588867
269.325836181641
468.173004150391
732.82568359375
1009.11358642578
1260.03295898438
1477.66809082031
1663.73559570313
1793.82067871094
1847.03735351563
1812.7041015625
1641.22814941406
1278.82092285156
805.688659667969
365.077667236328
-45.6823921203613
-419.534118652344
-686.475708007813
-861.384887695313
-968.867309570313
-1017.98303222656
-1019.79504394531
-979.358032226563
-918.607116699219
-862.338623046875
-817.896057128906
-793.576599121094
-805.688659667969
-835.730285644531
-848.986755371094
-839.354370117188
-806.642333984375
-746.368286132813
-666.9248046875
-591.200744628906
-533.597045898438
-501.266510009766
-502.029479980469
-527.493347167969
-548.188720703125
-540.368347167969
-511.947998046875
-468.840576171875
-405.037841796875
-338.755432128906
-287.732330322266
-254.734176635742
-243.861953735352
-244.434173583984
-247.581405639648
-256.832336425781
-249.679550170898
-212.675857543945
-168.71012878418
-127.891624450684
-90.7925643920898
-64.2796096801758
-52.8351669311523
-51.9768333435059
-53.8842430114746
-55.0286865234375
-49.0203552246094
-30.3277683258057
-8.10647869110107
15.6407356262207
46.4453544616699
71.8138656616211
80.3971939086914
84.6888580322266
78.4897918701172
71.4323883056641
86.1194152832031
100.997192382813
109.771263122559
130.848098754883
154.690689086914
169.854568481445
175.958282470703
170.712905883789
163.464767456055
168.996246337891
175.1953125
173.764755249023
174.909210205078
175.767532348633
172.620315551758
177.674942016602
191.599014282227
201.422164916992
205.046234130859
207.23974609375
211.054565429688
213.72492980957
205.809188842773
193.506423950195
193.220306396484
203.329559326172
212.008270263672
213.343444824219
211.149932861328
214.774002075195
216.872146606445
211.340667724609
206.381408691406
201.422164916992
193.887893676758
186.353637695313
184.636978149414
197.130493164063
208.384185791016
209.337890625
213.820297241211
214.869369506836
201.231414794922
184.827713012695
172.238830566406
161.271240234375
152.687911987305
154.690689086914
163.560134887695
170.140686035156
178.533279418945
178.914764404297
164.132354736328
145.153656005859
127.224029541016
114.158294677734
102.999969482422
94.7981185913086
100.901817321777
116.065704345703
125.984222412109
126.07958984375
114.062927246094
100.806449890137
92.2231216430664
77.4407196044922
66.0916442871094
62.7536849975586
64.2796096801758
73.9120101928711
79.1573791503906
83.1629333496094
88.8851547241211
79.2527542114258
53.8842430114746
33.1888771057129
25.177770614624
21.1722145080566
21.7444381713867
30.1370277404785
38.7203598022461
36.7175827026367
27.4666576385498
20.3138828277588
11.4444408416748
0.762962698936462
-9.537034034729
-16.022216796875
-11.8259220123291
-2.47962880134583
8.96481227874756
24.2240657806396
25.5592517852783
8.67870044708252
0.0953703373670578
-1.23981440067291
-14.9731435775757
-30.1370277404785
-33.3796195983887
-23.2703628540039
-10.8722190856934
-5.05462789535522
-3.8148136138916
-6.29444265365601
-6.58055353164673
-12.9703664779663
-26.7036952972412
-34.1425819396973
-45.6823921203613
-53.9796104431152
-45.1101722717285
-38.8157272338867
-35.4777679443359
-28.8018417358398
-36.6222114562988
-51.2138710021973
-55.6962776184082
-57.5083160400391
-58.3666496276855
-51.7860946655273
-44.7286911010742
-46.5407257080078
-48.8296127319336
-42.8212814331055
-39.1018409729004
-44.0610961914063
-51.9768333435059
-59.8925743103027
-63.3259048461914
-62.1814613342285
-62.2768325805664
-66.3777542114258
-67.6175689697266
-64.6610870361328
-65.4240493774414
-63.039794921875
-60.4647941589355
-65.9962768554688
-68.8573837280273
-71.8138656616211
-76.6777496337891
-77.7268295288086
-80.4925689697266
-78.7759017944336
-76.4870147705078
-80.3018264770508
-77.0592346191406
-74.198127746582
-78.6805267333984
-73.8166427612305
-71.2416458129883
-83.2583084106445
-86.7870101928711
-78.2990493774414
-71.2416458129883
-67.8083114624023
-71.7184982299805
-73.3397903442383
-61.99072265625
-58.3666496276855
-68.4759063720703
-70.0971984863281
-68.3805313110352
-77.1546020507813
-78.394416809082
-69.5249786376953
-66.4731292724609
-59.8925743103027
-50.4509086608887
-48.9249839782715
-48.066650390625
-43.7749862670898
-42.8212814331055
-47.3990592956543
-44.3472061157227
-37.2898025512695
-37.9573936462402
-39.2925796508789
-43.0120239257813
-44.1564674377441
-36.7175827026367
-35.0009155273438
-42.1536903381348
-44.0610961914063
-37.9573936462402
-36.2407302856445
-38.4342460632324
-37.1944313049316
-38.3388748168945
-35.7638778686523
-25.3685111999512
-24.2240657806396
-33.2842483520508
-35.8592491149902
-30.4231376647949
-20.6953639984131
-14.687032699585
-18.9786968231201
-22.6027698516846
-24.3194370269775
-26.3222141265869
-23.3657341003418
-24.4148063659668
-30.1370277404785
-31.2814712524414
-29.4694347381592
-27.0851764678955
-22.6981410980225
-18.5972156524658
-15.9268465042114
-14.687032699585
-11.1583299636841
-13.9240694046021
-23.8425846099854
-25.0823993682861
-22.0305480957031
-21.0768451690674
-17.357400894165
-14.1148099899292
-12.0166625976563
-8.10647869110107
-6.1037015914917
-8.3925895690918
-9.34629344940186
-6.86666440963745
-6.96203470230103
-6.1037015914917
1.62129580974579
3.43333220481873
0.190740674734116
9.537034034729
14.687032699585
6.38981294631958
1.9074068069458
-3.147221326828
-14.7824029922485
-17.6435127258301
-9.15555286407471
-3.43333220481873
-3.71944332122803
-4.7685170173645
-0.858333051204681
6.48518323898315
6.6759238243103
3.147221326828
5.05462789535522
5.91296100616455
8.58333015441895
19.1694374084473
29.7555465698242
33.761100769043
28.5157318115234
23.3657341003418
21.839807510376
17.5481433868408
14.2101802825928
11.1583299636841
18.3111057281494
37.4805450439453
43.2027626037598
36.1453590393066
32.9027671813965
28.1342506408691
21.5536975860596
20.2185115814209
21.9351787567139
23.3657341003418
19.074068069458
12.6842555999756
11.8259220123291
22.2212886810303
35.1916542053223
30.2323970794678
19.5509204864502
16.8805503845215
17.8342533111572
16.4036979675293
11.4444408416748
15.7361059188843
21.2675857543945
21.5536975860596
25.7499923706055
28.7064723968506
35.1916542053223
37.7666549682617
26.8944358825684
19.2648086547852
15.7361059188843
10.4907369613647
10.2999963760376
17.6435127258301
23.7472152709961
24.2240657806396
24.5101776123047
17.0712909698486
4.86388731002808
6.58055353164673
18.9786968231201
22.8888816833496
23.6518440246582
34.4286918640137
38.7203598022461
35.2870254516602
37.2898025512695
33.3796195983887
23.6518440246582
20.409252166748
22.8888816833496
22.8888816833496
23.0796222686768
31.3768424987793
34.4286918640137
28.6111011505127
30.4231376647949
31.1861019134521
25.8453617095947
27.4666576385498
30.0416564941406
34.0472106933594
37.2898025512695
28.1342506408691
28.8972129821777
49.3064651489258
62.8490524291992
63.3259048461914
64.1842422485352
60.4647941589355
52.5490570068359
48.9249839782715
43.2981338500977
31.7583236694336
16.8805503845215
1.71666610240936
-0.381481349468231
4.57777643203735
4.1962947845459
8.96481227874756
19.074068069458
25.0823993682861
26.226842880249
15.9268465042114
4.67314672470093
7.0574049949646
8.77407169342041
6.38981294631958
9.44166374206543
5.05462789535522
1.23981440067291
13.0657367706299
14.4009208679199
-5.81759071350098
-21.4583263397217
-28.5157318115234
-36.8129501342773
-40.3416519165039
-44.7286911010742
-53.9796104431152
-53.5027618408203
-44.6333198547363
-39.1018409729004
-37.8620262145996
-39.197208404541
-37.0036926269531
-33.1888771057129
-35.4777679443359
-33.6657295227051
-25.2731399536133
-24.7962875366211
-28.1342506408691
-24.1286964416504
-16.8805503845215
-16.022216796875
-21.3629570007324
-21.9351787567139
-17.738883972168
-18.8833274841309
-21.3629570007324
-18.1203651428223
-12.8749961853027
-8.86944198608398
-7.72499752044678
-11.5398111343384
-19.5509204864502
-26.4175834655762
-24.1286964416504
-15.7361059188843
-10.7768487930298
-10.1092557907104
-8.86944198608398
-9.537034034729
-12.7796258926392
-8.29721927642822
-1.23981440067291
-3.5287024974823
-4.38703584671021
0
4.57777643203735
12.588885307312
15.7361059188843
10.1092557907104
3.24259161949158
-7.24814605712891
-24.3194370269775
-48.6388740539551
-80.5879364013672
-118.259223937988
-173.192535400391
-224.31103515625
-230.033264160156
-217.635116577148
-216.776779174805
-205.713821411133
-167.184204101563
-92.7953414916992
-7.24814605712891
74.6749725341797
200.659194946289
381.576721191406
601.023864746094
878.933044433594
1178.30053710938
1426.54956054688
1641.80041503906
1840.17065429688
1956.14099121094
1983.703125
1932.77526855469
1723.53283691406
1313.72644042969
798.440490722656
324.259155273438
-108.626815795898
-526.730407714844
-810.266418457031
-955.992309570313
-1071.48571777344
-1141.39221191406
-1146.44689941406
-1114.49780273438
-1041.34875488281
-947.408935546875
-880.268249511719
-854.136779785156
-854.518249511719
-863.006225585938
-874.832153320313
-873.687683105469
-839.354370117188
-786.233093261719
-726.149780273438
-655.957214355469
-597.876647949219
-572.794250488281
-569.647033691406
-573.271118164063
-572.126647949219
-557.34423828125
-529.591491699219
-480.761871337891
-415.147094726563
-359.832305908203
-323.114715576172
-298.318420410156
-283.536010742188
-279.72119140625
-279.435089111328
-272.473052978516
-258.930480957031
-231.654556274414
-189.214752197266
-144.962921142578
-111.201812744141
-89.2666397094727
-72.4814605712891
-59.9879455566406
-58.4620170593262
-68.4759063720703
-65.9009017944336
-41.6768379211426
-13.8286991119385
18.1203651428223
52.8351669311523
76.1055297851563
85.3564529418945
85.6425628662109
87.1684875488281
88.5036773681641
88.3129348754883
95.4657135009766
104.430519104004
116.733299255371
135.616622924805
153.83235168457
165.372161865234
167.565689086914
171.189758300781
176.244384765625
175.1953125
176.911987304688
183.68327331543
188.833267211914
196.367523193359
206.953643798828
211.149932861328
212.008270263672
216.395294189453
221.545303344727
225.169372558594
222.022155761719
212.485122680664
213.72492980957
222.308258056641
225.932342529297
229.747146606445
233.752700805664
240.905471801758
246.150848388672
242.908248901367
242.431396484375
235.278625488281
218.111968994141
206.858261108398
202.948089599609
202.566604614258
205.427719116211
212.580490112305
219.065673828125
221.545303344727
218.874923706055
208.765670776367
195.604568481445
183.015686035156
173.09716796875
173.192535400391
182.538833618164
186.162902832031
182.824935913086
185.209197998047
186.735122680664
178.151794433594
168.328643798828
158.219390869141
145.630508422852
141.529586791992
145.821243286133
153.83235168457
159.268463134766
151.543472290039
138.096252441406
131.611068725586
126.07958984375
118.163848876953
114.25366973877
108.626815795898
97.4684906005859
90.3157119750977
93.6536712646484
95.4657135009766
89.8388595581055
89.4573822021484
87.0731201171875
81.4462738037109
70.6694183349609
50.355541229248
42.7259140014648
41.2953567504883
42.1536903381348
54.5518341064453
59.2249794006348
60.274055480957
61.1323890686035
45.6823921203613
23.0796222686768
5.81759071350098
-2.5749990940094
1.43055510520935
6.1037015914917
7.53425693511963
13.256477355957
14.7824029922485
7.53425693511963
-0.190740674734116
-6.77129411697388
-16.022216796875
-26.9898052215576
-27.8481388092041
-23.9379558563232
-23.4611034393311
-17.9296245574951
-16.1175880432129
-24.0333251953125
-30.1370277404785
-36.6222114562988
-46.5407257080078
-50.355541229248
-52.6444282531738
-54.4564628601074
-51.3092422485352
-55.6009063720703
-67.2360916137695
-66.4731292724609
-59.3203506469727
-67.2360916137695
-87.9314498901367
-96.4194107055664
-90.0296020507813
-88.6944122314453
-92.0323791503906
-91.6508941650391
-85.9286727905273
-78.012939453125
-77.5360870361328
-79.06201171875
-83.2583084106445
-93.367561340332
-88.5990447998047
-82.0184936523438
-90.1249694824219
-90.8879318237305
-84.9749755859375
-86.2147903442383
-92.7953414916992
-97.5638580322266
-98.4221878051758
-101.283302307129
-103.286079406738
-107.768486022949
-112.632369995117
-107.100891113281
-96.4194107055664
-90.6018218994141
-85.5471954345703
-71.7184982299805
-70.4786834716797
-87.0731201171875
-90.4110794067383
-88.5036773681641
-90.220344543457
-81.7323837280273
-77.0592346191406
-78.2990493774414
-75.9147872924805
-74.7703475952148
-65.9009017944336
-56.4592399597168
-63.5166473388672
-71.1462707519531
-70.5740509033203
-68.6666412353516
-58.7481307983398
-51.6907234191895
-60.8462753295898
-67.5222015380859
-69.6203460693359
-70.0971984863281
-63.9934997558594
-61.8953514099121
-62.3722038269043
-60.1786842346191
-50.355541229248
-36.7175827026367
-36.5268402099609
-39.4833221435547
-37.7666549682617
-41.0092468261719
-43.4888763427734
-44.4425773620605
-37.1944313049316
-25.177770614624
-30.8046188354492
-37.2898025512695
-34.3333206176758
-38.0527648925781
-37.0036926269531
-32.8073959350586
-33.4749908447266
-23.6518440246582
-18.2157344818115
-31.0907306671143
-39.6740608215332
-44.6333198547363
-48.1620216369629
-41.8675804138184
-33.8564720153809
-27.0851764678955
-19.4555492401123
-12.4935140609741
-8.10647869110107
-14.687032699585
-22.6981410980225
-19.6462898254395
-22.2212886810303
-27.943510055542
-23.2703628540039
-20.0277709960938
-24.6055469512939
-25.3685111999512
-15.6407356262207
-12.3981437683105
-20.6953639984131
-25.8453617095947
-28.5157318115234
-30.1370277404785
-26.6083240509033
-24.9870281219482
-18.1203651428223
-5.24536848068237
-2.09814739227295
-0.572222054004669
-3.62407302856445
-11.8259220123291
-7.34351634979248
0.286111027002335
-1.23981440067291
-2.47962880134583
2.00277709960938
6.29444265365601
4.1962947845459
-0.9537034034729
1.81203651428223
5.91296100616455
-2.1935179233551
-10.2999963760376
-8.86944198608398
-8.29721927642822
-7.6296272277832
-0.190740674734116
8.3925895690918
18.5018463134766
21.9351787567139
13.3518476486206
4.7685170173645
0
-2.76573991775513
3.33796191215515
13.3518476486206
9.25092315673828
2.09814739227295
10.1092557907104
23.0796222686768
26.4175834655762
17.0712909698486
12.1120328903198
15.7361059188843
14.1148099899292
14.5916624069214
23.5564746856689
28.2296199798584
23.1749935150146
19.1694374084473
21.0768451690674
18.9786968231201
15.2592544555664
20.0277709960938
26.0361022949219
30.4231376647949
31.0907306671143
28.2296199798584
33.8564720153809
37.6712837219238
33.4749908447266
34.2379531860352
33.0935096740723
30.8999900817871
36.9083213806152
40.2462844848633
39.0064697265625
39.9601707458496
43.2981338500977
47.6851692199707
44.7286911010742
38.9110984802246
38.148136138916
38.3388748168945
38.2435073852539
35.7638778686523
36.7175827026367
40.8185043334961
39.3879508972168
37.8620262145996
36.7175827026367
32.7120246887207
28.4203605651855
25.5592517852783
24.1286964416504
27.2759170532227
37.8620262145996
41.1999855041504
36.0499877929688
44.0610961914063
53.2166481018066
50.9277610778809
54.7425765991211
58.1759071350098
53.4073905944824
56.5546112060547
65.7101669311523
63.8027572631836
51.2138710021973
40.2462844848633
32.4259147644043
28.3249912261963
22.6027698516846
15.1638841629028
19.9324016571045
26.7990646362305
26.226842880249
28.8018417358398
30.1370277404785
29.3740653991699
34.7148017883301
35.4777679443359
29.9462871551514
27.943510055542
24.891658782959
19.5509204864502
14.1148099899292
7.43888664245605
6.96203470230103
5.91296100616455
-2.28888821601868
-7.43888664245605
-12.1120328903198
-19.8370304107666
-24.7009181976318
-29.1833248138428
-33.0935096740723
-40.5323944091797
-43.5842437744141
-38.0527648925781
-38.3388748168945
-33.9518394470215
-26.1314735412598
-29.5648059844971
-31.3768424987793
-24.4148063659668
-16.6898097991943
-18.4064750671387
-30.1370277404785
-35.1916542053223
-28.7064723968506
-19.9324016571045
-15.5453653335571
-14.2101802825928
-13.8286991119385
-11.635181427002
-7.53425693511963
-6.19907188415527
-6.00833129882813
-2.47962880134583
-0.0953703373670578
-0.47685170173645
-2.67036962509155
-6.6759238243103
-3.147221326828
3.05185079574585
-0.286111027002335
-1.43055510520935
-1.43055510520935
-9.537034034729
-8.20184898376465
1.62129580974579
-0.858333051204681
-6.1037015914917
-0.667592406272888
6.96203470230103
9.72777462005615
11.1583299636841
9.72777462005615
5.53147983551025
7.82036781311035
7.91573810577393
-6.96203470230103
-31.7583236694336
-57.9851684570313
-86.2147903442383
-129.894409179688
-179.677719116211
-199.419387817383
-189.882339477539
-188.547164916992
-197.416610717773
-173.574020385742
-107.673110961914
-29.7555465698242
56.4592399597168
149.922180175781
251.777694702148
412.953582763672
652.809997558594
921.372863769531
1174.67651367188
1399.84582519531
1596.49951171875
1742.51147460938
1814.70678710938
1809.36608886719
1673.94018554688
1341.09777832031
877.883972167969
434.602630615234
23.1749935150146
-356.398956298828
-632.2099609375
-819.803466796875
-949.411743164063
-1018.17376708984
-1029.71350097656
-991.8515625
-929.765441894531
-869.96826171875
-825.144165039063
-796.437683105469
-793.290466308594
-822.855285644531
-850.894165039063
-841.357116699219
-805.30712890625
-748.847900390625
-669.309020996094
-589.388671875
-529.400756835938
-502.124847412109
-506.225769042969
-521.485046386719
-540.654479980469
-550.382202148438
-529.400756835938
-479.808166503906
-411.236907958984
-346.861938476563
-306.043426513672
-272.854553222656
-249.965667724609
-254.161956787109
-265.224914550781
-258.930480957031
-239.188812255859
-213.62956237793
-179.200866699219
-136.76106262207
-98.6129302978516
-73.7212753295898
-58.2712783813477
-57.1268348693848
-65.9962768554688
-69.4296035766602
-64.2796096801758
-49.4018363952637
-26.7036952972412
2.8611102104187
37.099063873291
62.4675712585449
76.2009048461914
79.729606628418
74.4842376708984
73.2444229125977
80.3971939086914
88.2175674438477
94.7981185913086
106.719413757324
126.747184753418
142.960144042969
151.924957275391
162.892547607422
169.091613769531
165.849014282227
168.90087890625
172.143463134766
164.704574584961
164.704574584961
175.386047363281
186.353637695313
199.991607666016
212.389739990234
210.768447875977
201.803634643555
199.610122680664
205.809188842773
210.863815307617
204.283264160156
194.078643798828
191.408279418945
195.604568481445
203.806411743164
214.392517089844
221.831405639648
220.686965942383
214.869369506836
207.43049621582
195.986053466797
182.443466186523
172.620315551758
169.473098754883
176.339752197266
188.928649902344
195.890670776367
195.604568481445
191.885116577148
184.255493164063
174.432357788086
164.895324707031
156.216613769531
149.063842773438
143.723098754883
148.396255493164
164.990692138672
170.426803588867
156.979583740234
150.589767456055
146.584213256836
125.888847351074
108.531448364258
100.997192382813
95.751823425293
105.098114013672
121.69255065918
130.085144042969
131.992553710938
125.698104858398
111.869407653809
95.4657135009766
80.3018264770508
74.1027526855469
72.2907180786133
72.0999755859375
75.8194198608398
79.5388641357422
84.7842330932617
86.7870101928711
75.7240524291992
59.8925743103027
46.8268356323242
34.4286918640137
32.8073959350586
39.0064697265625
36.431468963623
35.382396697998
43.5842437744141
46.0638732910156
35.1916542053223
22.3166599273682
12.3981437683105
0.572222054004669
-10.6814785003662
-14.2101802825928
-6.29444265365601
2.95648050308228
3.5287024974823
2.95648050308228
5.7222204208374
4.48240613937378
-1.81203651428223
-14.4009208679199
-26.7990646362305
-25.3685111999512
-22.2212886810303
-20.0277709960938
-8.77407169342041
-6.86666440963745
-15.35462474823
-19.7416610717773
-27.4666576385498
-39.7694320678711
-47.1129493713379
-46.3499870300293
-40.8185043334961
-35.2870254516602
-31.2814712524414
-28.9925842285156
-30.4231376647949
-33.5703582763672
-39.864803314209
-54.2657241821289
-64.5657196044922
-64.6610870361328
-61.2277565002441
-57.4129447937012
-52.6444282531738
-44.3472061157227
-40.5323944091797
-42.0583190917969
-45.300910949707
-58.3666496276855
-74.1027526855469
-78.6805267333984
-77.345344543457
-77.7268295288086
-75.3425674438477
-71.9092330932617
-74.3888626098633
-72.9583129882813
-65.7101669311523
-62.0860900878906
-60.8462753295898
-67.1407165527344
-76.7731246948242
-73.8166427612305
-67.2360916137695
-67.9990539550781
-68.8573837280273
-66.5684967041016
-62.6583137512207
-59.3203506469727
-60.6555366516113
-65.6147918701172
-72.7675704956055
-77.345344543457
-76.3916397094727
-72.1953506469727
-70.3833084106445
-69.6203460693359
-65.137939453125
-67.2360916137695
-76.296272277832
-77.345344543457
-72.6721954345703
-73.6259002685547
-73.5305328369141
-68.6666412353516
-73.8166427612305
-77.4407196044922
-68.2851638793945
-62.8490524291992
-60.274055480957
-51.3092422485352
-43.3935050964355
-42.0583190917969
-42.0583190917969
-42.1536903381348
-49.9740562438965
-57.9851684570313
-56.5546112060547
-51.4999847412109
-46.4453544616699
-45.8731346130371
-46.1592445373535
-42.7259140014648
-42.4398002624512
-43.7749862670898
-47.6851692199707
-49.1157264709473
-42.2490615844727
-34.7148017883301
-29.8509159088135
-26.3222141265869
-22.6027698516846
-18.787956237793
-25.8453617095947
-38.7203598022461
-38.2435073852539
-33.6657295227051
-35.4777679443359
-34.2379531860352
-30.8999900817871
-30.6138782501221
-28.2296199798584
-25.177770614624
-24.891658782959
-27.657398223877
-33.1888771057129
-35.382396697998
-29.9462871551514
-22.8888816833496
-16.6898097991943
-9.34629344940186
-4.7685170173645
-1.71666610240936
-0.858333051204681
-11.4444408416748
-19.8370304107666
-21.2675857543945
-25.6546211242676
-24.4148063659668
-18.2157344818115
-14.1148099899292
-10.8722190856934
-7.34351634979248
-6.48518323898315
-15.35462474823
-20.409252166748
-13.5425882339478
-8.67870044708252
-8.0111083984375
-6.29444265365601
-2.00277709960938
-0.286111027002335
-5.1499981880188
-9.34629344940186
-2.95648050308228
-0.9537034034729
-7.24814605712891
-0.381481349468231
11.1583299636841
20.6953639984131
31.3768424987793
33.6657295227051
33.0935096740723
33.6657295227051
30.1370277404785
27.2759170532227
22.8888816833496
12.4935140609741
8.77407169342041
11.9212923049927
11.3490705490112
10.9675893783569
20.1231422424316
26.3222141265869
18.8833274841309
13.7333288192749
16.30832862854
14.7824029922485
8.86944198608398
6.48518323898315
14.3055505752563
24.891658782959
28.0388793945313
33.1888771057129
42.1536903381348
42.630542755127
37.8620262145996
36.0499877929688
37.9573936462402
40.3416519165039
39.4833221435547
38.3388748168945
42.3444290161133
47.9712791442871
45.4916534423828
41.3907279968262
37.9573936462402
31.1861019134521
28.9925842285156
29.3740653991699
25.2731399536133
23.2703628540039
31.4722118377686
38.0527648925781
38.6249885559082
41.962947845459
37.099063873291
27.4666576385498
24.7962875366211
23.9379558563232
26.6083240509033
28.7064723968506
28.5157318115234
25.8453617095947
15.8314762115479
10.6814785003662
13.7333288192749
16.9759197235107
19.360179901123
14.8777732849121
9.44166374206543
12.3981437683105
15.9268465042114
20.5046234130859
25.2731399536133
24.0333251953125
25.3685111999512
27.657398223877
23.6518440246582
19.8370304107666
18.5018463134766
14.5916624069214
6.58055353164673
4.48240613937378
10.4907369613647
15.35462474823
18.787956237793
21.9351787567139
21.5536975860596
19.2648086547852
22.7935104370117
28.5157318115234
24.1286964416504
19.1694374084473
18.9786968231201
17.2620315551758
21.2675857543945
25.3685111999512
18.8833274841309
15.4499950408936
21.3629570007324
24.3194370269775
17.4527721405029
12.6842555999756
18.5018463134766
29.278694152832
36.1453590393066
35.9546165466309
36.8129501342773
38.5296173095703
37.4805450439453
41.8675804138184
44.1564674377441
39.7694320678711
33.3796195983887
23.1749935150146
20.5999927520752
18.3111057281494
9.63240432739258
8.58333015441895
10.6814785003662
14.4009208679199
17.738883972168
21.4583263397217
31.7583236694336
36.431468963623
37.8620262145996
37.4805450439453
27.5620288848877
19.4555492401123
25.6546211242676
28.4203605651855
6.19907188415527
-16.6898097991943
-20.7907333374023
-23.9379558563232
-26.8944358825684
-23.9379558563232
-28.7064723968506
-42.8212814331055
-49.3064651489258
-48.066650390625
-52.9305381774902
-60.3694267272949
-59.1296119689941
-51.404613494873
-50.4509086608887
-51.1185035705566
-45.9685020446777
-37.2898025512695
-30.995361328125
-35.5731353759766
-40.5323944091797
-41.4860992431641
-47.3036880493164
-50.9277610778809
-52.453685760498
-54.6472053527832
-46.3499870300293
-35.9546165466309
-37.4805450439453
-38.148136138916
-34.0472106933594
-32.1398048400879
-27.7527694702148
-20.5999927520752
-23.7472152709961
-31.5675830841064
-22.9842510223389
-10.8722190856934
-8.77407169342041
-5.81759071350098
-1.43055510520935
1.62129580974579
1.62129580974579
-6.38981294631958
-14.2101802825928
-12.6842555999756
-8.58333015441895
-6.1037015914917
-5.91296100616455
-7.43888664245605
-3.33796191215515
0
-2.28888821601868
-4.7685170173645
-9.25092315673828
-13.7333288192749
-19.9324016571045
-37.9573936462402
-69.2388687133789
-111.201812744141
-156.311981201172
-201.994384765625
-232.98974609375
-233.085113525391
-224.406402587891
-217.92121887207
-200.182342529297
-146.202728271484
-62.1814613342285
19.1694374084473
116.44718170166
258.548980712891
450.434112548828
698.778503417969
989.46728515625
1266.89953613281
1500.65234375
1716.47534179688
1888.5234375
1972.44934082031
1974.54748535156
1860.38916015625
1574.37353515625
1122.31811523438
619.048889160156
168.519393920898
-267.990661621094
-652.523864746094
-881.317321777344
-1012.73760986328
-1115.64221191406
-1155.22094726563
-1134.23950195313
-1084.26538085938
-1001.57928466797
-911.168212890625
-856.425659179688
-840.02197265625
-842.024719238281
-853.850646972656
-865.008972167969
-856.711791992188
-820.947875976563
-761.627563476563
-693.437744140625
-630.970153808594
-587.004455566406
-568.693359375
-562.589660644531
-564.115539550781
-567.262756347656
-545.136840820313
-499.549835205078
-446.619293212891
-381.195251464844
-321.493408203125
-294.312866210938
-283.345275878906
-271.32861328125
-267.895294189453
-271.614715576172
-266.655456542969
-248.153625488281
-213.72492980957
-164.704574584961
-121.883293151855
-92.8907089233398
-66.7592391967773
-51.2138710021973
-52.3583183288574
-54.9333152770996
-50.5462799072266
-37.6712837219238
-14.9731435775757
10.9675893783569
36.9083213806152
60.8462753295898
73.4351654052734
78.8712692260742
80.2064590454102
74.3888626098633
79.06201171875
86.7870101928711
86.5962677001953
99.7573776245117
121.597183227539
140.003662109375
153.164764404297
160.508285522461
169.759201049805
175.862899780273
180.154571533203
187.974945068359
189.310119628906
188.737899780273
192.075866699219
191.694381713867
193.220306396484
203.234191894531
213.62956237793
220.400848388672
215.918441772461
208.479568481445
218.493453979492
227.362884521484
221.354553222656
222.212890625
230.70085144043
234.038818359375
238.711959838867
238.902694702148
229.174926757813
223.548080444336
225.455490112305
227.458267211914
221.449935913086
212.294372558594
211.53141784668
216.204559326172
216.681411743164
217.253631591797
227.458267211914
229.937896728516
221.163818359375
217.92121887207
210.386962890625
195.604568481445
183.77864074707
174.336975097656
175.862899780273
191.789749145508
202.757339477539
202.280487060547
193.792526245117
180.059204101563
169.568466186523
151.161987304688
132.850875854492
130.085144042969
127.605514526367
129.894409179688
139.336059570313
139.717544555664
137.047180175781
135.330505371094
127.986999511719
114.539779663086
101.474044799805
96.8962631225586
98.9944152832031
100.615707397461
101.37866973877
103.190704345703
101.569412231445
90.5064544677734
74.3888626098633
60.3694267272949
46.8268356323242
40.0555419921875
43.2027626037598
45.7777633666992
41.8675804138184
38.0527648925781
44.9194297790527
48.066650390625
34.7148017883301
20.9814739227295
11.7305517196655
-1.43055510520935
-9.537034034729
-2.95648050308228
5.62685012817383
12.302773475647
18.5972156524658
11.7305517196655
-1.81203651428223
-10.204626083374
-14.8777732849121
-18.5018463134766
-28.8972129821777
-30.6138782501221
-20.409252166748
-21.839807510376
-27.4666576385498
-28.0388793945313
-31.7583236694336
-35.9546165466309
-37.2898025512695
-39.9601707458496
-46.5407257080078
-50.355541229248
-47.1129493713379
-44.251838684082
-42.9166526794434
-40.7231369018555
-47.8759117126465
-57.6036834716797
-57.3175735473633
-59.9879455566406
-68.9527587890625
-75.247200012207
-78.2036819458008
-75.247200012207
-72.0999755859375
-73.2444229125977
-76.6777496337891
-84.4027481079102
-95.2749710083008
-100.615707397461
-100.138854980469
-99.4712677001953
-94.9888610839844
-90.6018218994141
-87.4546051025391
-80.3018264770508
-78.2036819458008
-82.9721984863281
-87.9314498901367
-88.6944122314453
-86.3101577758789
-85.6425628662109
-86.1194152832031
-87.9314498901367
-89.9342269897461
-91.3647842407227
-91.1740417480469
-90.220344543457
-88.2175674438477
-83.2583084106445
-88.9805297851563
-100.615707397461
-95.4657135009766
-89.5527496337891
-92.8907089233398
-91.9370040893555
-87.9314498901367
-87.6453399658203
-94.03515625
-96.6101531982422
-85.3564529418945
-73.1490478515625
-72.7675704956055
-77.6314544677734
-75.1518249511719
-72.4814605712891
-72.0046081542969
-66.7592391967773
-67.1407165527344
-68.2851638793945
-65.5194244384766
-64.9472045898438
-59.1296119689941
-53.6935005187988
-57.1268348693848
-60.274055480957
-56.0777587890625
-52.1675758361816
-55.6009063720703
-53.5981292724609
-47.9712791442871
-51.2138710021973
-53.3120193481445
-52.1675758361816
-55.4101676940918
-58.1759071350098
-53.7888717651367
-47.8759117126465
-45.1101722717285
-35.2870254516602
-28.1342506408691
-31.1861019134521
-35.0009155273438
-37.0036926269531
-34.6194343566895
-28.8972129821777
-22.4120292663574
-18.5972156524658
-20.409252166748
-20.5999927520752
-15.6407356262207
-9.44166374206543
-7.82036781311035
-10.3953666687012
-14.0194396972656
-16.6898097991943
-18.4064750671387
-20.3138828277588
-19.4555492401123
-18.3111057281494
-10.9675893783569
-1.43055510520935
-2.5749990940094
-5.62685012817383
-11.7305517196655
-21.5536975860596
-21.839807510376
-21.7444381713867
-20.9814739227295
-15.5453653335571
-16.1175880432129
-13.4472179412842
-3.147221326828
3.05185079574585
4.86388731002808
1.9074068069458
-3.05185079574585
1.14444410800934
8.3925895690918
6.19907188415527
4.38703584671021
13.0657367706299
11.3490705490112
-6.00833129882813
-13.4472179412842
-7.72499752044678
-0.0953703373670578
5.91296100616455
8.29721927642822
6.1037015914917
5.24536848068237
11.8259220123291
20.2185115814209
25.177770614624
18.8833274841309
7.43888664245605
3.5287024974823
0.667592406272888
-1.33518481254578
2.8611102104187
6.38981294631958
8.0111083984375
13.3518476486206
18.6925868988037
22.0305480957031
20.7907333374023
13.8286991119385
22.3166599273682
35.7638778686523
35.7638778686523
36.5268402099609
35.382396697998
31.1861019134521
36.431468963623
43.2027626037598
41.4860992431641
36.3360977172852
26.0361022949219
16.9759197235107
19.7416610717773
22.8888816833496
26.9898052215576
36.9083213806152
46.6360969543457
51.4999847412109
52.5490570068359
55.6009063720703
54.5518341064453
47.3990592956543
42.0583190917969
39.1018409729004
40.5323944091797
47.2083168029785
51.3092422485352
49.5925750732422
44.5379486083984
39.0064697265625
37.7666549682617
35.0962867736816
27.0851764678955
22.7935104370117
20.409252166748
20.1231422424316
22.6027698516846
21.6490669250488
22.5074005126953
31.3768424987793
37.1944313049316
27.7527694702148
22.9842510223389
26.1314735412598
19.360179901123
20.2185115814209
26.226842880249
20.9814739227295
19.360179901123
18.6925868988037
8.67870044708252
3.71944332122803
12.0166625976563
16.9759197235107
19.4555492401123
24.891658782959
19.9324016571045
14.7824029922485
20.409252166748
24.2240657806396
25.8453617095947
29.0879535675049
29.9462871551514
32.7120246887207
34.9055442810059
28.0388793945313
23.9379558563232
30.3277683258057
33.761100769043
30.6138782501221
23.5564746856689
16.7851791381836
20.3138828277588
26.0361022949219
26.3222141265869
26.226842880249
22.0305480957031
17.1666603088379
16.2129573822021
14.3055505752563
13.9240694046021
10.9675893783569
6.96203470230103
6.00833129882813
0.858333051204681
-3.147221326828
0.762962698936462
10.2999963760376
11.4444408416748
0.762962698936462
-5.24536848068237
-6.6759238243103
-4.10092449188232
7.43888664245605
13.0657367706299
5.7222204208374
9.25092315673828
25.8453617095947
32.04443359375
35.382396697998
40.2462844848633
36.5268402099609
34.7148017883301
31.1861019134521
24.891658782959
22.2212886810303
9.34629344940186
-1.71666610240936
3.147221326828
4.29166507720947
-5.1499981880188
-3.33796191215515
10.3953666687012
15.1638841629028
17.0712909698486
20.5046234130859
15.5453653335571
8.20184898376465
2.38425850868225
1.9074068069458
8.86944198608398
10.5861072540283
4.67314672470093
1.14444410800934
-4.57777643203735
-17.8342533111572
-23.4611034393311
-27.0851764678955
-39.197208404541
-50.832389831543
-59.1296119689941
-55.7916488647461
-48.6388740539551
-49.5925750732422
-48.066650390625
-42.1536903381348
-40.1509132385254
-48.4481315612793
-59.7972030639648
-53.5981292724609
-38.9110984802246
-40.7231369018555
-45.4916534423828
-43.2981338500977
-48.6388740539551
-50.7370223999023
-43.5842437744141
-42.1536903381348
-41.962947845459
-36.431468963623
-29.8509159088135
-22.9842510223389
-15.4499950408936
-10.9675893783569
-16.7851791381836
-18.787956237793
-8.3925895690918
-11.3490705490112
-23.1749935150146
-18.787956237793
-15.6407356262207
-20.8861045837402
-17.5481433868408
-13.3518476486206
-12.6842555999756
-9.537034034729
-7.24814605712891
-4.57777643203735
-0.47685170173645
-4.1962947845459
-6.48518323898315
2.8611102104187
3.24259161949158
-9.72777462005615
-9.63240432739258
-0.286111027002335
-6.6759238243103
-22.8888816833496
-34.0472106933594
-50.355541229248
-77.1546020507813
-110.915702819824
-163.274017333984
-214.106414794922
-222.499008178711
-208.861038208008
-203.520309448242
-192.075866699219
-148.873107910156
-75.4379425048828
8.29721927642822
97.849967956543
195.890670776367
335.036010742188
545.518371582031
811.6015625
1093.23022460938
1339.66711425781
1548.24206542969
1729.35034179688
1842.74572753906
1878.31884765625
1823.48095703125
1607.84851074219
1202.14318847656
715.849792480469
270.088806152344
-143.436996459961
-510.135955810547
-761.913635253906
-919.942321777344
-1035.72192382813
-1099.81079101563
-1091.70422363281
-1035.14965820313
-968.008972167969
-906.876586914063
-852.801574707031
-821.424743652344
-822.283081054688
-839.068237304688
-848.70068359375
-836.588623046875
-802.827514648438
-744.270141601563
-668.927551269531
-601.977600097656
-553.910949707031
-530.831298828125
-534.741516113281
-551.145202636719
-559.156311035156
-552.671142578125
-528.447082519531
-472.178558349609
-398.457275390625
-333.3193359375
-280.961029052734
-246.436950683594
-234.515670776367
-238.902694702148
-255.687881469727
-268.658233642578
-254.638809204102
-216.872146606445
-169.091613769531
-121.024963378906
-84.8796005249023
-63.9934997558594
-52.3583183288574
-48.6388740539551
-54.8379440307617
-61.7046089172363
-55.5055389404297
-39.2925796508789
-16.1175880432129
20.5046234130859
55.7916488647461
70.8601608276367
71.8138656616211
72.2907180786133
82.2092361450195
93.367561340332
97.2777481079102
109.866630554199
132.087921142578
146.107360839844
152.020324707031
164.132354736328
179.963836669922
186.925872802734
184.827713012695
177.961059570313
173.669387817383
176.435134887695
183.587905883789
192.075866699219
199.800857543945
203.424942016602
204.855484008789
205.999938964844
210.291595458984
215.346221923828
217.82585144043
222.499008178711
225.074005126953
221.068450927734
215.155487060547
207.811965942383
210.768447875977
229.651779174805
237.472152709961
234.801773071289
244.815658569336
249.393432617188
231.463821411133
215.155487060547
216.872146606445
213.438827514648
205.904556274414
211.912887573242
215.918441772461
213.534194946289
215.250854492188
211.912887573242
197.893447875977
191.694381713867
191.885116577148
180.249938964844
169.186981201172
171.285125732422
173.764755249023
176.149017333984
177.770309448242
169.186981201172
158.410140991211
150.589767456055
138.573104858398
130.46662902832
130.27587890625
130.27587890625
131.515701293945
135.998107910156
139.049957275391
139.908294677734
138.191619873047
131.611068725586
115.874961853027
98.1360778808594
87.0731201171875
81.3508987426758
84.0212707519531
92.4138565063477
102.332374572754
108.054595947266
96.8962631225586
79.2527542114258
68.3805313110352
55.0286865234375
40.6277656555176
35.4777679443359
45.3962821960449
63.7073860168457
72.4814605712891
66.9499816894531
54.4564628601074
43.7749862670898
28.1342506408691
9.537034034729
-2.09814739227295
-12.6842555999756
-19.2648086547852
-13.4472179412842
-1.33518481254578
2.95648050308228
-6.1037015914917
-17.9296245574951
-19.8370304107666
-16.30832862854
-17.8342533111572
-22.5074005126953
-28.6111011505127
-34.0472106933594
-26.9898052215576
-13.7333288192749
-8.29721927642822
-13.256477355957
-25.3685111999512
-34.2379531860352
-38.4342460632324
-51.0231323242188
-62.8490524291992
-61.0370178222656
-61.4184989929199
-65.137939453125
-62.5629425048828
-61.7046089172363
-66.3777542114258
-68.8573837280273
-71.9092330932617
-82.3999710083008
-96.7055282592773
-107.86385345459
-103.858299255371
-92.4138565063477
-84.0212707519531
-73.9120101928711
-72.0046081542969
-82.0184936523438
-89.9342269897461
-94.702751159668
-96.7055282592773
-90.4110794067383
-80.778678894043
-77.9175643920898
-82.3999710083008
-84.3073806762695
-81.3508987426758
-78.6805267333984
-81.0647888183594
-88.7897872924805
-93.7490463256836
-91.4601593017578
-85.8333053588867
-85.1657104492188
-87.5499725341797
-83.6397857666016
-83.6397857666016
-85.1657104492188
-77.2499771118164
-74.198127746582
-77.345344543457
-76.296272277832
-73.7212753295898
-70.1925735473633
-65.0425720214844
-67.7129440307617
-72.4814605712891
-68.0944213867188
-65.137939453125
-67.0453491210938
-65.0425720214844
-61.4184989929199
-63.6120147705078
-67.3314590454102
-68.4759063720703
-70.1925735473633
-65.0425720214844
-52.5490570068359
-52.0722045898438
-57.7944259643555
-53.6935005187988
-50.9277610778809
-56.8407211303711
-60.9416465759277
-56.6499824523926
-51.8814659118652
-50.9277610778809
-44.4425773620605
-34.7148017883301
-36.8129501342773
-42.2490615844727
-36.6222114562988
-31.2814712524414
-28.9925842285156
-19.6462898254395
-13.9240694046021
-22.125919342041
-31.0907306671143
-31.4722118377686
-34.4286918640137
-37.4805450439453
-34.9055442810059
-41.1046180725098
-47.9712791442871
-43.7749862670898
-44.0610961914063
-46.5407257080078
-47.3036880493164
-47.017578125
-37.2898025512695
-30.1370277404785
-29.0879535675049
-26.4175834655762
-30.0416564941406
-31.9490642547607
-26.3222141265869
-30.6138782501221
-39.7694320678711
-36.6222114562988
-28.0388793945313
-22.5074005126953
-19.074068069458
-16.1175880432129
-16.4990692138672
-18.8833274841309
-15.5453653335571
-9.72777462005615
-8.86944198608398
-11.2537002563477
-9.82314491271973
-3.147221326828
3.24259161949158
7.24814605712891
10.204626083374
3.91018390655518
-11.5398111343384
-20.3138828277588
-16.4036979675293
-4.95925760269165
6.19907188415527
5.81759071350098
4.1962947845459
9.34629344940186
11.0629596710205
11.5398111343384
12.0166625976563
8.86944198608398
9.25092315673828
10.204626083374
10.5861072540283
13.6379585266113
13.1611070632935
18.8833274841309
28.8972129821777
29.3740653991699
28.5157318115234
32.6166572570801
36.3360977172852
31.4722118377686
26.3222141265869
33.0935096740723
37.8620262145996
32.9981384277344
26.9898052215576
23.5564746856689
24.1286964416504
25.8453617095947
25.177770614624
25.9407329559326
32.8073959350586
36.0499877929688
30.8046188354492
27.657398223877
28.5157318115234
31.1861019134521
31.1861019134521
23.3657341003418
21.4583263397217
29.7555465698242
31.5675830841064
26.5129547119141
28.5157318115234
30.70924949646
27.0851764678955
30.6138782501221
34.1425819396973
27.5620288848877
25.177770614624
25.177770614624
22.9842510223389
25.8453617095947
29.7555465698242
41.3907279968262
51.1185035705566
42.9166526794434
33.5703582763672
28.4203605651855
30.4231376647949
34.1425819396973
24.4148063659668
14.2101802825928
13.7333288192749
19.6462898254395
23.4611034393311
18.6925868988037
18.2157344818115
22.3166599273682
15.1638841629028
2.76573991775513
0.858333051204681
8.20184898376465
14.687032699585
19.4555492401123
24.7009181976318
25.5592517852783
22.2212886810303
18.9786968231201
18.6925868988037
17.357400894165
14.0194396972656
17.6435127258301
22.9842510223389
25.0823993682861
24.5101776123047
22.0305480957031
24.7009181976318
29.278694152832
29.0879535675049
23.8425846099854
19.360179901123
21.9351787567139
19.074068069458
6.77129411697388
3.33796191215515
10.8722190856934
11.8259220123291
11.0629596710205
13.3518476486206
7.15277528762817
3.147221326828
10.3953666687012
11.1583299636841
6.86666440963745
7.53425693511963
3.147221326828
-2.5749990940094
3.24259161949158
12.8749961853027
17.1666603088379
15.4499950408936
6.29444265365601
0.667592406272888
9.82314491271973
16.8805503845215
12.1120328903198
9.34629344940186
14.9731435775757
17.9296245574951
14.4009208679199
11.4444408416748
9.9185152053833
8.96481227874756
6.19907188415527
6.96203470230103
15.8314762115479
20.5999927520752
18.0249938964844
22.8888816833496
30.2323970794678
30.2323970794678
29.6601753234863
25.4638805389404
22.125919342041
27.8481388092041
28.3249912261963
17.4527721405029
5.24536848068237
-2.09814739227295
-1.81203651428223
6.58055353164673
8.58333015441895
-0.9537034034729
-2.47962880134583
4.48240613937378
4.29166507720947
5.1499981880188
10.6814785003662
9.25092315673828
2.5749990940094
-1.71666610240936
0.381481349468231
-0.190740674734116
-10.8722190856934
-16.2129573822021
-12.9703664779663
-15.4499950408936
-23.3657341003418
-24.1286964416504
-26.6083240509033
-41.6768379211426
-50.1647987365723
-53.0259094238281
-56.6499824523926
-54.8379440307617
-54.4564628601074
-53.7888717651367
-56.4592399597168
-64.5657196044922
-63.2305335998535
-55.4101676940918
-50.9277610778809
-51.404613494873
-52.0722045898438
-42.9166526794434
-31.0907306671143
-32.9981384277344
-40.7231369018555
-41.8675804138184
-39.2925796508789
-36.7175827026367
-31.9490642547607
-24.2240657806396
-19.360179901123
-20.0277709960938
-16.022216796875
-7.6296272277832
-6.6759238243103
-8.20184898376465
-4.7685170173645
-4.57777643203735
-4.67314672470093
-0.762962698936462
-0.286111027002335
-4.48240613937378
-7.82036781311035
-12.3981437683105
-17.2620315551758
-12.0166625976563
-6.86666440963745
-7.0574049949646
0.381481349468231
4.57777643203735
-2.1935179233551
0.286111027002335
8.0111083984375
6.38981294631958
9.06018257141113
9.06018257141113
-0.47685170173645
-8.20184898376465
-25.5592517852783
-51.6907234191895
-81.5416412353516
-127.700881958008
-184.350860595703
-223.357330322266
-222.880477905273
-204.283264160156
-192.648086547852
-179.58235168457
-136.951812744141
-53.5027618408203
34.5240631103516
116.542556762695
235.278625488281
409.424865722656
638.981262207031
919.751586914063
1197.66076660156
1433.70227050781
1651.90966796875
1838.64477539063
1941.93090820313
1956.71325683594
1870.97534179688
1631.21423339844
1210.34497070313
705.454406738281
247.676773071289
-182.443466186523
-575.178527832031
-823.427490234375
-955.515441894531
-1056.32189941406
-1110.58764648438
-1106.10522460938
-1070.72277832031
-1008.15985107422
-929.28857421875
-863.864562988281
-831.05712890625
-832.106201171875
-848.41455078125
-857.283996582031
-846.793273925781
-812.364562988281
-755.619201660156
-684.282165527344
-615.4248046875
-566.499816894531
-546.090576171875
-549.809997558594
-557.535034179688
-558.774841308594
-551.908142089844
-522.915588378906
-471.987823486328
-412.095245361328
-345.908233642578
-297.460083007813
-284.298980712891
-285.061950683594
-282.200836181641
-275.143432617188
-271.423980712891
-257.499908447266
-217.82585144043
-174.336975097656
-139.908294677734
-105.002746582031
-76.3916397094727
-65.4240493774414
-66.6638641357422
-70.6694183349609
-70.5740509033203
-59.701831817627
-40.4370231628418
-17.0712909698486
13.4472179412842
41.3907279968262
63.8027572631836
80.6833038330078
82.3999710083008
81.0647888183594
86.3101577758789
90.7925643920898
99.5666351318359
112.060150146484
121.311073303223
132.850875854492
145.725875854492
154.786056518555
159.745315551758
158.314758300781
158.219390869141
168.233276367188
179.010131835938
179.773086547852
179.58235168457
188.0703125
200.84992980957
215.060119628906
221.259185791016
215.82307434082
215.346221923828
218.207336425781
212.961975097656
207.716598510742
202.757339477539
200.086975097656
207.43049621582
213.915664672852
221.163818359375
228.69807434082
230.605484008789
235.278625488281
236.518447875977
226.027709960938
215.346221923828
207.907333374023
199.610122680664
204.950866699219
213.438827514648
211.340667724609
217.348999023438
219.637893676758
206.476791381836
197.988830566406
190.836044311523
179.868453979492
174.432357788086
173.383270263672
180.536056518555
190.454574584961
189.977722167969
185.686050415039
182.920318603516
179.963836669922
173.287902832031
161.080505371094
150.685134887695
143.723098754883
136.856430053711
134.281433105469
142.769393920898
153.260131835938
152.497177124023
146.488845825195
142.960144042969
133.423110961914
124.076812744141
115.398109436035
101.855522155762
102.904594421387
113.20458984375
114.635147094727
106.814781188965
88.1221923828125
72.5768280029297
68.0944213867188
56.8407211303711
43.1073951721191
41.3907279968262
44.4425773620605
51.2138710021973
62.2768325805664
67.7129440307617
66.854606628418
60.8462753295898
50.7370223999023
39.864803314209
20.3138828277588
5.43610954284668
8.67870044708252
11.1583299636841
6.58055353164673
4.10092449188232
4.10092449188232
1.62129580974579
-4.48240613937378
-12.9703664779663
-26.4175834655762
-40.913875579834
-45.2055397033691
-38.4342460632324
-31.7583236694336
-27.4666576385498
-24.6055469512939
-27.4666576385498
-31.9490642547607
-36.1453590393066
-39.0064697265625
-44.6333198547363
-55.3147964477539
-55.6962776184082
-49.783317565918
-47.8759117126465
-47.2083168029785
-44.7286911010742
-47.017578125
-60.0833129882813
-69.3342361450195
-74.7703475952148
-80.778678894043
-79.1573791503906
-79.6342315673828
-80.778678894043
-70.5740509033203
-63.8981285095215
-67.1407165527344
-71.0509033203125
-80.9694213867188
-88.9805297851563
-84.0212707519531
-84.0212707519531
-88.8851547241211
-84.4027481079102
-85.8333053588867
-97.7546005249023
-99.4712677001953
-91.9370040893555
-93.7490463256836
-97.7546005249023
-100.138854980469
-107.673110961914
-105.479598999023
-92.6045989990234
-85.3564529418945
-82.9721984863281
-82.1138610839844
-81.7323837280273
-88.7897872924805
-94.7981185913086
-86.5962677001953
-86.7870101928711
-91.1740417480469
-83.2583084106445
-83.1629333496094
-88.7897872924805
-82.9721984863281
-77.4407196044922
-81.0647888183594
-75.9147872924805
-65.2333145141602
-66.3777542114258
-66.854606628418
-66.3777542114258
-70.2879409790039
-74.3888626098633
-77.2499771118164
-72.8629379272461
-66.2823867797852
-65.7101669311523
-67.5222015380859
-67.903678894043
-61.7999801635742
-54.3610954284668
-54.9333152770996
-59.0342407226563
-58.5573883056641
-57.6036834716797
-55.887020111084
-47.9712791442871
-43.679615020752
-48.6388740539551
-48.4481315612793
-43.2027626037598
-39.5786895751953
-35.382396697998
-36.9083213806152
-36.9083213806152
-28.7064723968506
-24.4148063659668
-23.2703628540039
-18.6925868988037
-19.8370304107666
-25.4638805389404
-29.6601753234863
-32.8073959350586
-38.8157272338867
-46.3499870300293
-40.3416519165039
-29.9462871551514
-31.6629524230957
-28.9925842285156
-17.2620315551758
-16.5944385528564
-26.3222141265869
-32.6166572570801
-35.7638778686523
-36.9083213806152
-31.3768424987793
-24.3194370269775
-20.7907333374023
-20.409252166748
-22.4120292663574
-22.5074005126953
-19.7416610717773
-20.409252166748
-23.4611034393311
-21.5536975860596
-14.5916624069214
-7.15277528762817
-6.6759238243103
-13.256477355957
-14.4962921142578
-12.1120328903198
-17.9296245574951
-22.8888816833496
-20.7907333374023
-21.839807510376
-19.7416610717773
-10.0138854980469
-3.33796191215515
2.09814739227295
9.44166374206543
11.0629596710205
4.00555419921875
-4.95925760269165
-10.4907369613647
-13.5425882339478
-11.3490705490112
-2.5749990940094
7.34351634979248
8.10647869110107
4.10092449188232
14.3055505752563
28.9925842285156
25.9407329559326
20.9814739227295
26.3222141265869
23.3657341003418
18.4064750671387
23.7472152709961
25.2731399536133
20.6953639984131
14.4962921142578
10.9675893783569
16.6898097991943
20.8861045837402
18.5972156524658
20.7907333374023
31.6629524230957
39.5786895751953
38.148136138916
37.0036926269531
38.148136138916
38.7203598022461
41.1999855041504
44.9194297790527
47.5897979736328
45.3962821960449
42.5351715087891
47.1129493713379
47.1129493713379
37.8620262145996
37.7666549682617
43.3935050964355
40.913875579834
37.099063873291
34.810173034668
29.4694347381592
23.4611034393311
25.5592517852783
32.9027671813965
38.7203598022461
46.8268356323242
49.5925750732422
43.679615020752
44.4425773620605
46.4453544616699
42.0583190917969
43.1073951721191
45.8731346130371
45.0148010253906
42.1536903381348
34.9055442810059
30.5185089111328
32.9027671813965
30.4231376647949
26.7990646362305
28.7064723968506
23.1749935150146
16.6898097991943
23.1749935150146
31.4722118377686
33.6657295227051
38.9110984802246
41.962947845459
39.2925796508789
42.7259140014648
40.1509132385254
32.7120246887207
34.6194343566895
33.3796195983887
32.7120246887207
37.5759124755859
33.2842483520508
27.4666576385498
27.2759170532227
17.6435127258301
11.635181427002
18.1203651428223
18.1203651428223
15.35462474823
14.1148099899292
12.0166625976563
13.0657367706299
13.9240694046021
15.7361059188843
12.302773475647
10.1092557907104
14.3055505752563
10.2999963760376
7.91573810577393
9.63240432739258
6.48518323898315
12.0166625976563
18.5972156524658
10.1092557907104
7.43888664245605
16.8805503845215
16.6898097991943
10.5861072540283
7.6296272277832
5.43610954284668
9.9185152053833
13.6379585266113
8.3925895690918
9.06018257141113
13.9240694046021
11.4444408416748
12.302773475647
14.1148099899292
8.96481227874756
9.34629344940186
12.2074031829834
9.06018257141113
9.9185152053833
11.5398111343384
7.91573810577393
2.00277709960938
-1.9074068069458
-3.62407302856445
-5.81759071350098
-10.5861072540283
-15.4499950408936
-18.2157344818115
-22.2212886810303
-27.0851764678955
-25.5592517852783
-14.7824029922485
-6.58055353164673
-7.15277528762817
-5.7222204208374
-0.667592406272888
0.9537034034729
0.667592406272888
-3.33796191215515
-7.53425693511963
-4.86388731002808
-9.63240432739258
-16.2129573822021
-7.0574049949646
-3.147221326828
-8.3925895690918
-6.29444265365601
-0.9537034034729
0.762962698936462
-2.1935179233551
-2.09814739227295
6.6759238243103
14.2101802825928
16.9759197235107
19.2648086547852
21.6490669250488
17.4527721405029
6.77129411697388
1.14444410800934
-0.762962698936462
-0.47685170173645
1.23981440067291
-5.7222204208374
-14.4962921142578
-9.82314491271973
-2.00277709960938
-7.91573810577393
-18.0249938964844
-15.0685138702393
-3.33796191215515
6.58055353164673
9.63240432739258
5.62685012817383
-2.00277709960938
-9.9185152053833
-6.6759238243103
-3.43333220481873
-13.3518476486206
-11.4444408416748
-0.572222054004669
-11.9212923049927
-28.4203605651855
-27.8481388092041
-29.278694152832
-40.7231369018555
-52.1675758361816
-58.7481307983398
-58.0805358886719
-55.3147964477539
-57.1268348693848
-59.9879455566406
-53.121280670166
-41.1999855041504
-37.0036926269531
-34.0472106933594
-34.2379531860352
-40.7231369018555
-39.864803314209
-41.3907279968262
-50.2601699829102
-49.5925750732422
-42.8212814331055
-36.431468963623
-32.04443359375
-29.1833248138428
-12.302773475647
2.1935179233551
-2.1935179233551
-5.91296100616455
-9.63240432739258
-12.588885307312
-9.82314491271973
-20.2185115814209
-35.382396697998
-32.8073959350586
-20.3138828277588
-14.5916624069214
-18.2157344818115
-19.074068069458
-18.2157344818115
-21.7444381713867
-15.4499950408936
-5.05462789535522
-3.43333220481873
-0.381481349468231
4.00555419921875
8.77407169342041
12.588885307312
13.7333288192749
20.8861045837402
22.3166599273682
11.3490705490112
9.06018257141113
15.7361059188843
12.8749961853027
-0.572222054004669
-17.8342533111572
-50.0694274902344
-87.7407150268555
-118.73607635498
-169.854568481445
-217.730484008789
-224.787887573242
-216.872146606445
-210.196228027344
-197.798080444336
-157.647171020508
-75.8194198608398
9.9185152053833
90.8879318237305
208.956420898438
386.535980224609
625.820190429688
918.034912109375
1208.62829589844
1448.67541503906
1665.35693359375
1866.58825683594
1989.42529296875
2014.50769042969
1943.74291992188
1722.865234375
1319.92553710938
806.642333984375
322.54248046875
-114.635147094727
-531.117431640625
-826.86083984375
-989.562622070313
-1100.76440429688
-1165.42553710938
-1173.53198242188
-1133.38110351563
-1051.4580078125
-957.327453613281
-896.576538085938
-872.924743652344
-865.48583984375
-871.971008300781
-881.412658691406
-879.982116699219
-858.333068847656
-809.121948242188
-738.357177734375
-659.676635742188
-600.260925292969
-575.369262695313
-567.453552246094
-571.554443359375
-576.990539550781
-561.254455566406
-534.169250488281
-497.451690673828
-440.134124755859
-376.903594970703
-327.02490234375
-294.408233642578
-277.9091796875
-274.189727783203
-271.233245849609
-263.508239746094
-249.584182739258
-220.210113525391
-177.007354736328
-134.472183227539
-103.190704345703
-79.1573791503906
-63.6120147705078
-61.0370178222656
-63.8981285095215
-57.6990547180176
-38.5296173095703
-17.738883972168
4.7685170173645
31.5675830841064
48.5435028076172
58.3666496276855
73.1490478515625
84.4981231689453
88.5990447998047
98.1360778808594
107.005523681641
107.482376098633
114.825889587402
132.374038696289
150.208282470703
167.279571533203
180.726791381836
185.113830566406
180.154571533203
180.726791381836
189.786972045898
194.841598510742
191.312896728516
189.596237182617
200.84992980957
210.291595458984
211.722152709961
212.771224975586
210.386962890625
211.722152709961
217.539749145508
213.72492980957
210.005493164063
215.632339477539
217.348999023438
220.686965942383
227.076782226563
228.125854492188
233.561965942383
240.524002075195
242.145294189453
240.619369506836
234.992523193359
230.79621887207
228.60270690918
222.594375610352
217.444381713867
216.681411743164
222.594375610352
232.89436340332
234.324920654297
229.747146606445
222.403625488281
206.286041259766
189.024017333984
180.154571533203
185.399948120117
194.174011230469
190.263824462891
184.541610717773
187.021240234375
186.353637695313
178.819381713867
165.181427001953
146.584213256836
135.998107910156
131.801803588867
132.56477355957
139.812911987305
141.434219360352
136.188842773438
137.714767456055
141.148101806641
134.853652954102
129.894409179688
123.9814453125
107.482376098633
91.5555267333984
84.4027481079102
91.5555267333984
104.62126159668
105.098114013672
97.6592254638672
89.7434921264648
77.7268295288086
72.0999755859375
72.8629379272461
70.0971984863281
65.6147918701172
60.7509078979492
65.5194244384766
75.6286773681641
73.5305328369141
60.8462753295898
43.2981338500977
23.7472152709961
8.3925895690918
-2.95648050308228
-9.63240432739258
-6.77129411697388
0.0953703373670578
7.0574049949646
8.77407169342041
4.1962947845459
-2.38425850868225
-13.7333288192749
-18.0249938964844
-12.9703664779663
-11.9212923049927
-7.0574049949646
-1.9074068069458
-6.6759238243103
-10.6814785003662
-7.34351634979248
-10.7768487930298
-26.226842880249
-31.1861019134521
-26.0361022949219
-31.9490642547607
-41.4860992431641
-51.404613494873
-58.0805358886719
-57.0314636230469
-60.1786842346191
-62.2768325805664
-63.039794921875
-75.0564575195313
-91.7462692260742
-98.4221878051758
-94.7981185913086
-91.6508941650391
-94.7981185913086
-95.751823425293
-92.8907089233398
-97.3731155395508
-106.242561340332
-111.869407653809
-116.161071777344
-113.490707397461
-104.716636657715
-101.664779663086
-96.7055282592773
-90.6018218994141
-96.8962631225586
-105.574966430664
-105.002746582031
-102.332374572754
-105.193481445313
-108.626815795898
-105.288856506348
-101.760154724121
-99.5666351318359
-92.1277465820313
-86.3101577758789
-91.8416366577148
-102.332374572754
-107.387001037598
-104.049041748047
-98.8036727905273
-101.855522155762
-106.624038696289
-102.141632080078
-96.9916381835938
-98.7083053588867
-94.5120086669922
-87.8360824584961
-90.7925643920898
-89.8388595581055
-86.5009002685547
-86.7870101928711
-84.8796005249023
-84.8796005249023
-84.8796005249023
-73.7212753295898
-60.5601654052734
-57.9851684570313
-61.99072265625
-63.039794921875
-62.7536849975586
-63.5166473388672
-64.5657196044922
-59.701831817627
-49.4972076416016
-48.6388740539551
-56.4592399597168
-61.4184989929199
-59.9879455566406
-55.1240577697754
-47.8759117126465
-36.7175827026367
-35.0009155273438
-41.3907279968262
-42.630542755127
-42.5351715087891
-40.3416519165039
-34.7148017883301
-29.278694152832
-20.6953639984131
-12.588885307312
-14.7824029922485
-18.6925868988037
-23.9379558563232
-36.5268402099609
-34.0472106933594
-22.4120292663574
-27.5620288848877
-25.9407329559326
-15.4499950408936
-15.0685138702393
-12.0166625976563
-10.3953666687012
-17.0712909698486
-20.0277709960938
-18.3111057281494
-13.3518476486206
-3.24259161949158
0.47685170173645
1.33518481254578
5.1499981880188
6.58055353164673
10.0138854980469
8.29721927642822
2.47962880134583
1.81203651428223
0
-2.1935179233551
3.05185079574585
12.7796258926392
13.1611070632935
8.3925895690918
12.302773475647
14.5916624069214
7.34351634979248
-2.09814739227295
-5.53147983551025
-1.9074068069458
-1.9074068069458
-5.91296100616455
-4.38703584671021
4.1962947845459
14.2101802825928
12.588885307312
7.53425693511963
12.2074031829834
12.1120328903198
6.58055353164673
8.10647869110107
10.9675893783569
14.5916624069214
19.1694374084473
18.1203651428223
14.3055505752563
16.6898097991943
20.5999927520752
10.5861072540283
-1.33518481254578
1.9074068069458
10.3953666687012
20.8861045837402
26.0361022949219
17.357400894165
11.8259220123291
16.9759197235107
20.409252166748
18.787956237793
13.6379585266113
10.3953666687012
8.3925895690918
1.04907369613647
4.00555419921875
16.30832862854
16.9759197235107
16.30832862854
16.1175880432129
11.635181427002
20.6953639984131
32.9027671813965
26.6083240509033
20.5999927520752
26.7990646362305
31.2814712524414
35.6685066223145
43.8703575134277
40.8185043334961
27.943510055542
24.0333251953125
27.3712882995605
28.2296199798584
24.9870281219482
23.8425846099854
30.2323970794678
30.70924949646
28.2296199798584
36.8129501342773
41.0092468261719
35.4777679443359
29.3740653991699
25.3685111999512
26.1314735412598
26.5129547119141
28.4203605651855
32.8073959350586
27.1805477142334
16.4036979675293
11.8259220123291
16.4990692138672
21.6490669250488
17.5481433868408
18.2157344818115
27.657398223877
26.7990646362305
20.2185115814209
21.9351787567139
22.6981410980225
22.2212886810303
24.0333251953125
17.357400894165
11.9212923049927
16.022216796875
20.9814739227295
27.5620288848877
30.1370277404785
26.6083240509033
28.4203605651855
37.1944313049316
36.5268402099609
23.9379558563232
21.839807510376
30.2323970794678
29.7555465698242
26.9898052215576
30.8999900817871
27.4666576385498
20.3138828277588
23.1749935150146
26.7036952972412
28.8972129821777
31.5675830841064
31.4722118377686
29.278694152832
21.6490669250488
14.687032699585
13.256477355957
12.1120328903198
13.5425882339478
13.9240694046021
6.77129411697388
4.1962947845459
6.58055353164673
4.29166507720947
1.81203651428223
-3.24259161949158
-4.1962947845459
1.9074068069458
-0.858333051204681
-7.15277528762817
-6.00833129882813
-0.0953703373670578
4.67314672470093
4.7685170173645
2.5749990940094
-4.86388731002808
-11.8259220123291
-12.4935140609741
-12.588885307312
-7.72499752044678
-0.667592406272888
-2.09814739227295
-4.48240613937378
2.09814739227295
9.63240432739258
5.43610954284668
-4.29166507720947
-10.204626083374
-11.7305517196655
-9.34629344940186
-13.0657367706299
-21.5536975860596
-21.1722145080566
-19.074068069458
-19.2648086547852
-9.25092315673828
-0.858333051204681
-7.0574049949646
-3.05185079574585
11.1583299636841
11.1583299636841
11.635181427002
17.0712909698486
13.3518476486206
11.2537002563477
14.3055505752563
11.5398111343384
7.0574049949646
10.5861072540283
6.96203470230103
-2.38425850868225
-0.762962698936462
-4.95925760269165
-13.0657367706299
-7.43888664245605
-6.86666440963745
-14.5916624069214
-10.1092557907104
0.0953703373670578
3.91018390655518
7.53425693511963
11.0629596710205
12.6842555999756
13.0657367706299
7.82036781311035
-2.76573991775513
-7.43888664245605
-2.28888821601868
1.23981440067291
1.71666610240936
-5.53147983551025
-23.2703628540039
-30.1370277404785
-28.1342506408691
-32.2351760864258
-43.8703575134277
-53.6935005187988
-56.0777587890625
-56.6499824523926
-50.9277610778809
-40.1509132385254
-35.1916542053223
-30.70924949646
-26.7036952972412
-36.7175827026367
-42.9166526794434
-33.5703582763672
-29.9462871551514
-27.8481388092041
-27.657398223877
-37.3851737976074
-37.0036926269531
-35.1916542053223
-38.4342460632324
-29.7555465698242
-21.2675857543945
-20.2185115814209
-10.6814785003662
1.52592539787292
-6.77129411697388
-21.3629570007324
-17.8342533111572
-12.4935140609741
-12.3981437683105
-8.10647869110107
-7.6296272277832
-9.15555286407471
-7.0574049949646
-7.82036781311035
-7.0574049949646
-2.95648050308228
-4.00555419921875
-2.76573991775513
8.77407169342041
17.1666603088379
16.30832862854
12.8749961853027
10.5861072540283
10.8722190856934
11.9212923049927
11.635181427002
10.9675893783569
9.44166374206543
4.10092449188232
-1.04907369613647
-12.2074031829834
-45.3962821960449
-77.8221969604492
-107.95922088623
-164.036987304688
-201.899002075195
-198.465682983398
-194.46012878418
-186.830490112305
-165.849014282227
-124.362922668457
-51.5953521728516
30.3277683258057
114.921257019043
220.11474609375
370.513763427734
587.385925292969
854.9951171875
1128.32653808594
1367.03845214844
1573.03833007813
1744.60961914063
1843.50866699219
1871.26147460938
1804.78833007813
1564.455078125
1146.63757324219
671.693298339844
234.229553222656
-177.29345703125
-526.348876953125
-755.809936523438
-899.246948242188
-1003.86822509766
-1062.90246582031
-1056.13110351563
-1006.06170654297
-943.117309570313
-887.516357421875
-845.458068847656
-818.46826171875
-824.953430175781
-847.651550292969
-852.89697265625
-833.059936523438
-786.996032714844
-722.430297851563
-645.0849609375
-568.12109375
-515.858154296875
-497.260955810547
-508.610015869141
-532.45263671875
-550.286865234375
-547.425720214844
-507.465576171875
-445.570220947266
-384.8193359375
-326.834167480469
-282.677673339844
-258.167510986328
-248.725845336914
-253.398986816406
-259.407318115234
-254.829544067383
-238.044372558594
-206.667526245117
-166.230499267578
-121.597183227539
-76.1055297851563
-47.8759117126465
-40.4370231628418
-39.197208404541
-42.7259140014648
-50.2601699829102
-51.1185035705566
-33.761100769043
-3.71944332122803
22.6981410980225
42.9166526794434
61.2277565002441
73.9120101928711
75.1518249511719
70.0018310546875
71.0509033203125
76.9638671875
84.6888580322266
100.806449890137
120.166625976563
131.611068725586
141.815689086914
155.83512878418
164.323089599609
161.461990356445
156.598098754883
162.3203125
168.80549621582
170.426803588867
180.631423950195
192.45735168457
194.46012878418
192.648086547852
193.887893676758
193.983276367188
195.318450927734
200.563827514648
198.179565429688
193.029571533203
191.885116577148
190.359191894531
194.841598510742
201.994384765625
207.23974609375
209.337890625
211.436050415039
219.828628540039
216.490676879883
204.283264160156
197.321228027344
189.310119628906
187.688827514648
185.590682983398
179.677719116211
189.691604614258
205.809188842773
213.72492980957
217.348999023438
214.011047363281
197.321228027344
175.576797485352
167.851791381836
167.947174072266
161.938842773438
161.748092651367
170.903656005859
176.911987304688
170.140686035156
150.494400024414
134.758285522461
126.842552185059
116.637924194336
113.20458984375
122.550888061523
126.747184753418
127.414772033691
133.136993408203
130.180511474609
127.033294677734
125.602737426758
106.910148620605
86.7870101928711
76.296272277832
70.6694183349609
78.7759017944336
96.6101531982422
103.572189331055
97.9453353881836
92.318489074707
82.0184936523438
59.6064605712891
39.9601707458496
34.2379531860352
38.0527648925781
41.1046180725098
40.5323944091797
50.9277610778809
63.7073860168457
57.3175735473633
40.6277656555176
23.1749935150146
9.82314491271973
2.28888821601868
-5.7222204208374
-8.10647869110107
-2.95648050308228
3.05185079574585
12.1120328903198
20.0277709960938
16.2129573822021
1.81203651428223
-11.1583299636841
-21.4583263397217
-26.7990646362305
-26.9898052215576
-33.5703582763672
-34.1425819396973
-23.6518440246582
-21.0768451690674
-19.6462898254395
-16.5944385528564
-28.0388793945313
-45.1101722717285
-50.2601699829102
-48.5435028076172
-50.355541229248
-51.4999847412109
-46.2546157836914
-46.4453544616699
-50.2601699829102
-50.6416511535645
-56.1731300354004
-61.4184989929199
-62.2768325805664
-67.6175689697266
-73.9120101928711
-74.9610900878906
-74.6749725341797
-72.3860855102539
-65.805534362793
-65.4240493774414
-71.2416458129883
-77.5360870361328
-86.0240478515625
-88.9805297851563
-81.5416412353516
-76.0101623535156
-76.7731246948242
-74.0073852539063
-72.4814605712891
-75.8194198608398
-73.4351654052734
-73.6259002685547
-81.7323837280273
-83.4490509033203
-84.2120132446289
-86.5009002685547
-81.9231185913086
-76.2009048461914
-72.5768280029297
-66.2823867797852
-63.9934997558594
-70.7647933959961
-76.1055297851563
-76.3916397094727
-76.3916397094727
-76.3916397094727
-74.4842376708984
-72.2907180786133
-73.9120101928711
-76.296272277832
-73.9120101928711
-69.6203460693359
-63.6120147705078
-64.2796096801758
-68.0944213867188
-60.6555366516113
-56.8407211303711
-59.5110931396484
-54.2657241821289
-53.5981292724609
-56.6499824523926
-51.0231323242188
-48.6388740539551
-49.1157264709473
-44.8240585327148
-42.1536903381348
-45.8731346130371
-51.3092422485352
-49.5925750732422
-49.4018363952637
-55.887020111084
-51.5953521728516
-40.8185043334961
-37.2898025512695
-29.0879535675049
-23.3657341003418
-35.0962867736816
-41.0092468261719
-33.0935096740723
-33.3796195983887
-41.2953567504883
-38.148136138916
-30.0416564941406
-26.9898052215576
-23.4611034393311
-22.6981410980225
-26.9898052215576
-29.3740653991699
-31.9490642547607
-35.6685066223145
-37.4805450439453
-39.9601707458496
-36.3360977172852
-23.0796222686768
-20.6953639984131
-30.5185089111328
-33.5703582763672
-30.70924949646
-28.8972129821777
-25.6546211242676
-24.0333251953125
-25.6546211242676
-24.6055469512939
-24.4148063659668
-23.6518440246582
-18.787956237793
-18.4064750671387
-17.2620315551758
-14.4962921142578
-20.1231422424316
-22.0305480957031
-16.6898097991943
-16.1175880432129
-10.2999963760376
-1.43055510520935
-4.7685170173645
-15.1638841629028
-20.1231422424316
-15.6407356262207
-13.9240694046021
-23.8425846099854
-30.0416564941406
-26.9898052215576
-17.9296245574951
-6.29444265365601
-4.48240613937378
-2.5749990940094
4.7685170173645
-6.1037015914917
-22.3166599273682
-20.409252166748
-14.2101802825928
-9.63240432739258
0.667592406272888
12.9703664779663
17.5481433868408
17.4527721405029
19.9324016571045
23.6518440246582
26.3222141265869
29.7555465698242
28.5157318115234
18.3111057281494
15.35462474823
21.5536975860596
24.2240657806396
25.177770614624
21.2675857543945
7.15277528762817
-2.95648050308228
0.9537034034729
5.7222204208374
9.15555286407471
21.2675857543945
31.8536930084229
34.0472106933594
34.4286918640137
32.7120246887207
28.3249912261963
25.4638805389404
30.995361328125
34.6194343566895
27.2759170532227
25.177770614624
35.0009155273438
39.3879508972168
35.0962867736816
34.3333206176758
35.2870254516602
34.4286918640137
37.2898025512695
42.1536903381348
45.6823921203613
48.8296127319336
44.5379486083984
35.9546165466309
41.6768379211426
49.8786888122559
47.4944305419922
48.4481315612793
48.4481315612793
41.2953567504883
37.1944313049316
38.6249885559082
39.197208404541
41.962947845459
47.6851692199707
49.783317565918
49.2110939025879
44.3472061157227
39.197208404541
40.5323944091797
41.0092468261719
39.7694320678711
42.3444290161133
42.3444290161133
38.148136138916
32.9981384277344
30.5185089111328
27.657398223877
21.3629570007324
21.6490669250488
30.0416564941406
34.7148017883301
27.8481388092041
17.357400894165
15.7361059188843
19.6462898254395
17.2620315551758
12.302773475647
10.7768487930298
13.256477355957
12.3981437683105
5.43610954284668
2.8611102104187
4.48240613937378
9.82314491271973
14.2101802825928
9.72777462005615
5.81759071350098
2.5749990940094
2.09814739227295
7.34351634979248
3.33796191215515
-5.24536848068237
-2.47962880134583
5.7222204208374
7.43888664245605
9.72777462005615
17.5481433868408
15.5453653335571
5.34073925018311
3.05185079574585
9.06018257141113
11.1583299636841
13.9240694046021
17.357400894165
13.256477355957
5.53147983551025
-3.91018390655518
-7.0574049949646
-1.23981440067291
2.67036962509155
4.38703584671021
0.9537034034729
-4.00555419921875
-4.29166507720947
-5.7222204208374
-4.67314672470093
-2.5749990940094
-1.81203651428223
5.05462789535522
8.10647869110107
2.47962880134583
0.190740674734116
0
-3.05185079574585
-4.29166507720947
-2.09814739227295
-2.8611102104187
-8.20184898376465
-11.7305517196655
-9.63240432739258
-1.62129580974579
2.28888821601868
-4.00555419921875
-2.28888821601868
10.204626083374
13.8286991119385
15.35462474823
22.7935104370117
25.4638805389404
29.4694347381592
35.0962867736816
37.5759124755859
44.1564674377441
43.679615020752
31.9490642547607
24.0333251953125
20.2185115814209
15.5453653335571
8.86944198608398
-0.381481349468231
-9.82314491271973
-11.5398111343384
-7.24814605712891
-10.1092557907104
-10.9675893783569
-3.33796191215515
-1.23981440067291
5.1499981880188
16.30832862854
8.96481227874756
3.43333220481873
13.3518476486206
16.4990692138672
8.96481227874756
-1.71666610240936
-7.6296272277832
-7.91573810577393
-7.15277528762817
-11.0629596710205
-19.6462898254395
-24.0333251953125
-30.4231376647949
-41.2953567504883
-49.1157264709473
-53.4073905944824
-55.219425201416
-58.9388694763184
-60.3694267272949
-56.8407211303711
-49.8786888122559
-43.7749862670898
-46.5407257080078
-47.6851692199707
-42.1536903381348
-43.9657249450684
-48.2573928833008
-46.1592445373535
-45.6823921203613
-41.2953567504883
-32.7120246887207
-35.2870254516602
-39.5786895751953
-31.4722118377686
-23.5564746856689
-24.3194370269775
-28.3249912261963
-34.1425819396973
-35.0962867736816
-26.1314735412598
-18.0249938964844
-14.5916624069214
-13.8286991119385
-14.8777732849121
-14.0194396972656
-11.3490705490112
-11.8259220123291
-16.4990692138672
-21.3629570007324
-21.839807510376
-15.35462474823
-11.635181427002
-16.4036979675293
-14.3055505752563
-6.00833129882813
0.0953703373670578
5.62685012817383
2.5749990940094
-0.190740674734116
2.8611102104187
-0.286111027002335
-10.204626083374
-27.0851764678955
-52.2629470825195
-77.0592346191406
-110.152740478516
-167.088836669922
-223.166595458984
-234.229553222656
-214.106414794922
-203.329559326172
-198.847152709961
-167.374938964844
-92.4138565063477
-7.43888664245605
69.8110885620117
182.348083496094
346.861938476563
560.109985351563
830.961791992188
1122.89038085938
1378.38757324219
1598.12072753906
1800.68737792969
1941.07250976563
1980.26977539063
1921.33081054688
1740.12719726563
1378.19677734375
872.543212890625
387.489685058594
-43.8703575134277
-463.499847412109
-769.638671875
-926.904357910156
-1038.39221191406
-1124.79772949219
-1140.15246582031
-1103.33947753906
-1040.77648925781
-956.755249023438
-884.273803710938
-849.558959960938
-844.599731445313
-854.327514648438
-866.534912109375
-869.300659179688
-848.12841796875
-793.671997070313
-718.806274414063
-648.327575683594
-596.064636230469
-560.491516113281
-544.087768554688
-552.480407714844
-559.728515625
-547.807250976563
-527.302612304688
-489.154479980469
-427.545227050781
-364.123962402344
-315.198974609375
-291.070281982422
-286.969360351563
-286.015655517578
-284.585083007813
-279.339721679688
-261.123992919922
-225.074005126953
-180.440689086914
-142.769393920898
-115.779594421387
-89.0758972167969
-63.8981285095215
-54.5518341064453
-57.2222023010254
-59.5110931396484
-52.9305381774902
-31.4722118377686
-5.1499981880188
17.1666603088379
42.0583190917969
65.6147918701172
77.345344543457
86.0240478515625
91.9370040893555
90.7925643920898
96.7055282592773
109.389778137207
121.406440734863
133.518478393555
147.728652954102
167.374938964844
182.634201049805
186.639755249023
187.402725219727
183.969390869141
178.819381713867
183.301788330078
189.977722167969
193.887893676758
198.75178527832
205.1416015625
217.444381713867
226.50456237793
229.174926757813
230.891586303711
221.354553222656
212.771224975586
219.161041259766
218.684188842773
215.441604614258
225.455490112305
227.935119628906
229.174926757813
246.532333374023
255.115661621094
248.916580200195
243.766586303711
239.856399536133
235.660110473633
227.744369506836
214.487899780273
205.999938964844
208.956420898438
211.436050415039
214.583267211914
219.542526245117
210.959197998047
198.274932861328
192.552719116211
185.97216796875
178.056427001953
178.247161865234
183.874008178711
179.58235168457
171.952728271484
172.524948120117
174.527725219727
173.860122680664
164.51383972168
149.349945068359
144.772171020508
140.194396972656
131.515701293945
134.472183227539
139.431442260742
138.95458984375
139.145324707031
134.376815795898
124.839775085449
117.400886535645
106.433296203613
97.3731155395508
98.2314529418945
98.8036727905273
101.37866973877
106.051818847656
102.809226989746
92.6045989990234
76.6777496337891
65.3286819458008
57.3175735473633
38.148136138916
17.1666603088379
14.9731435775757
24.3194370269775
29.7555465698242
37.3851737976074
47.6851692199707
42.8212814331055
26.4175834655762
17.2620315551758
8.20184898376465
-7.24814605712891
-18.3111057281494
-14.3055505752563
-1.23981440067291
7.34351634979248
8.0111083984375
2.76573991775513
2.5749990940094
3.5287024974823
-8.67870044708252
-20.0277709960938
-18.9786968231201
-10.5861072540283
-1.14444410800934
0
0.9537034034729
4.00555419921875
-4.67314672470093
-20.3138828277588
-28.5157318115234
-31.7583236694336
-41.1046180725098
-47.9712791442871
-43.3935050964355
-38.3388748168945
-35.8592491149902
-42.630542755127
-53.6935005187988
-58.8434982299805
-72.0046081542969
-80.9694213867188
-78.4897918701172
-82.3999710083008
-80.9694213867188
-73.3397903442383
-76.5823822021484
-78.7759017944336
-68.6666412353516
-67.7129440307617
-82.6860809326172
-92.986083984375
-96.3240432739258
-94.9888610839844
-93.5583038330078
-98.5175628662109
-99.3758926391602
-98.0407104492188
-96.7055282592773
-87.4546051025391
-85.9286727905273
-94.416633605957
-95.751823425293
-93.5583038330078
-92.8907089233398
-90.6971969604492
-91.1740417480469
-92.5092315673828
-94.3212661743164
-94.3212661743164
-85.1657104492188
-80.5879364013672
-83.5444183349609
-80.6833038330078
-84.2120132446289
-91.6508941650391
-84.6888580322266
-79.8249740600586
-86.7870101928711
-82.6860809326172
-73.9120101928711
-78.6805267333984
-80.2064590454102
-78.012939453125
-86.2147903442383
-89.4573822021484
-84.1166381835938
-82.6860809326172
-80.3018264770508
-73.8166427612305
-67.6175689697266
-63.4212760925293
-63.3259048461914
-64.0888671875
-60.4647941589355
-57.8897972106934
-53.8842430114746
-45.9685020446777
-48.734245300293
-56.5546112060547
-52.0722045898438
-40.913875579834
-36.6222114562988
-37.099063873291
-36.431468963623
-33.1888771057129
-28.5157318115234
-29.7555465698242
-35.4777679443359
-37.099063873291
-38.5296173095703
-37.1944313049316
-24.9870281219482
-20.5046234130859
-28.8018417358398
-31.7583236694336
-30.4231376647949
-33.0935096740723
-38.148136138916
-34.3333206176758
-25.8453617095947
-28.8972129821777
-36.0499877929688
-32.2351760864258
-27.3712882995605
-33.3796195983887
-35.382396697998
-32.3305435180664
-40.2462844848633
-45.4916534423828
-38.6249885559082
-35.4777679443359
-34.810173034668
-25.8453617095947
-14.0194396972656
-10.1092557907104
-17.0712909698486
-23.2703628540039
-21.5536975860596
-21.4583263397217
-19.7416610717773
-12.302773475647
-4.48240613937378
-1.23981440067291
-3.5287024974823
-2.1935179233551
2.67036962509155
-1.81203651428223
-7.34351634979248
-6.6759238243103
-12.2074031829834
-15.1638841629028
-4.95925760269165
-1.33518481254578
-5.62685012817383
-5.24536848068237
-4.67314672470093
-2.47962880134583
1.81203651428223
1.9074068069458
3.43333220481873
12.3981437683105
15.0685138702393
9.72777462005615
10.7768487930298
10.3953666687012
6.48518323898315
8.67870044708252
11.9212923049927
11.8259220123291
7.91573810577393
8.77407169342041
19.9324016571045
29.1833248138428
28.9925842285156
30.5185089111328
35.6685066223145
32.1398048400879
28.9925842285156
32.04443359375
29.278694152832
29.3740653991699
33.4749908447266
28.9925842285156
24.9870281219482
26.7036952972412
23.5564746856689
14.8777732849121
9.82314491271973
13.6379585266113
20.2185115814209
21.2675857543945
28.0388793945313
32.7120246887207
29.6601753234863
39.864803314209
46.0638732910156
39.4833221435547
43.679615020752
46.5407257080078
40.0555419921875
39.864803314209
45.5870208740234
41.3907279968262
30.5185089111328
31.2814712524414
37.1944313049316
32.9981384277344
24.0333251953125
22.125919342041
26.0361022949219
29.1833248138428
30.5185089111328
27.943510055542
21.5536975860596
23.4611034393311
32.3305435180664
30.1370277404785
28.2296199798584
30.6138782501221
27.3712882995605
27.943510055542
30.5185089111328
31.1861019134521
34.2379531860352
39.197208404541
45.9685020446777
47.9712791442871
40.8185043334961
33.1888771057129
30.70924949646
31.7583236694336
29.9462871551514
26.226842880249
24.9870281219482
23.9379558563232
24.3194370269775
25.2731399536133
24.891658782959
21.839807510376
17.4527721405029
17.738883972168
16.30832862854
11.4444408416748
10.9675893783569
12.2074031829834
11.635181427002
11.9212923049927
15.4499950408936
17.738883972168
18.787956237793
16.7851791381836
14.3055505752563
12.588885307312
4.00555419921875
2.28888821601868
11.7305517196655
14.687032699585
12.9703664779663
11.5398111343384
12.9703664779663
16.9759197235107
17.5481433868408
17.1666603088379
22.125919342041
24.4148063659668
23.4611034393311
25.3685111999512
25.3685111999512
25.177770614624
25.2731399536133
25.8453617095947
20.2185115814209
4.57777643203735
0.572222054004669
3.147221326828
-3.71944332122803
-6.00833129882813
-3.147221326828
-7.53425693511963
-9.9185152053833
-1.43055510520935
5.91296100616455
5.7222204208374
9.63240432739258
18.787956237793
19.8370304107666
15.0685138702393
9.15555286407471
6.6759238243103
7.34351634979248
-3.24259161949158
-15.35462474823
-14.5916624069214
-14.5916624069214
-25.177770614624
-31.7583236694336
-25.4638805389404
-14.2101802825928
-5.53147983551025
3.05185079574585
15.7361059188843
20.1231422424316
16.5944385528564
20.0277709960938
22.8888816833496
21.839807510376
26.3222141265869
32.5212860107422
29.8509159088135
20.2185115814209
8.10647869110107
-1.52592539787292
-0.667592406272888
3.24259161949158
6.77129411697388
11.635181427002
10.204626083374
11.3490705490112
24.7009181976318
27.2759170532227
18.3111057281494
19.8370304107666
22.9842510223389
15.9268465042114
9.537034034729
4.29166507720947
-8.77407169342041
-17.8342533111572
-14.4009208679199
-16.8805503845215
-26.0361022949219
-26.1314735412598
-22.9842510223389
-25.5592517852783
-31.7583236694336
-40.7231369018555
-46.9222068786621
-46.8268356323242
-50.5462799072266
-59.4157218933105
-63.2305335998535
-60.9416465759277
-60.0833129882813
-64.2796096801758
-64.6610870361328
-55.0286865234375
-47.7805404663086
-51.1185035705566
-51.404613494873
-44.4425773620605
-39.197208404541
-35.1916542053223
-32.6166572570801
-31.2814712524414
-25.8453617095947
-19.5509204864502
-22.125919342041
-32.9027671813965
-32.4259147644043
-27.1805477142334
-32.9981384277344
-33.6657295227051
-26.8944358825684
-17.6435127258301
-8.10647869110107
-10.0138854980469
-13.256477355957
-6.6759238243103
-4.10092449188232
-13.7333288192749
-15.2592544555664
-5.24536848068237
-4.1962947845459
-3.24259161949158
2.47962880134583
0.190740674734116
-4.86388731002808
-4.48240613937378
3.05185079574585
13.5425882339478
14.4962921142578
-2.1935179233551
-23.0796222686768
-37.7666549682617
-57.4129447937012
-88.2175674438477
-134.56755065918
-194.746231079102
-238.425842285156
-241.096221923828
-226.218444824219
-217.730484008789
-198.370300292969
-148.396255493164
-73.5305328369141
5.62685012817383
99.2805252075195
232.131408691406
404.847106933594
635.643310546875
925.855285644531
1209.58203125
1444.19311523438
1662.400390625
1854.953125
1956.80859375
1975.78735351563
1896.72534179688
1649.43005371094
1234.759765625
735.496032714844
265.320281982422
-161.557357788086
-555.818359375
-824.095092773438
-965.910827636719
-1067.09875488281
-1123.6533203125
-1124.41625976563
-1090.55981445313
-1022.08392333984
-934.820068359375
-870.635803222656
-843.836791992188
-840.498779296875
-850.417297363281
-862.910827636719
-859.859008789063
-831.34326171875
-780.12939453125
-714.323852539063
-650.044250488281
-601.023864746094
-569.647033691406
-562.494262695313
-573.175720214844
-575.559997558594
-560.0146484375
-526.921142578125
-477.042449951172
-418.9619140625
-355.540618896484
-306.710998535156
-284.680450439453
-270.184173583984
-265.892517089844
-280.388793945313
-283.726776123047
-255.306396484375
-217.348999023438
-181.775863647461
-134.56755065918
-91.269416809082
-68.5712738037109
-54.9333152770996
-50.4509086608887
-56.7453536987305
-59.1296119689941
-47.5897979736328
-26.8944358825684
-1.52592539787292
30.4231376647949
60.5601654052734
72.7675704956055
73.3397903442383
75.8194198608398
80.3971939086914
88.9805297851563
98.5175628662109
103.953666687012
113.681442260742
127.891624450684
142.197174072266
161.557357788086
179.773086547852
186.639755249023
186.925872802734
183.492538452148
186.735122680664
199.896224975586
206.381408691406
211.054565429688
218.111968994141
219.447158813477
225.264739990234
233.848068237305
235.660110473633
236.709182739258
232.417510986328
228.793441772461
233.371215820313
231.463821411133
222.785110473633
220.877700805664
225.169372558594
225.646224975586
228.507339477539
236.804550170898
234.611038208008
229.651779174805
228.60270690918
222.975860595703
219.637893676758
218.684188842773
218.588821411133
221.068450927734
220.400848388672
213.72492980957
209.337890625
211.340667724609
208.861038208008
198.465682983398
185.590682983398
179.296234130859
178.151794433594
175.386047363281
175.099945068359
181.68049621582
189.024017333984
189.405502319336
178.914764404297
165.372161865234
153.546249389648
140.003662109375
131.801803588867
135.044403076172
138.382369995117
132.374038696289
131.801803588867
141.624954223633
138.000885009766
119.308296203613
106.433296203613
97.5638580322266
85.5471954345703
79.2527542114258
80.2064590454102
83.0675659179688
82.2092361450195
81.827751159668
91.4601593017578
91.9370040893555
73.2444229125977
59.7972030639648
57.1268348693848
47.4944305419922
44.1564674377441
51.6907234191895
50.2601699829102
53.5027618408203
60.8462753295898
49.783317565918
31.3768424987793
13.4472179412842
2.67036962509155
2.76573991775513
0.762962698936462
6.00833129882813
18.2157344818115
20.8861045837402
18.1203651428223
9.82314491271973
-4.95925760269165
-14.687032699585
-22.125919342041
-31.9490642547607
-40.4370231628418
-41.8675804138184
-35.0009155273438
-30.4231376647949
-28.2296199798584
-26.6083240509033
-35.0962867736816
-49.4018363952637
-59.9879455566406
-60.0833129882813
-54.4564628601074
-54.9333152770996
-55.4101676940918
-55.1240577697754
-55.0286865234375
-50.1647987365723
-57.9851684570313
-78.012939453125
-82.3046035766602
-78.012939453125
-80.0157165527344
-77.4407196044922
-74.3888626098633
-77.4407196044922
-81.16015625
-92.2231216430664
-103.381446838379
-100.711082458496
-95.1795959472656
-96.800895690918
-104.812004089355
-112.155517578125
-112.155517578125
-102.046264648438
-92.7953414916992
-93.0814514160156
-95.9425582885742
-103.76293182373
-113.872184753418
-113.013854980469
-104.812004089355
-101.37866973877
-96.5147857666016
-82.3999710083008
-76.3916397094727
-78.8712692260742
-75.0564575195313
-74.1027526855469
-71.2416458129883
-67.3314590454102
-77.1546020507813
-79.5388641357422
-74.4842376708984
-78.394416809082
-76.5823822021484
-71.7184982299805
-74.2934951782227
-74.0073852539063
-70.0971984863281
-68.1897964477539
-69.2388687133789
-73.9120101928711
-79.6342315673828
-82.1138610839844
-75.6286773681641
-70.6694183349609
-75.247200012207
-70.2879409790039
-58.3666496276855
-59.9879455566406
-63.9934997558594
-57.9851684570313
-55.5055389404297
-57.5083160400391
-55.6009063720703
-54.6472053527832
-53.6935005187988
-50.832389831543
-44.9194297790527
-35.382396697998
-27.2759170532227
-26.4175834655762
-30.995361328125
-29.1833248138428
-25.5592517852783
-28.4203605651855
-31.4722118377686
-32.9981384277344
-33.5703582763672
-33.5703582763672
-31.1861019134521
-27.8481388092041
-28.8972129821777
-35.9546165466309
-36.7175827026367
-28.8972129821777
-26.9898052215576
-26.7036952972412
-28.2296199798584
-34.1425819396973
-26.7036952972412
-16.022216796875
-20.1231422424316
-26.6083240509033
-27.3712882995605
-21.9351787567139
-15.1638841629028
-17.2620315551758
-19.360179901123
-11.7305517196655
-1.14444410800934
2.5749990940094
-4.00555419921875
-11.1583299636841
-7.6296272277832
-6.58055353164673
-13.1611070632935
-15.8314762115479
-16.6898097991943
-12.0166625976563
-3.5287024974823
0.9537034034729
2.09814739227295
-2.47962880134583
-1.9074068069458
3.147221326828
1.04907369613647
-0.381481349468231
1.81203651428223
0.858333051204681
2.67036962509155
11.8259220123291
16.30832862854
12.8749961853027
9.9185152053833
10.0138854980469
10.7768487930298
5.91296100616455
4.00555419921875
13.1611070632935
19.1694374084473
16.2129573822021
13.256477355957
18.3111057281494
24.5101776123047
20.5046234130859
13.9240694046021
9.25092315673828
6.48518323898315
6.77129411697388
12.4935140609741
21.0768451690674
25.0823993682861
22.6027698516846
13.256477355957
6.6759238243103
10.204626083374
11.4444408416748
8.48795986175537
12.302773475647
20.1231422424316
24.6055469512939
24.3194370269775
24.3194370269775
24.5101776123047
19.6462898254395
14.1148099899292
14.7824029922485
21.1722145080566
27.657398223877
34.3333206176758
38.5296173095703
38.8157272338867
39.0064697265625
41.2953567504883
44.8240585327148
48.4481315612793
47.2083168029785
45.8731346130371
48.734245300293
41.7722091674805
35.7638778686523
39.197208404541
36.9083213806152
34.9055442810059
36.7175827026367
33.9518394470215
31.1861019134521
32.6166572570801
32.04443359375
31.9490642547607
36.6222114562988
37.6712837219238
33.761100769043
35.9546165466309
38.9110984802246
35.0962867736816
31.7583236694336
29.9462871551514
28.1342506408691
28.8018417358398
31.3768424987793
36.5268402099609
41.3907279968262
42.4398002624512
38.2435073852539
31.4722118377686
24.7009181976318
12.588885307312
5.53147983551025
12.1120328903198
14.2101802825928
11.7305517196655
16.7851791381836
26.7036952972412
34.7148017883301
38.2435073852539
33.1888771057129
23.0796222686768
23.0796222686768
23.2703628540039
15.9268465042114
12.6842555999756
6.6759238243103
5.7222204208374
16.1175880432129
14.3055505752563
8.20184898376465
15.5453653335571
19.8370304107666
15.4499950408936
14.7824029922485
11.635181427002
4.95925760269165
2.95648050308228
0
-4.00555419921875
-8.77407169342041
-12.1120328903198
-5.53147983551025
1.71666610240936
5.34073925018311
6.38981294631958
2.1935179233551
-1.14444410800934
-3.05185079574585
-6.1037015914917
-4.95925760269165
-3.05185079574585
0.9537034034729
9.25092315673828
13.9240694046021
16.5944385528564
25.0823993682861
32.04443359375
29.4694347381592
30.0416564941406
29.4694347381592
20.3138828277588
13.256477355957
6.38981294631958
-1.23981440067291
-5.81759071350098
-9.63240432739258
-13.7333288192749
-11.1583299636841
-2.76573991775513
-3.24259161949158
-4.00555419921875
3.43333220481873
5.62685012817383
8.20184898376465
11.9212923049927
6.6759238243103
5.34073925018311
5.91296100616455
-0.190740674734116
-2.09814739227295
0
-2.47962880134583
-1.62129580974579
-0.858333051204681
-12.1120328903198
-16.8805503845215
-14.3055505752563
-24.1286964416504
-30.6138782501221
-32.3305435180664
-40.7231369018555
-41.1046180725098
-38.8157272338867
-46.7314682006836
-57.3175735473633
-58.0805358886719
-53.5027618408203
-55.6962776184082
-55.6009063720703
-46.2546157836914
-39.1018409729004
-37.1944313049316
-41.7722091674805
-48.4481315612793
-49.4972076416016
-44.6333198547363
-35.2870254516602
-33.6657295227051
-37.7666549682617
-33.8564720153809
-27.7527694702148
-22.9842510223389
-21.0768451690674
-25.177770614624
-27.7527694702148
-25.3685111999512
-22.3166599273682
-23.3657341003418
-24.0333251953125
-21.6490669250488
-18.3111057281494
-11.4444408416748
-9.9185152053833
-13.3518476486206
-6.6759238243103
-6.1037015914917
-19.5509204864502
-22.0305480957031
-24.1286964416504
-31.2814712524414
-21.5536975860596
-6.00833129882813
-2.95648050308228
-3.71944332122803
-5.62685012817383
-20.5046234130859
-41.5814666748047
-69.3342361450195
-105.956443786621
-141.529586791992
-183.301788330078
-210.482345581055
-207.907333374023
-196.081420898438
-178.819381713867
-147.44255065918
-86.3101577758789
-2.00277709960938
78.012939453125
151.924957275391
245.197143554688
404.465606689453
644.035888671875
922.803405761719
1191.55700683594
1418.53845214844
1608.22998046875
1756.34020996094
1832.44567871094
1821.19201660156
1692.44201660156
1385.15881347656
930.528381347656
478.091522216797
62.2768325805664
-328.360076904297
-612.754455566406
-793.576599121094
-918.225646972656
-993.66357421875
-1019.50891113281
-983.840454101563
-914.983032226563
-859.477478027344
-820.375671386719
-794.434936523438
-791.573791503906
-815.034912109375
-835.25341796875
-820.56640625
-784.230285644531
-732.158081054688
-658.722961425781
-584.334045410156
-525.109069824219
-489.440582275391
-482.669281005859
-500.598907470703
-521.485046386719
-520.340576171875
-498.882232666016
-462.450775146484
-408.471160888672
-341.998046875
-281.533233642578
-244.338806152344
-232.036041259766
-242.431396484375
-262.554534912109
-270.565643310547
-258.358245849609
-228.221221923828
-190.359191894531
-145.725875854492
-96.9916381835938
-63.3259048461914
-49.5925750732422
-51.0231323242188
-60.7509078979492
-61.8953514099121
-54.3610954284668
-39.6740608215332
-10.9675893783569
19.9324016571045
46.9222068786621
75.3425674438477
91.0786743164063
90.3157119750977
84.1166381835938
81.827751159668
85.8333053588867
89.4573822021484
98.2314529418945
114.062927246094
130.085144042969
149.922180175781
165.181427001953
170.9990234375
173.192535400391
168.71012878418
164.132354736328
161.080505371094
154.309204101563
159.268463134766
175.672164916992
189.500869750977
202.185119628906
210.673080444336
213.057342529297
217.158264160156
221.640670776367
214.392517089844
205.618453979492
207.525863647461
206.762893676758
206.381408691406
206.762893676758
201.517532348633
207.621231079102
215.250854492188
210.959197998047
214.106414794922
212.961975097656
196.65364074707
186.162902832031
182.157348632813
180.536056518555
185.686050415039
193.983276367188
199.419387817383
203.901779174805
212.866592407227
215.155487060547
205.1416015625
191.026794433594
174.623092651367
156.598098754883
148.396255493164
151.73420715332
156.02587890625
164.036987304688
168.996246337891
159.840682983398
149.731430053711
139.526809692383
123.504592895508
110.343482971191
103.095336914063
103.76293182373
112.537002563477
121.024963378906
121.406440734863
113.109222412109
100.043487548828
78.9666442871094
53.2166481018066
39.2925796508789
38.148136138916
45.5870208740234
55.4101676940918
58.2712783813477
59.0342407226563
62.5629425048828
62.1814613342285
58.1759071350098
48.6388740539551
28.5157318115234
16.30832862854
23.4611034393311
29.8509159088135
31.9490642547607
35.6685066223145
35.6685066223145
30.4231376647949
18.2157344818115
-0.47685170173645
-17.738883972168
-24.1286964416504
-18.0249938964844
-9.15555286407471
-0.190740674734116
12.3981437683105
18.787956237793
9.63240432739258
-3.8148136138916
-15.5453653335571
-29.9462871551514
-39.0064697265625
-36.8129501342773
-36.9083213806152
-35.7638778686523
-28.4203605651855
-28.5157318115234
-25.177770614624
-23.0796222686768
-40.1509132385254
-53.7888717651367
-59.8925743103027
-63.6120147705078
-56.1731300354004
-47.5897979736328
-37.1944313049316
-30.2323970794678
-34.810173034668
-35.4777679443359
-36.5268402099609
-44.4425773620605
-44.1564674377441
-46.4453544616699
-57.1268348693848
-57.6990547180176
-55.6962776184082
-51.2138710021973
-45.3962821960449
-53.121280670166
-59.7972030639648
-62.7536849975586
-68.0944213867188
-74.0073852539063
-85.6425628662109
-85.1657104492188
-70.0018310546875
-61.6092376708984
-58.8434982299805
-57.3175735473633
-61.7999801635742
-67.2360916137695
-72.1953506469727
-79.729606628418
