Value(μV)
7.5910855371009
6.73422975521369
6.85732812789124
8.00083781209298
9.58565696085446
11.1626520809266
12.7818535808993
14.6155054722223
16.4502476476099
17.7980748233348
18.5143538069037
19.0999507952421
20.2403758934545
22.1082762364988
24.2598129709418
26.2014869021536
27.8772233152348
29.4879808567584
30.9655256182501
31.8705195519499
31.89404057063
31.3096643541012
30.7575930428594
30.5979207593194
30.6207272163285
30.4317847802413
29.9744891624909
29.5262652119753
29.2514779901277
28.9862357700914
28.5812087124441
28.3245811430552
28.8107471373284
30.3397646582103
32.5694593443931
34.836113197039
36.709868132351
38.0885855239056
38.8038707358282
38.4022425586936
36.5259573865951
33.4584927269398
30.0885957302347
27.2440598399613
25.1541986486948
23.6386036648241
22.6814288861615
22.5730099130496
23.4248503339324
24.7567853639473
25.8017012882725
26.2139552243292
26.2816732063778
26.3520642806831
26.2136411323276
25.2608152581403
23.2475554555703
20.6474863586832
18.1459540958889
15.9515243769357
13.8783390460806
12.1163257069424
11.615962303803
13.4227665765059
17.6464940477345
23.2953887824196
29.1809614575441
34.777830194477
40.0169844354173
44.4084232906378
46.8004948856552
46.2727302507584
43.1387891478366
38.7813259197281
34.4318914342704
30.2997362309982
25.9952167427015
21.5672471450294
17.7554532931861
15.145440350191
13.3785247625421
11.5061998533863
9.08841586185845
6.66278724260228
5.01703116983937
4.21754474616236
3.60814828661599
2.68984306085178
1.66270877808734
0.927369282442598
0.280062211037034
-1.04424179830171
-3.48329036506414
-6.59014929166582
-9.5802359648694
-12.2925454687613
-15.3088836511133
-19.0883125321664
-23.2967831139081
-27.2596461837379
-30.9403684368216
-35.0869731855296
-40.254944584078
-45.9389795463386
-50.9841321252292
-54.8132260944973
-57.9226867832127
-61.0223950189441
-63.9579072868947
-65.8422415358673
-66.2289531768421
-65.7609474931299
-65.3933163299479
-65.1740381000018
-64.1891122094422
-61.7795836606909
-58.4627541272447
-55.3594511935736
-52.8875054350702
-50.4479276408692
-47.4997607187154
-44.5370982038078
-42.5760545620597
-41.7639720684089
-40.9837676055111
-39.0918860630167
-36.2514119412838
-33.6037570959946
-31.6615360732446
-29.5444079716112
-26.1589726002949
-21.8622713513176
-18.3878779516635
-16.9691466898635
-16.9703120527482
-16.8155282457965
-16.1272144739478
-16.3749519794284
-19.1012182851121
-23.7713692024085
-27.7763986978662
-28.5416785900348
-25.3214188449586
-18.947814489095
-10.4408010683787
-0.524522678895714
9.48259691422561
16.8489780035227
17.8429388978413
8.81928922772877
-13.0316766807923
-48.9535602982695
-97.0062230952799
-150.455868970413
-198.882825344912
-232.966875312378
-249.42164478073
-250.900560526754
-240.352853738444
-215.87340350268
-172.295472004535
-107.899511806749
-27.3479930246325
64.9259583528454
174.977248330556
320.46542097985
517.59108229219
764.497606184351
1037.7659803222
1306.33619577374
1548.63606104666
1754.59977054924
1910.60318157895
1985.2279026059
1935.13735595968
1730.57849657516
1379.48841581122
929.294746452081
445.647463606757
-13.6470243847708
-411.448148775975
-728.805609311264
-958.06971759043
-1100.39965272238
-1166.03209197609
-1171.36124515443
-1132.82194763414
-1063.92739372586
-978.842850983577
-896.876194412701
-839.28693720163
-818.011348360422
-826.393650883311
-842.221546745015
-842.138858500851
-815.735065884955
-768.571702241224
-714.280461253203
-664.699698695798
-625.647964306294
-598.167207721299
-580.493083428251
-568.365547066601
-555.504718868791
-536.120082659003
-507.886215679343
-472.370960805201
-432.749922037336
-391.878422236324
-352.846749266911
-320.17349271175
-298.296022172291
-287.479574066246
-281.527125557343
-270.968125312817
-249.809303053988
-219.714720934957
-187.714801699368
-159.956041186035
-137.579610565241
-117.925744255345
-98.5718543000004
-79.5469806002081
-62.1203230015288
-46.5994828870729
-31.9908117055263
-17.456227823785
-3.31038430342284
9.68265346989634
21.5416428692396
33.1006705679023
44.8838695947746
56.4114804195995
66.8556058511922
76.1340496369466
85.0145361039702
94.1771136137789
103.529222570048
112.634189358675
121.579677700536
131.052802811014
141.489357662561
152.404893477554
162.764407024537
171.896376434646
179.812176592836
186.652889562524
192.147490620443
195.885397954925
198.040141922792
199.520958247227
201.256860519936
203.456355781643
205.726057292485
207.827996554479
210.062538594782
212.805042466551
215.863224310343
218.556262654974
220.452802882276
221.821653090254
223.205111431863
224.652173083236
225.582056294373
225.437499876003
224.291995738851
222.669370033189
220.864265609254
218.670286824445
215.849574894735
212.688547223229
209.869904322931
207.78200608622
206.115920368788
204.235576471164
201.840339342105
199.116939243158
196.278849768653
193.174395313233
189.502422612326
185.330925515468
181.194653372241
177.593496423146
174.495545369883
171.446183735687
168.115286350476
164.586719773484
161.075596696066
157.520678446578
153.635932124668
149.356012575345
145.052483048004
141.177448784502
137.743921355464
134.28737258808
130.356990675944
125.929780105368
121.271162623937
116.499388746743
111.482547095025
106.223074547946
101.194532799668
97.1068135304741
94.2940819296518
92.4228899299783
90.8491497350897
89.1729236633943
87.3375380844426
85.2403215709481
82.4584743288588
78.5270331370553
73.4584897969815
67.8362322841629
62.3162199490333
57.1004569630044
51.9786102055515
46.8324716032396
41.9478693533166
37.758194980379
34.374684851189
31.5094083184691
28.8707790408223
26.5010117856269
24.6080676943281
23.0992831154829
21.4096561228445
18.8574296422767
15.12558895358
10.352148252676
4.82166884538513
-1.28925171650384
-7.81366775360771
-14.3631375174891
-20.3705514809299
-25.4409276378564
-29.6215617835759
-33.2840315318526
-36.7747541433328
-40.2303336902089
-43.684034069433
-47.2015983192693
-50.7983712724601
-54.259339032291
-57.1786738141789
-59.2702667414408
-60.6255288838592
-61.623492361487
-62.6118191872
-63.7385473829049
-65.0815940870265
-66.8108853075931
-69.0835452727453
-71.7686716519685
-74.3903112656704
-76.4492656652334
-77.8061583273764
-78.701727825528
-79.4148478267632
-79.9846861758586
-80.3085308415597
-80.4238194638464
-80.5484401165871
-80.7944410251356
-80.9377967674172
-80.5957485485102
-79.6526978699545
-78.4380701631476
-77.4401704683736
-76.8935610618258
-76.7053164330928
-76.7345236892663
-76.9984170975119
-77.5147571346951
-78.0142070088554
-77.9712049946381
-77.0120360982184
-75.2605247473359
-73.2224070626859
-71.348194605368
-69.7725192341919
-68.4634174704655
-67.4862487388312
-66.978984672231
-66.8703341220361
-66.760332127042
-66.2029713869525
-65.1113758406098
-63.8253683018176
-62.7780850144136
-62.163807091687
-61.9546679781352
-62.1351154691653
-62.7611438468223
-63.7417057456117
-64.6740255826495
-65.0415124604809
-64.6153371176591
-63.6061525692624
-62.3952617452988
-61.1805382032553
-59.9460186926266
-58.7133928068729
-57.6587648411021
-56.8815117648605
-56.1261371115022
-54.886527979561
-52.8619523522577
-50.2650878971337
-47.6243502853494
-45.3192411700498
-43.3886068764655
-41.7776267689799
-40.6255799284816
-40.1698413851529
-40.3790927271281
-40.8221602921024
-41.0054027349382
-40.815538463385
-40.5537365822
-40.5380526802963
-40.7595383052634
-40.9663004040095
-40.9881295403955
-40.8391218094024
-40.4853447662621
-39.6500895031919
-37.9947218866917
-35.5043585345052
-32.604680953546
-29.8482301544441
-27.5317296179437
-25.6600991169357
-24.2008640902325
-23.2105476347484
-22.6405229431054
-22.1260431733761
-21.1413981075451
-19.4352745199615
-17.2580949747482
-15.1071042205931
-13.2897619173494
-11.8024187785916
-10.5880481186155
-9.7477951291354
-9.38091474866852
-9.27609981128469
-8.92999919308925
-7.96700730951624
-6.49434009631249
-4.96775035930608
-3.73289467384271
-2.78785364784196
-1.99328765387981
-1.36554681970394
-1.00945086989441
-0.78154248734364
-0.195712128919683
1.19757812543862
3.36231419962392
5.80668455026692
8.071551961147
10.0954827443347
12.0517206282819
13.9444484504015
15.5508982514041
16.8021589950775
18.0591623539424
19.8223910582448
22.1433846616209
24.4423283587204
25.9852049746566
26.4834094752775
26.1514461031103
25.2567805903477
23.8204269522173
21.8747711173558
19.8944871789976
18.7312696451729
18.9949057765514
20.5525762127267
22.7185070372561
24.8905294780518
26.889398672917
28.6906735004703
30.0262147431436
30.4568891407079
29.8454564591294
28.5910414961465
27.2715747776387
26.1004930128519
24.8453364920943
23.2721022814441
21.5361091043983
20.0578838572657
19.1107770585061
18.6858983666643
18.7684750513573
19.5728553480336
21.3436457349431
23.9476370592184
26.8063055184636
29.2996385908986
31.1676833326081
32.4601483920737
33.1996249685636
33.2880024898118
32.7967420078122
32.1770987951918
31.9657365586678
32.2404244018083
32.4925424812057
32.1248203121735
31.0062376619866
29.4422813018025
27.6765393700204
25.6472608038063
23.360109032279
21.3594316543071
20.5590813764561
21.4789142221637
23.7388565073355
26.419537976509
28.8682963663597
31.0112789492296
32.8946135798144
34.1709877515217
34.2871855847572
33.163352604345
31.4514332065381
29.9564756413075
28.8752885001356
27.7621049568293
26.2260953986926
24.4625664672344
22.9793994453654
21.9480692995404
21.0790039246227
20.1831767480146
19.6251109081863
19.9834495282107
21.2897464706689
22.8234419398471
23.7725636141905
23.9725366853987
23.8429415704701
23.6881107111317
23.346922404179
22.6846890980141
22.2504367251753
23.1244067677983
25.9866564594445
30.4683918132792
35.5535962572612
40.5244792281779
45.3074591895055
49.884680404022
53.6430574034394
55.5901038178539
55.2192503102744
52.9510431788899
49.6083903633866
45.5983691242117
40.8036172330911
35.2401729677609
29.5692973737746
24.7921762274449
21.533484629396
19.8001784140764
19.4042086459868
20.3549820798291
22.6472125138999
25.7819490787418
28.7796797257988
30.7878703911868
31.5606091895243
31.2458778850187
29.8537748429419
27.1982172774026
23.3975376067466
19.1479605754417
15.1993888722951
11.5578211488361
7.43968797882017
2.13994831432962
-4.19686741029374
-10.8334970426176
-17.350375085457
-23.9820328234003
-30.9087377104916
-37.4573347731849
-42.3759603971814
-44.9955379197042
-45.8945156860206
-46.2301299622793
-46.5420474074141
-46.4713437894851
-45.6365814484487
-44.421560020139
-43.5929586751328
-43.2613403860627
-42.6161616358001
-40.8726707489865
-38.2575726820011
-35.7676802614477
-34.0138537841476
-32.6435330950386
-31.0491917961262
-29.3475310953625
-28.2532423784708
-27.9812773201913
-27.6891188675466
-26.3321241145385
-23.9302838965691
-21.6127021579179
-20.3199575235943
-19.7713198422642
-18.9717752201014
-17.5456747997145
-16.1342892689921
-15.3625344853566
-14.7889959697599
-13.2790227481081
-10.3659075868237
-6.89551657134291
-4.24110385044139
-3.21217399577483
-3.94835583303052
-6.46912674891223
-10.5925567407421
-15.1409094199506
-17.9475219199063
-17.5054071053522
-14.643342233555
-11.8906435122494
-10.9340147361715
-11.604110000213
-14.588176816502
-25.0062644124309
-51.2689321687255
-97.8605092123059
-158.192100787973
-215.555493513406
-252.917267827952
-263.017369981012
-249.529459790552
-219.310232033737
-174.789850111135
-114.026601036157
-35.8817074924202
58.4698305365739
170.982873006257
311.817899777712
494.679493643528
723.540390173449
983.281351863623
1244.89569597319
1481.17433622954
1677.06990766535
1823.99149390496
1904.69411338345
1886.76047140945
1735.47225361102
1438.14054623612
1020.4001622699
541.243112901877
70.4547569020075
-336.223606261105
-650.637785988624
-871.027896569626
-1011.2834249244
-1088.45566192112
-1114.83387779199
-1097.73030106817
-1045.57287517377
-974.107116448271
-905.550781940251
-859.281412222418
-841.144710714722
-841.115922816476
-841.926375903577
-830.998981052873
-805.481274803719
-768.156652389775
-721.570810278278
-668.052289023929
-614.433246757686
-573.111853891456
-554.637630318143
-557.510804756775
-566.02605385734
-560.16121679459
-529.639508432427
-480.05698013825
-426.655533735397
-382.537795102857
-351.590231376061
-330.012087129718
-312.131882296864
-294.303046970105
-275.025610482817
-253.696294456605
-230.26776217034
-205.505171658925
-180.607331208894
-156.415748450416
-133.434032052771
-112.669548618197
-95.7411800584869
-83.3822435559085
-73.8245280154941
-63.3561961690675
-49.1156651667846
-31.4272022589879
-13.189924231439
3.02071575592281
17.0490245604994
30.474803995247
44.3854201223428
58.3178961816838
71.2984627312896
83.3077907808097
95.2559027906509
107.666620622135
119.884296332628
130.781003580163
139.954379487892
147.884552104258
154.995022883092
160.980668219296
165.305868851606
168.167124005941
170.620742121722
173.707686363975
177.693694071974
182.306176782319
187.49335131529
193.597223066099
200.713587584796
208.161773405624
214.852177192338
220.132994195253
224.059148590266
226.804626522641
228.07681127358
227.364710583133
224.706639208964
220.933568991429
217.007782930622
213.257235944118
209.444358514209
205.520534918357
202.031803458624
199.614312965159
198.224158807295
197.108768885733
195.580733210344
193.637357588928
191.692416285786
189.838042532383
187.631739143329
184.679551150527
181.232642688481
178.004556490753
175.43879395137
173.360584646693
171.42477143866
169.727794680964
168.754918280375
168.725195459299
169.195372406432
169.447376684835
169.163595457219
168.527971502269
167.651832996938
166.112586949312
163.251670386193
158.890548193599
153.568846260991
147.999877840049
142.412783431401
136.565842640557
130.345518075293
124.136502930138
118.476750445374
113.447959453493
108.589915985022
103.456488222824
98.1303106215163
93.0917621777085
88.6574119436919
84.7026766611054
80.9609454749827
77.4394378042623
74.38342488675
71.8522456956523
69.4875821891153
66.7935718813478
63.5808583496718
60.0316571969179
56.3502928891574
52.4862165793786
48.2792370132689
43.7917868835474
39.3476397730762
35.2030393869181
31.278493173639
27.307694666915
23.2144038502528
19.2316165327927
15.6153419525011
12.3272401998625
9.08519072798823
5.69086199020708
2.1921166547813
-1.31922188431876
-4.97227121203564
-9.05261714909306
-13.6555791932572
-18.4897460007758
-23.0856210438583
-27.1567966607573
-30.6870407403928
-33.6949528013659
-36.0507603047607
-37.6279438189784
-38.592937573389
-39.4134528614262
-40.5088838594615
-41.934901623644
-43.4716284505097
-44.9869988437624
-46.6114094025387
-48.5197771871359
-50.6357037792274
-52.6750945337605
-54.4962087180741
-56.3031844064736
-58.4137641094674
-60.853252108864
-63.2731335262858
-65.3032594842664
-66.9147432694236
-68.364764948159
-69.8197105122216
-71.1463474545273
-72.1306743262262
-72.8290823219829
-73.5817361652208
-74.6441638726229
-75.8830429895768
-76.9214622429369
-77.5820667685719
-78.1238394644375
-79.0207319741349
-80.5624507463105
-82.7227605999865
-85.3697976236394
-88.4726598186465
-92.001642737814
-95.6413292273179
-98.6968065002625
-100.363740765732
-100.128943933471
-97.9522300972929
-94.1493769681904
-89.1905571169745
-83.6171858706728
-78.0471690753166
-73.1154331578703
-69.3152544806342
-66.8671027732208
-65.7229901296603
-65.6641549803551
-66.3846751748881
-67.5399709936957
-68.818008060027
-70.0314491045671
-71.1309473173815
-72.0860636123188
-72.7487061147704
-72.874700057654
-72.3102725802908
-71.1402660850791
-69.62219637006
-67.9857103986194
-66.3426776562212
-64.8033105798731
-63.6075083425721
-63.0346557824588
-63.1346080132201
-63.5851224508777
-63.8777550874621
-63.6665890197993
-62.9281186021956
-61.809824075564
-60.4067640361278
-58.7509233295663
-56.9813720374694
-55.4018469162725
-54.2712711519002
-53.5372049673809
-52.8375072120246
-51.7984043852113
-50.3126659505271
-48.5198566192161
-46.5768972877854
-44.5340647043338
-42.4421296080641
-40.4775252348338
-38.8407131220145
-37.5035113566553
-36.1262093760312
-34.2954613974744
-31.8508140825384
-28.9599735176253
-25.9105110623421
-22.9130251948709
-20.1402676587938
-17.8659137328729
-16.4078147732734
-15.8488460790649
-15.8534423083295
-15.8461495804776
-15.4046827662069
-14.4627427439104
-13.1528029163353
-11.5522720810869
-9.67423028202166
-7.6728475992376
-5.9103831430879
-4.698632873562
-3.980035899343
-3.35326536322277
-2.46128060025057
-1.31821522811469
-0.220252905636696
0.610489840233562
1.19566086976016
1.60893912223816
1.74184228238733
1.40631226663961
0.691920615098828
0.111581130297537
0.280391436722583
1.43491440937742
3.30829080064141
5.46131081842821
7.64869668694723
9.81880446534678
11.8549271128441
13.4966830506745
14.6083278785587
15.4549146317422
16.5799917012267
18.3512492845753
20.652468276224
23.0283827673122
25.0602877096348
26.5354354414609
27.3153275073395
27.2239420511243
26.211971310644
24.6131936002389
23.1068312824504
22.3285352219811
22.5106178371402
23.5023330193854
25.06030175855
27.0103445798736
29.1306131262252
31.0345734889164
32.3448125017751
33.0194129667799
33.4122246154257
33.9290899025064
34.6442327658239
35.3039816255985
35.6686775552535
35.7413596550244
35.6274219664761
35.2940941168599
34.6380224160097
33.8212289770288
33.4016542556598
33.9785263532875
35.6823305772265
38.0717908403997
40.5265117429122
42.6397022375169
44.1791036526704
44.8084872862699
44.106516935153
42.0002741174234
39.0901922478981
36.3622335027524
34.5017243555154
33.5368292724298
33.1593566626848
33.2513611415898
33.9343678222576
35.1336781909956
36.3326934869902
36.9684979704532
37.0528348451948
37.2246249667878
38.0877282410305
39.5708581777407
41.0374340597869
41.9634981792381
42.3363150651377
42.3401803782372
41.8384406564343
40.407390333021
37.9182074420844
34.9009563044596
32.1654578103896
30.0914494258492
28.4190291582774
26.7344484594325
24.9937742568191
23.4581741503787
22.2471893869104
21.2145702371383
20.3524256505981
20.1314719313195
21.203190055733
23.736983756391
27.2058659710207
30.9029277385058
34.5373789407837
38.1709294427986
41.659784330235
44.4626799162694
46.1899073613306
47.2026665629966
48.3678386419937
50.0972792024082
51.7753088927793
52.2958300268267
51.1001061655781
48.5036073263804
45.0205655950847
40.677052798546
35.2869259362558
29.3477784656293
24.2999404176771
21.6062860070008
21.5879667085896
23.3105940278184
25.5777840310761
27.8097806916672
29.863105208663
31.2753306655996
31.1306088108998
28.8406859081801
24.8440190126062
20.2581275766026
15.8357354042719
11.4464612317913
6.60571621032337
1.24773562093482
-4.26706839448499
-9.78830441872113
-15.6328640298108
-22.0012640271208
-28.3329925680538
-33.568977869564
-37.1070264689985
-39.2643666310429
-40.6612648719034
-41.3625550844762
-40.9420620505607
-39.3706281421716
-37.4475946369118
-36.047665661343
-35.086455408201
-33.626203172224
-31.1369429515467
-28.3693257867911
-26.6857749926445
-26.6373411941526
-27.560729621934
-28.6548449410402
-30.0506234631089
-32.3928212065682
-35.4679744843184
-37.7900523618659
-37.8910848835066
-35.8057637321108
-32.8851773888785
-30.1938971237881
-27.5897855748068
-24.6562032779443
-22.1044943517248
-21.5190231649807
-23.5239557305163
-26.7553657893998
-29.2097223861212
-30.4327898861143
-31.6787979318295
-33.6326301771517
-34.5846511795267
-31.6989792986134
-24.2020893393579
-14.6741846069667
-6.72394960441818
-1.77677601561413
1.10517387827099
2.22025165884907
-1.0149013997052
-12.4177833813176
-33.1928806097792
-60.3529066792058
-89.112229722336
-116.235693890234
-140.677256857678
-161.829883870261
-178.709639915286
-191.252569238811
-200.803873890586
-207.211477003839
-205.132751734156
-185.088338592117
-139.993694617997
-70.1253217627
20.7621850752852
135.492950587962
287.618911440231
491.39736361102
744.66456397249
1021.84910418536
1286.10597897865
1509.7894828875
1682.68088182951
1799.75077536273
1842.67068358131
1777.50396495458
1575.26513606289
1238.41262666384
809.410159600574
353.832297155514
-67.4757414109079
-416.58512962907
-679.264302420597
-856.281553873589
-956.33778080846
-993.613388263826
-986.057653508495
-952.083529381142
-907.95006630566
-867.732038990418
-843.213075737737
-840.147955239165
-853.011364707918
-865.357860733282
-859.173625859564
-826.796940073178
-774.68886018592
-715.846474473595
-659.252608685755
-607.129957056371
-560.993052848347
-527.016463997568
-512.470004706089
-516.424015460969
-525.892525011629
-523.416040624132
-499.598507606055
-458.600688017215
-412.10605442574
-369.000887809916
-331.02185402355
-296.661524660051
-266.656460733565
-244.229145697798
-230.654243615675
-222.203946762944
-212.237625863736
-195.990004693536
-173.135215210745
-146.513183999259
-119.55634664699
-95.0853997501971
-75.2492608872629
-60.963152559692
-50.8704100120625
-41.6224562486175
-30.1587498661437
-15.9879925661391
-0.991902239927242
13.0230759882903
26.1965371206452
39.8784060484869
54.4710696231382
68.6422578853472
80.8037566401252
90.886645872036
100.220455887701
109.838170020482
119.44125352992
128.206414488425
136.148263081421
144.127762846191
152.515670123772
160.357704963073
166.238850117068
169.823868154554
172.181633137227
174.562063322942
177.205424129107
179.584606967222
181.556486363466
183.786132726153
186.888090563597
190.485501903671
193.498373607016
195.348283936485
196.575861382153
198.137181921606
200.314778052642
202.576264228508
204.405236658541
205.897048155238
207.342467947225
208.456595794485
208.405223493055
206.704069906908
203.880108908532
201.058034763281
198.983860166298
197.645707903812
196.79700032106
196.514154589446
196.978242943644
197.82324279909
198.055249236707
196.819763851098
194.15141675115
190.808639532605
187.424803074293
184.020265560215
180.375259280312
176.61427240913
173.123293622202
169.889529169915
166.203937168981
161.249807283727
154.950163891847
148.07094086674
141.474126075831
135.431208336872
129.752981513242
124.40982437482
119.729505400831
115.899267734831
112.481077571257
108.668904055053
104.059015904347
99.0299948759655
94.3065370130619
90.2714141378031
86.8207074872043
83.7864633031519
81.234067237215
79.2039283205848
77.3006602608085
74.7875674663275
71.1776504111319
66.628430279532
61.6692001125123
56.6252373478366
51.4497233736041
46.0891835490517
40.7918140808239
35.8812513793866
31.2976339258091
26.5871603289001
21.4625741552927
16.2812418238729
11.8300631460452
8.64270424368324
6.63645391124612
5.42460087546017
4.80537156047066
4.76033838625279
5.01271728037352
4.83503455847148
3.50112859350578
0.926083216590797
-2.25669779620812
-5.27561103980901
-7.78252563144004
-9.81115431214081
-11.3497859439142
-12.2026578330225
-12.3497407724531
-12.2755010141924
-12.7230930893955
-14.0730187930713
-16.0680237252954
-18.2095728678995
-20.3337453046967
-22.6836386288742
-25.4653186692224
-28.5266798276764
-31.5919856817186
-34.7074946996795
-38.2386170078822
-42.332750145109
-46.4864824790004
-49.7858978472384
-51.5949193114079
-51.9445037616277
-51.2684710406573
-49.920608399722
-48.0955234485118
-46.1638814039413
-44.8461587373637
-44.8508068830052
-46.3185845907346
-48.7119141974027
-51.2850288795887
-53.6095602210379
-55.6310532043626
-57.3504336298304
-58.6482227488622
-59.4852302856129
-60.144870826958
-61.0976642966265
-62.5710391456893
-64.3232365705299
-65.8977383732199
-67.0605156104732
-67.9304205141151
-68.7274895173688
-69.5288283267722
-70.3448316360736
-71.3458561967705
-72.8412177032766
-74.9439933528978
-77.3046552025695
-79.2655284744246
-80.30466344411
-80.3123572359923
-79.4741325527737
-78.0053179170593
-76.0948898881865
-74.0617054132814
-72.4014509081406
-71.5399942478127
-71.5172791316547
-71.960436618306
-72.3859532222662
-72.5067170066903
-72.2616802807473
-71.6495616933078
-70.650936716627
-69.3279835109395
-67.8977421225096
-66.5941959738839
-65.4355164950575
-64.1765808498694
-62.5202870177033
-60.3515046277909
-57.7509582886286
-54.8428049987901
-51.7264085500567
-48.5798941796197
-45.7354812336895
-43.526429757839
-42.0166576356346
-40.9323725177971
-39.9151524482831
-38.8353783035274
-37.8287204028069
-37.05680726776
-36.5216839102487
-36.1618705487097
-36.0588812555123
-36.4123081304665
-37.2379702433314
-38.1373179950944
-38.4610819696474
-37.7489229466726
-36.0043403149145
-33.5589066753213
-30.7505068496666
-27.8079584667054
-25.0104542192806
-22.8057369007278
-21.6218329912743
-21.5247406035663
-22.1186908768097
-22.8356939188464
-23.3213077848678
-23.5346040075589
-23.5386426189484
-23.3064732374378
-22.7838526736752
-22.0717758595336
-21.4223143574441
-20.9954835106241
-20.6629958458851
-20.1197001716922
-19.198237179047
-18.0369856403569
-16.9320352411165
-16.0772779363786
-15.4957202008155
-15.1843288471021
-15.2119873150262
-15.5911304793041
-16.074328788449
-16.1697418465079
-15.4297702053159
-13.7415084428144
-11.340415482331
-8.58180775647263
-5.74734838336515
-3.05451068745799
-0.747733571800882
0.938225826545214
1.94384494550447
2.47007902923535
2.8452504280031
3.29237468598437
3.82368219665501
4.32054870870522
4.64733783806746
4.66704745715775
4.219414162764
3.19718381950526
1.6983748389954
0.0683539314474473
-1.26835198946683
-2.03407099648496
-2.14513114908922
-1.56294938452579
-0.183360330558251
2.05733657349518
4.99056604574087
8.22585016997661
11.421313951396
14.5256254084148
17.6942831841764
20.9603972268105
24.0480560191037
26.557748460128
28.3064128814598
29.4213367081417
30.1001559487707
30.3663120930961
30.1412026547013
29.5300012980285
28.9220009729881
28.7255599666758
29.0208936347488
29.5308791804197
29.9275178464268
30.0945345133473
30.0572063932584
29.7413977023056
28.9425368323405
27.5855716772442
25.9361748924967
24.4475481500259
23.3842250160962
22.6646066186923
22.1031309187044
21.7316902002394
21.7842357732963
22.3710757655417
23.2818455279819
24.1961086670258
25.0434377795643
26.0376172731773
27.3116955986172
28.6006117732531
29.3848234658099
29.34740506969
28.6122328062936
27.5091131490478
26.1974694705738
24.6289988828586
22.8623823274343
21.2716614649587
20.3241165087961
20.165503058208
20.5116353427987
20.9720122066229
21.4094989998561
21.9342601434646
22.6221521150072
23.3802823208674
24.1338045429122
25.0380679108675
26.3726972901561
28.2100407350609
30.2721197804549
32.1547037579472
33.6206449498602
34.5970246824945
34.9465169986992
34.4185770919443
32.9372894080732
30.8707623144102
28.8711967827176
27.4065038317265
26.5358064622395
26.1990601002323
26.615710509416
28.2102835066391
31.0909742462926
34.7411571599069
38.383868398651
41.6392780355122
44.6819832631601
47.6985733209818
50.3369423766316
51.8829169302188
51.9931409689628
51.0812635422691
49.8466683026348
48.4910015677933
46.5641061642952
43.6050067859801
39.7635114388336
35.6365700779751
31.5610861603201
27.2883425989177
22.4657043460441
17.3213094714332
12.6983194290113
9.40646216649582
7.67671019791518
7.29558433278267
8.09086473420648
10.0448120401895
12.9022350599827
15.876228573576
17.9364230747138
18.3786820377305
17.00993884715
13.83038295178
8.78196374535082
1.98746827423264
-5.87786236656781
-13.7415486181004
-20.8047406206364
-26.9553242866503
-32.3934263468156
-36.9580731757121
-40.0849730992197
-41.514377392959
-41.811887412417
-41.9055242899759
-42.1032333290452
-41.816515771132
-40.3978542224839
-38.0704697122063
-35.7514712166725
-33.9606795180102
-32.2154344321399
-29.7298645013235
-26.5499657955163
-23.6454096552257
-21.7975287532666
-20.7011923221845
-19.4554261991643
-17.8117292115329
-16.5285651682509
-16.3353914255741
-16.8722306990675
-17.0608653545764
-16.4775233817463
-15.8942693667971
-16.1778565548512
-16.9447087354101
-16.834703442012
-15.2158484094686
-13.1538414817276
-12.2628278822382
-12.7711466708104
-13.2989475515461
-12.7706575338278
-12.0699849844345
-13.1507657143336
-16.4286506578197
-19.5721533769956
-19.3053794451473
-14.2734630917567
-5.80799702024687
3.92875942945309
13.7929233311908
23.1733827482709
30.0944215770985
30.7525174294805
21.4610634069527
0.86890867302759
-29.8722846760796
-68.4365273248252
-111.727457577323
-154.805291251572
-190.769538433999
-213.533844573391
-221.421387008139
-217.293248976046
-204.288347710645
-181.687076009072
-145.712596561199
-93.8354311418928
-25.8240674257236
61.8516190538991
182.173810020437
354.17192696623
588.321786273501
872.476646295278
1172.87491929764
1451.49755983398
1684.26955991551
1862.65644614062
1977.78407021469
2004.92398557798
1907.31564541597
1659.88787438824
1273.66388020377
799.844269478578
309.749508273356
-134.112975055586
-496.453296944427
-769.277609522062
-960.147725201407
-1080.17977902611
-1138.59269594284
-1143.60105473036
-1105.98559545907
-1041.66908029024
-970.749120705076
-912.286685849581
-877.190598683378
-864.028277454769
-861.418836830831
-855.720732116027
-838.420913691156
-808.412491168658
-769.355928249172
-726.141356659431
-683.431988241305
-645.555002540056
-615.533821793784
-593.226299837465
-574.837276362287
-555.074884107147
-530.176613375598
-499.082437653673
-462.499312608065
-422.119024838922
-381.319629223384
-345.572639245073
-320.067901372494
-305.431807406765
-295.872997370731
-282.737371152667
-260.974071729032
-232.515272836571
-203.43073682995
-178.059985539621
-156.124292337116
-135.082621571661
-114.195931534453
-95.457738342954
-80.7489796371315
-68.9830745817468
-56.6216094472683
-40.7805746544054
-21.4216407364835
-0.697017297364312
19.1199389785855
36.7019625692357
51.3234134965931
62.5639296797972
70.8688617654411
77.9437809315102
85.8067688256024
95.1624025729
104.986250487303
113.941565636678
121.996388173397
130.316849836387
139.645536703868
149.240143326295
157.679922353599
164.465122807273
170.395559966998
176.355639686875
182.164220101434
186.959231047247
190.516594341616
193.702100027805
197.453135912632
201.646825451815
205.347415896763
208.098795228559
210.56607700998
213.703559613577
217.552244101086
221.218488672081
224.007273604615
226.184801706289
228.382189711377
230.478845964189
231.498456348202
230.711833262563
228.54518383606
226.130763282945
224.080497110293
222.028739294625
219.44507537392
216.563574037913
214.172924130502
212.556899450997
211.012599308884
208.620854824761
205.308569751772
201.868641922994
198.95451323119
196.359702544368
193.460934270412
190.158939234913
187.033942050139
184.520363693554
182.22746409791
179.343256210857
175.626819009876
171.715101715183
168.358279013981
165.572719384173
162.767661343685
159.604699846525
156.410619237864
153.600746217095
150.912262112486
147.514844611279
142.915451937433
137.525581763106
132.182427646933
127.243571554628
122.377327500262
117.225554299844
111.991165854731
107.161090809041
102.765392632066
98.2026538809334
92.912664360238
87.0583791411836
81.3633649206764
76.3379306355936
71.8774734162971
67.670279925744
63.771916299181
60.5272426117404
57.9514925445468
55.4473838855736
52.3059260139483
48.3928428113327
44.1602264027966
39.9954341810045
35.7680585584021
31.1407040162959
26.1750016728579
21.3741770524207
17.0758986255568
13.0088626080953
8.64261342432215
3.91878431703455
-0.574231778110914
-4.2255385364773
-7.04757573665925
-9.54992559414477
-12.0510218197877
-14.3481517058548
-16.1639626068048
-17.7447530272124
-19.7744175529773
-22.6621709296584
-26.090041847356
-29.3908057153451
-32.2854525258695
-35.0883251238053
-38.2039308941998
-41.6319516825418
-45.114589959071
-48.658961234917
-52.6642130117154
-57.4316781801155
-62.6828488878915
-67.7217381698351
-72.0491067472988
-75.6728624788065
-78.7949519468959
-81.3840235925059
-83.2491303676022
-84.4868971810056
-85.6088761032487
-87.0577846287272
-88.6701361573819
-89.7890078123677
-89.9380602071783
-89.2562258203718
-88.2037298698157
-86.9915708085901
-85.5258486683811
-83.9409245052433
-82.959582066145
-83.4800460505357
-85.7735093767644
-89.2196241181236
-92.8918009984837
-96.2934058721842
-99.4132029478129
-102.163482827928
-104.032008234776
-104.451808373648
-103.422350053095
-101.564970976984
-99.505670397632
-97.3227112116145
-94.6986238879811
-91.5273682024285
-88.1948707211846
-85.222666078191
-82.7853935056731
-80.7207897151544
-78.9543695550957
-77.7113742235522
-77.2008305807509
-77.18824220014
-77.0442866243943
-76.2499937373582
-74.7630249475808
-72.8516587024256
-70.6924490713035
-68.2879604625529
-65.7711254509251
-63.6022053711498
-62.2909676346504
-61.9204391931909
-62.0493205118537
-62.1231707144519
-61.9092067606174
-61.4772042394061
-60.8474910344626
-59.8245518841454
-58.2324674074835
-56.1993454237207
-54.0670638884329
-52.0105444054995
-49.848176309063
-47.2850507704009
-44.2809359275675
-41.101349077621
-38.04638089026
-35.2552872611606
-32.8233942749371
-30.9914221216895
-30.0500581789944
-30.0145779378344
-30.4953851616517
-30.9879383652467
-31.2731057315258
-31.4665110505937
-31.7035702349779
-31.9107530463009
-31.9708618201747
-32.0223810480673
-32.4059983346768
-33.2202098064228
-34.0059446710462
-33.9994975754001
-32.7325429782449
-30.3378720289701
-27.2764637744478
-23.8905206493063
-20.3428985959682
-16.9458978675562
-14.3423225912211
-13.1779350586132
-13.5702833731688
-14.9812997196987
-16.6537912295094
-18.135567633901
-19.368205936327
-20.3780537045331
-21.0482728344255
-21.2500510805215
-21.0876868098516
-20.8634461191643
-20.7574793090358
-20.604505691975
-20.0303271028778
-18.7694936627615
-16.8047622246796
-14.2498391533216
-11.2242074375288
-7.90666005877075
-4.63127615425521
-1.79046900936832
0.414384202464355
2.07685766683596
3.39259526920957
4.39594334318047
4.94946599429127
4.9769950975449
4.60623313149306
4.01609165274144
3.20624011412053
2.04724241068108
0.60924781969692
-0.638515342606311
-1.06481422427937
-0.341433978878417
1.35935804378142
3.61482428444487
6.10356482350864
8.64119719994074
10.9422951544291
12.5349397371886
13.0547856127746
12.6187095330828
11.8141863366087
11.268712832514
11.2511918711627
11.6935374853739
12.4991602956196
13.6934043283274
15.2473644354293
16.8823761462242
18.2034352896711
19.0643974443774
19.7268855640099
20.5949402574676
21.8159641095084
23.189843792944
24.4383967035039
25.462434565294
26.2866320304963
26.8400368228126
26.9417590138535
26.5693798777355
26.0749586666146
26.0310160521016
26.8253880277406
28.4254325443397
30.5221693609351
32.8222525675877
35.1394317237277
37.263831571272
38.9007074054089
39.8553334809656
40.2648448847764
40.5567784716634
41.1239801774452
42.0506278604522
43.1580030360467
44.2493356722724
45.2244591346973
45.9651524816594
46.2377429817408
45.8465185381821
44.9055681041457
43.8667526800812
43.1823369226372
42.9202853863151
42.7372699251436
42.219821782702
41.1994612043378
39.7243740187415
37.8244585014876
35.4656358181233
32.8246974161934
30.5549147426675
29.6371878285358
30.8416764747821
34.2664938497223
39.3570677898017
45.3160121831055
51.45365259123
57.1894867133275
61.8688412947599
64.7651276143126
65.3788186018087
63.7513413022026
60.4496643182095
56.2070986595096
51.547666636822
46.708788456403
41.8532505698335
37.2896815462962
33.4646536738458
30.7557475310326
29.2846117019592
28.9127735319412
29.383055544062
30.4451538563433
31.8573043017681
33.3034866471639
34.3559535104646
34.5718705883076
33.6860162106026
31.757524261653
29.1359195577426
26.2372171550829
23.2753899456168
20.1459829516433
16.5434620618848
12.1986789108877
7.0301370408584
1.1133839797028
-5.42139720055354
-12.380320454283
-19.3598707768819
-25.6595625562003
-30.4605516387563
-33.2217849975918
-33.9818619103134
-33.294225589111
-31.8589885647121
-30.1941200345606
-28.5999349364245
-27.3161179900185
-26.5677582500892
-26.3885246396564
-26.4556207892178
-26.2255934998408
-25.3224313956031
-23.7993911783707
-21.9987752316954
-20.1772606519304
-18.3190910420801
-16.3060459030904
-14.1622796116234
-12.0182804735483
-9.84716862765474
-7.3878380609733
-4.47535008751142
-1.44659778001615
0.913974750576539
1.94983016774452
1.66380221728065
0.639784615867967
-0.533381349096501
-1.66153111848709
-2.7383645096707
-3.47300451430184
-3.25200756141372
-1.72802935628615
0.559722601294158
2.27220808454102
2.13787995366221
-0.0699415867226278
-3.20695233772913
-5.31054877436491
-4.66275912850818
-0.725370294960602
5.61479742757971
12.6511632851593
18.7772327305533
22.6724822362119
22.2251577253929
13.2839573396392
-9.52589239942159
-48.9958817276888
-101.014987102681
-154.245005421333
-195.686398328758
-218.21171631513
-223.129012522743
-215.011855957448
-194.133604037607
-155.038597558102
-93.3180884234989
-12.6436878248238
77.7811284765276
175.02908748175
291.124194087407
446.638718824218
652.157878154035
894.849040250414
1144.28028320655
1372.22472605816
1565.59745723161
1718.12981872615
1809.97781124095
1800.27521520455
1647.03785871095
1340.84203528525
922.059739109467
464.352933312149
37.3871691459177
-320.861028437959
-603.712425885585
-816.145459435397
-959.335577092203
-1032.28288523293
-1042.49347557684
-1009.64453647031
-957.238009754045
-902.030667669217
-852.233649879716
-813.552813191304
-792.756792745245
-792.777533065698
-805.300112017376
-811.468475829039
-793.070327580402
-745.061337054102
-678.506806877038
-612.312141928316
-561.814507996532
-532.792274366027
-522.346900429562
-522.487564024391
-523.128665654974
-514.884998549499
-492.578772048076
-457.645453937776
-416.647610463417
-376.412398126642
-340.107860940894
-307.715817248663
-279.379345507386
-256.935520600403
-241.528839494646
-230.416699594627
-217.498031013383
-197.889396240445
-172.036130305422
-145.104662350387
-122.38962792766
-105.403944364373
-92.0021899487624
-79.3582234850449
-66.1940953165158
-52.517714099307
-38.3100380120034
-23.238375593489
-7.44543574441369
8.11546831862501
22.4921891225019
35.6185307422442
48.0539404810193
59.960156808103
70.7585670209857
79.9725942248814
88.1200486690852
96.4067898584249
105.531180961069
115.061531674735
124.096796317263
132.295059199456
139.98481217487
147.371364195678
154.039027469402
159.475486067928
163.904231458836
168.254392845569
173.21964352645
178.552510145789
183.437035281327
187.410484414071
190.673203080429
193.515402960179
195.766151403736
197.072220198534
197.620997917318
198.263834756608
199.759943855239
202.023947133491
204.277907561308
205.866798956112
206.704449936266
206.891024197605
206.177305396074
204.121576513974
200.78414181523
196.998480695967
193.748807986026
191.33809488798
189.322967493095
187.229448375657
185.103743203411
183.238813210857
181.545124625911
179.499075868925
176.796295174385
173.842949027505
171.371563925387
169.588089167725
167.883411642379
165.452989411536
162.052385934488
158.005235385202
153.582458136692
148.658183205079
143.108726368863
137.373066807867
132.339236652502
128.595043008894
125.925633125011
123.644512537826
121.302705699696
118.89521728136
116.408039064054
113.441499661952
109.522284304287
104.750515837734
99.9106887424758
95.8067791733076
92.5538610154533
89.6172665488656
86.4708897020733
83.0375020664949
79.4558563671137
75.6375359459669
71.309025172078
66.5067099969556
61.8103989700458
57.893981477152
54.8614528046901
52.1481156364682
49.0854645464866
45.437666918005
41.3277950210634
36.8009810191549
31.7115053483104
26.1112688743829
20.5693497887591
15.8841036349732
12.4299966725817
9.88068392667294
7.60704591859528
5.24068833243312
2.76210390999779
0.15350415972469
-2.77909075974252
-6.10541334034274
-9.4148230759711
-11.9845664532068
-13.3970970059069
-13.9213599544112
-14.2254245958533
-14.7900619165852
-15.7103315717159
-17.0102622553146
-18.9137763395426
-21.6168161404502
-24.8435426389747
-27.8433553087001
-29.9704835189103
-31.236622438201
-32.2195123285626
-33.4702627773602
-35.124769165383
-37.0917504791933
-39.4259487373938
-42.3004385190085
-45.5943895847766
-48.6899651292919
-50.84972241419
-51.8105627875852
-51.9393191784283
-51.8191379724558
-51.7918749437337
-51.9451892014645
-52.4042299050884
-53.4196109150787
-55.0958016529828
-57.1591037129684
-59.1522145383191
-60.8790248107617
-62.5728898890248
-64.5978042829356
-67.0657629020457
-69.8081120593852
-72.6279144944726
-75.3976536671732
-77.8457904564781
-79.3957708067833
-79.4337040236955
-77.8235391187202
-75.0980197442828
-72.084597821183
-69.3833416350043
-67.2508916677392
-65.8822021182298
-65.5644807280033
-66.3960360942629
-67.9281776006849
-69.2981188688671
-69.8532489347939
-69.6312289978247
-69.1868757174959
-69.0083710861976
-69.2004073476082
-69.6997659266154
-70.5907418249649
-72.0137546933658
-73.7796140827495
-75.2667989389274
-75.854807553269
-75.4508317468439
-74.515593666349
-73.5907942598587
-72.9016849738479
-72.4284624102217
-72.1844513747822
-72.2003085847224
-72.2015406967886
-71.4939308173896
-69.3829691175947
-65.7596770520225
-61.2064113097726
-56.516992694058
-52.2098163638708
-48.5545875176641
-45.9123520389197
-44.7641045679887
-45.2532624734787
-46.8041063974106
-48.4006072361577
-49.3300534397562
-49.594240743726
-49.5616129780948
-49.3364853180184
-48.6227425284807
-47.1854696160487
-45.2383052852682
-43.2052183435273
-41.1573493825588
-38.6928373949041
-35.4882258751712
-31.8839055302991
-28.7824806172057
-26.9524585914018
-26.5183379826155
-27.1357375765075
-28.4928798602233
-30.4477997710732
-32.6879293064442
-34.4897463216564
-35.0487518759422
-34.0956465878015
-32.1038222444214
-29.8551676862319
-27.8650816567105
-26.2508497535129
-25.0083690961043
-24.1824851165993
-23.6778498317257
-23.0503461834557
-21.7091504569831
-19.4165919347649
-16.5340321612245
-13.7300756564699
-11.5010955161196
-10.0270193310745
-9.39107146435331
-9.71251080528324
-10.9236689520288
-12.5057071737781
-13.6616628423924
-13.8825415879637
-13.3200598020002
-12.5502487674609
-12.0118216189889
-11.75056678121
-11.6623710912559
-11.7853290180353
-12.1819211672747
-12.5696943726678
-12.267702336257
-10.6650231525046
-7.74325073620049
-4.07520009063986
-0.327649894828159
3.15415990409749
6.29052810693703
8.98922882913043
11.1308115811953
12.8500817512811
14.6522627831557
17.0633502708948
20.1341520324169
23.3633620774808
26.1237448635686
28.0800399982455
29.1530237638201
29.2164542141515
28.0636350467358
25.7722607491383
22.9742038081696
20.5581132255499
19.0218414469126
18.1741326039359
17.5134059192018
16.8247457578948
16.3157882818202
16.2247495442007
16.4886242084838
16.927879547347
17.6808994277039
19.2593946740711
22.0666544253757
25.9142702713674
30.1000765668527
33.9455947193597
37.1832241636623
39.8439639403016
41.9371178864668
43.3962774110645
44.3062486624642
44.9920496477485
45.7380141363908
46.441629759563
46.6472951978378
45.9480011161928
44.2978169607831
41.9333851410431
39.129171230078
36.1819247027468
33.6087530583165
32.1416227454517
32.308127484102
33.9678448919669
36.3388535744107
38.523830522305
39.9752265476111
40.4640877799794
39.7795161246325
37.7112930550501
34.4177422749407
30.6556894340562
27.4159706766777
25.2360294244304
23.9199371117994
22.957214783773
22.117208236853
21.5331396495686
21.2826456357591
21.1192955979022
20.770124559214
20.4071770678519
20.6018746982023
21.7042889000553
23.353934513325
24.7234772795452
25.2276944524437
24.8911406427699
24.0348944595496
22.8002368677183
21.1689292523792
19.4049961093552
18.218870718245
18.2812064498969
19.578888091468
21.3777989241702
22.8599792705205
23.7136612195388
24.0695144006718
24.0244407027521
23.4705723094888
22.4547969306393
21.5112679043821
21.3878697625695
22.3708382680551
23.9783918882659
25.3943293862917
26.1448153327258
26.2821867549146
26.00406315391
25.3237414579175
24.2461435640775
23.1521177934401
22.7705296335046
23.6477118301772
25.6980634519342
28.3492566796975
31.0798184583151
33.7169641143937
36.242175929073
38.4935024969851
40.2064748572824
41.2849752822288
41.8400338387446
41.8747155144099
41.0398581718316
38.8523687940406
35.1714245925668
30.3815920551797
25.1236225334204
20.0082212405418
15.7054873436619
13.161049316993
13.3665685005854
16.6507013546243
22.2028582454403
28.4475650934653
33.9475470323184
37.8909572989855
39.762394398506
38.8627132031754
34.5382316305362
26.9859173314026
17.5788353433443
8.07456168116186
-0.590105171855813
-8.62748564164557
-16.5412213312805
-24.1655392266029
-30.7554829383457
-35.9255577474033
-40.1539641165619
-44.139492201412
-47.7997693464034
-50.2121343361299
-50.6449708489954
-49.4553714766425
-47.7771695668003
-46.4052471359136
-45.2268357410665
-43.793274928249
-42.1767413990546
-40.9729109913496
-40.5037538259516
-40.3467915263021
-39.8690146464413
-39.0903457020844
-38.7380549049373
-39.3886360278886
-40.7626124435372
-42.0136690070557
-42.5565359811156
-42.3331762906046
-41.257577766468
-38.7481611281253
-34.161731778907
-27.6966618285667
-20.6121958609736
-14.4098295784554
-9.90397107797376
-7.17906644888218
-6.21750560039314
-7.14287820209072
-9.69336537339504
-12.7657045997562
-14.892384845965
-15.2291433555251
-13.8282932627167
-10.8974236329509
-6.22518583235068
0.150682265838675
6.7699189157865
10.9357468396447
10.7259181668757
6.80723049453167
1.72310863641413
-2.9289690294183
-8.30511808435925
-16.8475903891061
-29.1143824338846
-42.8033015735181
-55.6118276861535
-69.0391026946846
-88.6669601146048
-119.856571195829
-162.468878248075
-209.100274436862
-247.854071313899
-267.027070539993
-258.824596400208
-221.217810564265
-157.910907140971
-75.5683849103279
21.9998906136785
139.542018817336
290.101275230314
486.109493360236
727.310756465614
995.95223273924
1264.49512177828
1509.21413441644
1716.51559490749
1875.65209931182
1965.94233623199
1953.85593810206
1807.09776282914
1516.59893675629
1108.96131700826
639.349598403121
170.402311188711
-248.155490302051
-588.494760179433
-842.237398659093
-1013.24841489084
-1111.27658101127
-1147.972012475
-1135.09122984475
-1085.14340928312
-1013.85101953804
-941.180064051391
-887.215844784683
-863.430512426079
-865.572377534821
-875.12307387058
-870.052018863089
-837.843657058827
-781.826959918951
-717.327361585028
-661.680113209058
-625.259434227604
-608.095932930301
-602.111111312354
-596.322083051145
-582.107268552596
-556.321082830545
-521.076037507944
-480.769240210422
-438.845921524938
-396.943392017487
-356.620783269426
-321.031747845155
-293.892033159277
-276.285498181341
-264.748680137118
-253.167070751422
-237.056739662008
-216.196356573924
-193.314170891663
-170.668227092914
-148.248863241942
-125.056530146791
-101.346052971515
-78.9824169258348
-59.6462649689425
-43.2012556144215
-28.1084433175665
-13.1916962605997
1.38967535546033
14.8523033273997
26.9669771930918
38.1776878182747
48.7599038623634
58.3851836886288
66.7701833243521
74.5053696976537
82.8467299989318
92.6012703775785
103.43293266334
114.392722237471
124.942385166987
135.190718293951
145.164204647273
154.211421801895
161.438609590759
166.692661807441
170.858071674096
175.069375426683
179.764117530339
184.632831630764
189.354117144619
194.070542734555
199.021322191418
203.924773740788
208.038015240937
210.908372304875
212.89546691068
214.803589616258
217.065075848109
219.435617370877
221.470619124952
223.081118340657
224.458517556152
225.558794409542
225.931768494582
225.203102520156
223.62289837009
221.965569381066
220.861750804566
220.329175220122
219.983693521854
219.561230246759
219.067801839677
218.452855825722
217.36239622364
215.400591456276
212.610968552377
209.549903539863
206.812980644823
204.545727443445
202.460171433695
200.23057139687
197.71592434266
194.781725315917
191.090386124784
186.280460344306
180.396239012977
174.023994839831
167.901554230609
162.405804626572
157.462135480094
152.884118802607
148.640900133091
144.717341663551
140.83302876443
136.51026909025
131.522096912778
126.209142079282
121.249566738845
117.099467986351
113.699490142306
110.70073543984
107.847032289738
105.032676118481
102.045093257159
98.4374494897851
93.7965618236233
88.1301068242759
81.9059697436606
75.6781027969982
69.7086945644667
63.9565975436707
58.3349801575322
52.8598762720852
47.5415918722712
42.2576538526205
36.8609966318607
31.4220672750323
26.2802559856991
21.7998264091567
18.0959254306662
15.0249825894054
12.390562817382
10.0641070461286
7.88821212161245
5.57209143138907
2.82254583634855
-0.381399966060449
-3.71344631012114
-6.77271885505403
-9.43494490488923
-11.906925466969
-14.4615567565905
-17.199684346559
-20.1063982897205
-23.2565320944361
-26.8209449105697
-30.7999957197767
-34.8071893595899
-38.222272310914
-40.6143674883337
-42.0162529599097
-42.8018796643454
-43.3616420544492
-43.9439122732803
-44.7558731474452
-46.0723575826291
-48.123461497198
-50.8637336632049
-53.9218466992253
-56.8396027568126
-59.3813139159784
-61.6331755497464
-63.864122665864
-66.3499667095572
-69.3100829151872
-72.8987937818295
-77.1346864958435
-81.7987370047531
-86.4460842749554
-90.5744715227503
-93.8086666300892
-95.9514708816758
-96.9323076368375
-96.8005513080275
-95.7968568394726
-94.3556819825865
-92.9225421364256
-91.7068947090865
-90.626703441403
-89.5215661826009
-88.4081244295446
-87.500176380198
-86.9959732429273
-86.9084553245191
-87.1415997395464
-87.6903633338646
-88.6772461264657
-90.1478712217138
-91.8694084338149
-93.4010570572352
-94.3951642624316
-94.8190522129621
-94.883965389399
-94.8001072770354
-94.6394487745396
-94.4065107641379
-94.1474953533404
-93.9114128545361
-93.6099885642871
-92.9854374782302
-91.7742186844264
-89.9117816965394
-87.5699857586837
-85.0146710132214
-82.4606870417765
-80.0564351843571
-77.9342749114453
-76.1856802323401
-74.7550072686451
-73.3988097291876
-71.8128302511559
-69.8346336975835
-67.5327248281409
-65.1157257867547
-62.7836285095646
-60.670831072189
-58.8847799150245
-57.5252989332753
-56.6233685715369
-56.0750852385613
-55.6762736876774
-55.2472753755095
-54.7294065277262
-54.1698561651754
-53.6357412216495
-53.1520581114687
-52.6924884291522
-52.1768356201401
-51.4498218226027
-50.2885502879278
-48.4872529100193
-45.9779492102836
-42.8823780568507
-39.4488303504012
-35.9431411599632
-32.5922530856717
-29.5889529254979
-27.0813752542582
-25.1060098366399
-23.5298323756456
-22.0963488520363
-20.5704949581475
-18.8667495009
-17.0599371691475
-15.2988814719376
-13.7227607526458
-12.4360272014838
-11.5086412278478
-10.9563631555588
-10.7211350125697
-10.7032062852483
-10.8374407140379
-11.1378708335019
-11.661731134367
-12.4396270558404
-13.4517544152666
-14.65036204507
-15.9480348109917
-17.1379493778047
-17.8411085754076
-17.6057094313668
-16.1377621522092
-13.4761512583257
-9.95380355357369
-6.00180084962847
-2.00755604339263
1.65944031779147
4.57443755531322
6.33103281600716
6.76357549466482
6.09410550062344
4.81428446792059
3.39181886591234
2.08645591639293
1.0292843700049
0.410329079847262
0.504643961720056
1.4852576576899
3.25186611348997
5.49646462927289
7.93688788787169
10.4381128394363
12.880058390201
14.9562985236756
16.1959694864104
16.2453197085755
15.1285486803796
13.216864500968
10.9644632809345
8.72228036674085
6.80949094043755
5.67367966323088
5.8400280164228
7.60919102906329
10.8013751120573
14.8409292603496
19.1178363598352
23.2670008000377
27.1215997385075
30.4827413142829
33.0442730411935
34.5920491084941
35.2360950389401
35.3716604072708
35.3760936198448
35.358619999991
35.2203791165173
34.9273407418979
34.6684066448085
34.7251112796214
35.2205923047261
36.0412813115874
37.006467340898
38.0752910444432
39.3600396105652
40.9575871031905
42.8133504603234
44.7675204707306
46.7062361740458
48.6292236650165
50.5608757100791
52.4122019743747
53.9379501525304
54.8160216942136
54.7657886964773
53.6284795146827
51.402397778974
48.2521955875311
44.4870062701518
40.4991264863626
36.692437508668
33.4406041913069
31.0619187046932
29.7544417737561
29.4895143777815
29.9652562690504
30.7217413347503
31.3679401756934
31.7293421715408
31.787649892844
31.5100239560323
30.7909402975493
29.5841769405492
28.0477851268667
26.4828006792632
25.0933924619343
23.8379635209318
22.5608563979405
21.2635391771734
20.1921189729111
19.6252078901831
19.6061078131775
19.9352865885097
20.4254798469264
21.1039580476758
22.119271336215
23.4842095846753
24.9934302943618
26.4309114774131
27.8088332673125
29.3289598515201
31.0981572737644
32.9348918360727
34.4911247689159
35.5297587493915
36.0272971810991
36.0199901743339
35.4472306196025
34.2325746491819
32.5047354724975
30.6471383018488
29.0620641534513
27.8939050226389
27.0127438140089
26.2404711350529
25.5173931854922
24.8180521375893
23.9747601245802
22.693386893657
20.7862190959152
18.348094593655
15.6595947624969
12.939027933995
10.2419528441707
7.60066968078104
5.18917780933528
3.29310194415996
2.14465723170196
1.8538826025295
2.50066065025653
4.19815032232533
6.9721616274874
10.5874420770884
14.5788828979836
18.5015059540935
22.1126698054534
25.2760927134016
27.76352112475
29.2998935795948
29.8705924051989
29.8856539313543
29.8780117927202
29.9793654797695
29.7656607454261
28.6893448120477
26.6206746984897
23.8763461290949
20.7484349953563
17.1886524949485
13.1162442463886
8.99205713629255
5.87415759871572
4.73239269460054
5.70144111984941
8.0727351252872
10.9819542506612
13.9620338559559
16.7684604590545
18.8373680543638
19.2042451156359
17.1080484077521
12.6048599765764
6.46212127934383
-0.536739153561074
-8.06342274712685
-16.0134293886377
-23.9899264472281
-31.2311849061963
-37.0810555645592
-41.3908654504538
-44.3671234188292
-46.1320234894243
-46.6207146884961
-45.9401814608724
-44.6559890561308
-43.551875364025
-43.1105926409716
-43.3332325542249
-44.0499233750201
-45.2189081597112
-46.7697803379823
-48.2427930569269
-48.8368392263717
-47.9668661318887
-45.7143116425051
-42.625479494402
-39.124112471802
-35.2823105240629
-31.1792756866851
-27.2546126936484
-24.0667818830538
-21.7216410862211
-19.7662384307132
-17.7644896783536
-15.8258838951771
-14.3705508906906
-13.4505068512975
-12.6115585561116
-11.5742080216542
-10.8069651018607
-11.0614015868974
-12.3190680260405
-13.5712481073836
-13.9337548431015
-13.7775572580049
-14.256804716954
-15.5248490933508
-15.7954195108499
-12.7082723492741
-5.75997986745385
2.88676157867808
10.1530771708535
14.3364609649017
15.3903454193055
13.206488773506
6.37528831763372
-6.85125021788411
-26.6043129164337
-50.9317785072723
-77.2842028068398
-103.89967071441
-129.474622492828
-152.231585601755
-170.455459920751
-184.037749382157
-194.062787595582
-199.29509453917
-193.169844971923
-166.068323445723
-112.073575610009
-32.8060672578859
67.6313807954722
192.520502250547
355.331465932119
568.78921144788
828.400255705917
1107.08063796576
1368.21354601556
1585.4019462782
1748.98168722424
1852.64664349028
1875.54640353917
1782.18674107351
1545.50696249773
1174.30034911989
719.735188893832
253.902978290887
-162.352007920877
-498.221465816665
-749.337819404863
-922.539876214203
-1025.2040192896
-1065.06397735588
-1054.49914155029
-1011.55140898603
-956.413914121571
-906.904853062945
-875.085083323295
-864.430910231024
-868.008714012914
-870.756524231015
-857.420455050324
-821.77286923134
-769.57592919522
-712.663227142121
-660.1052408829
-614.923787950746
-577.977469724749
-552.312768858672
-541.33816004573
-542.528461408894
-544.836696138961
-534.552486594042
-504.84242455197
-459.779385722967
-409.454243613799
-361.956428672939
-320.187370064506
-284.855092378336
-257.966214988033
-241.750008815201
-234.603508607176
-229.768749833933
-219.245528543452
-199.252531200316
-171.915295233901
-142.27954398571
-114.49794232049
-90.7222052290022
-72.1473699674041
-59.3729763367144
-51.2519815951735
-44.3581237064373
-34.8453685092449
-21.2756752805772
-5.33170413287635
10.4231284204212
25.1714844185266
39.9871246338806
55.7354038544217
71.5570868516281
85.7407040907662
97.6793912367612
108.39148625668
119.09395184242
129.77538682236
139.508918792535
147.865116700447
155.43966432921
162.851100814786
169.670897600649
174.817645708559
177.966984033801
180.162840348472
182.832611281861
186.427213167197
190.30530208264
193.828168749924
197.143329771195
200.698702247002
204.290680618829
207.04852321989
208.458729323675
209.112191577934
210.187705113787
212.29403077382
215.059243317223
217.831254536754
220.445266722395
223.060391901978
225.422732120143
226.715894705929
226.347135146567
224.703787958374
222.870661872482
221.593659494322
220.709361423208
219.629283877555
218.12833996733
216.393014389075
214.370945636672
211.444443688772
207.015944719065
201.333909952823
195.487129676522
190.497673814309
186.547963195862
183.165414728226
179.969795675033
176.961715052908
174.067990488717
170.725019647294
166.239194173237
160.581431189474
154.609152348902
149.365852110367
145.241504390294
141.917715255106
139.007592695109
136.469769627303
134.2920751222
132.004385857679
128.849054212966
124.543172442987
119.701071451952
115.319673118792
111.86462487823
108.976858576405
106.034472457889
102.773946352588
99.2125376314054
95.1243545979938
89.949224024122
83.425381782493
76.2099300570651
69.6446170836845
64.8091704646507
61.843492662223
60.168125297955
59.1629148368388
58.4286139445575
57.4458657736712
55.3053973481083
51.0896104642817
44.5911534229004
36.5417756590574
28.0564777480216
19.888541800749
12.2332917746384
5.09800533279735
-1.37046832854058
-6.99284640151065
-11.8205294266555
-16.0767314637513
-19.7931550572202
-22.6287481182494
-24.1522511969244
-24.2803895555091
-23.3848848376263
-22.0281587145494
-20.7284849949592
-20.0022389467518
-20.4415488110639
-22.4876180951223
-26.0245841503812
-30.3014406218233
-34.4066487759827
-37.8759794813695
-40.8371174036103
-43.6394448847203
-46.5006336617028
-49.5811839200119
-53.2508865832381
-58.0090683141546
-63.9825677688289
-70.5545799958914
-76.6315471551662
-81.3508814492843
-84.5371952642669
-86.5351602679577
-87.7591612408965
-88.5144530024995
-89.1526651029845
-90.130248085106
-91.7032079550286
-93.5679102915817
-94.9437869184288
-95.1122768453455
-93.8914467356987
-91.6236850645168
-88.8392284787631
-86.0626438822783
-83.8893800771813
-82.9873237521143
-83.7535476834743
-85.8955780560032
-88.4625787155705
-90.4197836749026
-91.2458219493417
-91.015106623679
-90.035968792998
-88.5798282258945
-86.9850755856683
-85.8195685720906
-85.6574794775418
-86.5582185844652
-87.8280218058502
-88.4222560406698
-87.646160120771
-85.4925391995994
-82.3999865568826
-78.8519268765833
-75.2850931129221
-72.2414423292589
-70.3270046536285
-69.8265878751499
-70.3668331610796
-71.0770928310387
-71.1627735828908
-70.3481316216044
-68.8316850385847
-66.9655131984512
-65.0937660827399
-63.628523765375
-63.0375090498671
-63.5363272659315
-64.7561933155627
-65.8272199894485
-65.9025580543062
-64.6498399928978
-62.2823237447575
-59.2316425244317
-55.908640235966
-52.7522127039231
-50.2985844262566
-48.9567897427972
-48.6151368746518
-48.5364730934036
-47.7605396097032
-45.6901874533369
-42.353547111266
-38.2129092482248
-33.8466168514741
-29.8276724460928
-26.7459666450406
-25.1108155231942
-25.0904013842847
-26.3584695982601
-28.2748196288508
-30.2687855693133
-32.0865419212003
-33.7546196307319
-35.4242539693486
-37.289822337284
-39.5412791144905
-42.2030757674196
-44.9142206580621
-46.9197478499972
-47.410971341138
-45.9769470585911
-42.785188994112
-38.4038114023696
-33.5471347748576
-29.0018400843295
-25.6262849683483
-24.134923797866
-24.6705212227808
-26.5635728860171
-28.6188872330441
-29.7525345698181
-29.437453436675
-27.6577944387228
-24.622866774615
-20.6672868897166
-16.3733814509904
-12.5458696655362
-9.81771295831832
-8.19745393283004
-7.07215325563065
-5.73525712565226
-3.92998261041983
-1.90032975732392
-0.023075930332273
1.46905650539729
2.39630274822844
2.45825504707029
1.39555256514526
-0.57779923031953
-2.59763952506443
-3.56070164890216
-2.80518809062533
-0.42963047194714
2.97248648001899
6.76486533357137
10.4276673530184
13.4421759813031
15.3085179808833
15.8753546240052
15.6379329879408
15.5634863459875
16.4967294858894
18.6764623456153
21.7619325719065
25.2021766732896
28.489368879749
31.1382916261458
32.6724317706525
32.8683214067906
32.064216725203
31.1061240939686
30.8448290011354
31.6116032657271
33.137488945003
34.8883202120006
36.3801341584784
37.2036455934498
36.9574038710628
35.4156079999277
32.866965422578
30.1929624891359
28.4418724891447
28.2109958623902
29.3861722571186
31.399865304206
33.6330429311015
35.5503428268191
36.617208281443
36.3665495220229
34.7343475051237
32.309144572488
30.0995348004429
28.9246028760967
28.9711771576779
29.8881293594126
31.2085953109503
32.6081907917633
33.8303108398008
34.5803551801353
34.6923233480549
34.4229419927264
34.4455152378434
35.4007822731395
37.3806351508834
39.8290058728515
41.908088102295
42.9296904525296
42.505036096518
40.4851671990789
36.9793687942393
32.5017555168621
27.9764962087263
24.3999854844522
22.3523409390263
21.7641125942609
22.0960498857898
22.6888129278055
22.9709240643024
22.5086616738482
21.103386006692
18.9870150551762
16.8750881170977
15.6597758424518
15.8981624179082
17.5186481381836
19.971471208288
22.6068617160536
24.9052782024471
26.4717790400321
27.0353446785837
26.6269510689141
25.753672718235
25.2472009336929
25.7768791214792
27.4160203286167
29.6336832886765
31.6583981577381
32.8349509285016
32.7333346517569
31.1375980060631
28.140759158221
24.29554924947
20.536658435928
17.7655714032959
16.3849284037055
16.17581656693
16.5697899071554
16.9901105921978
16.9768057964023
16.1737967516264
14.4344477272549
12.0525600521669
9.80508325034026
8.58368159704317
8.84367811693377
10.3557200680792
12.4572524639762
14.493556835603
16.018764745207
16.7137025457296
16.3487717501355
14.9922638849107
13.2216081883983
11.9518070707079
11.8894559058065
13.0830448976864
14.9826191948791
16.8936325544945
18.3442523423952
19.099633245721
19.0337471349122
18.1854839139202
16.9614318812442
16.1272375498703
16.4153153168406
18.0511341413044
20.6470718948019
23.5276807436511
26.1116082085303
28.0182427647692
28.9876623518047
28.9143075425032
28.0251451879269
26.8905484325635
26.0681661776271
25.6504285810414
25.1885613371903
24.0813200876128
22.0005299003991
18.9399712556545
15.0025777455277
10.3751506908562
5.60970723865756
1.76666172927889
-0.0183193683648124
0.690709532782712
3.26606690660999
6.46373801243177
9.21423642858654
10.9565295787421
11.3402758873313
9.92265435060266
6.4342179053817
1.3367837882963
-4.14481612900598
-8.80562758884556
-12.3490089701418
-15.4582558046096
-19.0158666716529
-23.3623572640716
-28.3297694807727
-33.7730545589936
-39.7490350471914
-46.0662938095676
-51.8700091063242
-55.9776415167631
-57.7467983807952
-57.5356215114343
-56.2559494206073
-54.577525887228
-52.6781426646245
-50.649651866291
-48.8185035510454
-47.4421764641322
-46.203610469051
-44.3197226099842
-41.322895039582
-37.6372103023749
-34.2251226001918
-31.6916971227333
-29.8846096179508
-28.3624695565109
-26.9849560629807
-25.7840254798466
-24.3372279020353
-21.6514555292122
-16.9693864936347
-10.6636965847661
-4.14655981443866
1.12749464229859
4.42088717176818
5.51164125444092
4.14664639638347
0.18380415004092
-5.65354945952698
-11.5885734498322
-15.7867409208708
-17.5301020234503
-17.1252703784704
-14.6932467630013
-9.6291719074822
-1.80904799886706
6.86792376799799
13.0224218051964
14.565616439425
12.7313162742274
10.5978513879931
9.28575193565925
6.23337963711506
-1.93111738177678
-14.8665486198847
-27.9708538873502
-37.5067420483042
-46.388820508215
-63.825492035873
-97.8088897077395
-146.936326716227
-199.110065053567
-238.140667942312
-252.224767852201
-237.806327590935
-197.804416145784
-137.752825556918
-62.6498132110968
25.8475718909013
132.370320336696
268.281460563839
446.134203142452
669.606674343272
926.590573709296
1192.452647094
1441.4897372265
1655.9510587726
1823.73243180514
1927.56030242946
1938.51925931058
1824.20463786107
1568.30640321285
1186.97757959792
728.81614356755
257.875344511697
-168.945102026263
-517.019931482551
-776.098337626955
-952.681678945828
-1059.73634376936
-1109.41087395216
-1111.15779447914
-1074.55406422311
-1013.4831909505
-947.105016390256
-894.95417823315
-868.347639061909
-864.322331708566
-867.420472334917
-858.918680520697
-827.463293639453
-774.411918978926
-711.543134610873
-653.895142897077
-612.455688796169
-590.097598019069
-581.80557980595
-578.381293201291
-571.428033887029
-556.691977986338
-533.863598948488
-503.825639601026
-466.690722868092
-422.972138289004
-376.370562604354
-334.134493136308
-303.119348275906
-284.626155676954
-273.228026763127
-261.187895767416
-244.353854004412
-223.939033896678
-203.103382652852
-182.714200943015
-160.995088130258
-136.877772377967
-112.592666020863
-92.2060445672736
-77.7258540350581
-67.1490557348913
-56.4210465056969
-42.898619846291
-26.699011561003
-9.23533725673755
8.62543165420459
26.6223047997679
43.9862213492631
59.2205978326954
71.3294716779518
80.8725596538773
89.3622995355276
97.6905546291791
105.525341985128
112.31480004966
118.450880890822
125.020120493939
132.501015032704
140.169763977471
147.029795390319
153.078740908778
159.300112601386
166.427672800683
174.072662465438
181.250565138899
187.50029373846
193.098656881952
198.181988086549
202.091952050282
203.956607521756
203.83500388519
202.945857916812
202.63779085857
203.338180565386
204.680098445153
206.444527766918
208.949259855
212.365171975143
215.968085863996
218.482125623846
219.23443240214
218.727988827456
217.933041959393
217.20045734848
216.124393837238
214.397273054708
212.414733959695
210.78294292018
209.403026284398
207.421652469965
204.218417400328
200.219275907833
196.50300648528
193.683505285703
191.437115398616
189.168809617257
186.843762113894
184.867744808983
183.231135152512
181.151488330415
177.805216505503
173.28414342608
168.569628907553
164.542851273409
161.246033443272
158.229832865579
155.39335798613
153.129774024844
151.588838708518
150.107431984562
147.681329725198
143.980394812432
139.6533018155
135.535668751928
131.748864929669
127.776744549633
123.319983005551
118.740935351578
114.501205334096
110.364004872503
105.476438374209
99.3116849461485
92.3201331661831
85.4824281882321
79.3264801271049
73.601981894937
67.9196257456
62.4404034561841
57.71269191312
53.9261748049678
50.6157427145201
47.2264623015315
43.8014646666305
40.8964338212325
38.8349327499523
37.2476066264127
35.4217733220178
32.9290391099093
29.7129146111852
25.6372508924936
20.2644738769382
13.2978435591852
5.15358289734851
-3.13385175650892
-10.6416918314832
-17.0735190504667
-22.5049881350774
-26.8297252143179
-29.7460113431687
-31.3327261846434
-32.3729118790955
-33.8288392912247
-35.9827170831093
-38.2703052312111
-40.024785926342
-41.2238863352192
-42.3514410839978
-43.6376254760172
-44.7385763304234
-45.3148380226471
-45.7483579234194
-46.9991998457915
-49.6809228325957
-53.4475222095367
-57.421738762337
-61.1112295018059
-64.6927123375679
-68.3985711506637
-71.8922431526015
-74.4886967648353
-75.9374471281977
-76.7377524333768
-77.5612590528004
-78.5092160782825
-79.1323462573513
-79.1529715653228
-78.9489259963949
-79.2074071450466
-80.2381787137554
-81.8298888822255
-83.7651744500096
-86.2319618298484
-89.5374033087804
-93.4929168346857
-97.3018640145905
-100.140819918616
-101.742149537287
-102.318568091667
-102.044854658148
-100.850731496425
-98.7857155051045
-96.386828804192
-94.4449201891191
-93.3724196893076
-92.9352946476249
-92.6664421795587
-92.4142405648871
-92.3422802172539
-92.4558730748939
-92.3639972816459
-91.6469124375787
-90.3530116594608
-88.9408655399051
-87.7050996507204
-86.4176703184727
-84.6482835630798
-82.3445578548094
-79.9220672957823
-77.7726287414412
-75.8670799496866
-73.9824926379631
-72.221898992429
-71.077184479657
-70.8854258185466
-71.3566620693324
-71.797461972074
-71.7705913946215
-71.3751511839263
-70.8398654481355
-70.0259894143492
-68.5392957490292
-66.3143292275129
-63.8697315003314
-61.8347249922316
-60.299903180947
-58.7961966713659
-56.9134865766141
-54.7640984245505
-52.7258948625853
-50.8547423831426
-48.777585146545
-46.2174586447464
-43.4430189122941
-41.0198366555086
-39.1594560965508
-37.4996688011833
-35.5930261366632
-33.4634990550724
-31.5217360063908
-29.9918741142237
-28.6476335292377
-27.2248048621646
-25.9462018766151
-25.4116299836732
-25.9314163830014
-27.1339691394188
-28.3523787187001
-29.302290792965
-30.1996055377119
-31.2112770319902
-32.0103198691026
-32.0630946339863
-31.2975520197662
-30.2712535800171
-29.5804680409621
-29.2233749720021
-28.6907546085724
-27.6323245999648
-26.2375097372158
-24.8808920999274
-23.5545372034628
-21.8686379502977
-19.6298461613279
-17.2343723300129
-15.3501011394463
-14.2804502225252
-13.7934968433996
-13.5714071371887
-13.6377304863498
-14.1985651185054
-15.1518607356503
-15.9700531812374
-16.1526447439314
-15.6740821497886
-14.8543281071601
-13.8448385246391
-12.4222942129411
-10.3535604826862
-7.82247858477668
-5.33044002712664
-3.19650680931254
-1.32247242350569
0.473969237955555
2.02929222448429
2.91860910926932
2.97660262311568
2.58222865444527
2.33544326616028
2.54991297607811
3.2077538171892
4.37326365549053
6.42310212980995
9.69638661013916
13.9800073288082
18.5208071159787
22.5979601288148
25.960122279833
28.6180952365638
30.3552790227784
30.7072730550184
29.5207439817423
27.3681389616629
25.2054994289106
23.6198358864686
22.5697339495764
21.9097514598534
21.9712600424106
23.386063730314
26.3325629879643
30.1790796007065
34.0357520176019
37.5697157203376
41.0806886286884
44.7638752482263
48.1278550373227
50.3448535381498
51.1193503845494
50.9892806552762
50.6823171418238
50.3315953909572
49.5061560425753
47.958014305185
46.091665833674
44.5545927440297
43.4919482652748
42.426699656029
40.911268229916
39.1278134270416
37.7228345895389
37.1528547225741
37.3845005020606
38.2449026064042
39.8408369654148
42.4220047035975
45.8624445091901
49.4702250801004
52.4026342230209
54.1766438436654
54.6888250162416
53.8646213413976
51.5497287067069
47.8572529532329
43.4621100730271
39.3194949900633
36.0383410073372
33.6416054724603
31.9741223999746
31.1724002650222
31.534031524467
32.9571421245336
34.7589761832085
36.2334462193622
37.3171684246559
38.5176097749094
40.1577500134061
41.872280183908
42.9896362944506
43.3063968005088
43.2552304676153
43.251978486611
43.0765592267466
42.1069980806581
40.1222582622792
37.64499951877
35.3775829893646
33.4416801797429
31.3698569552949
28.8215657132149
26.0820992587091
23.7247976235308
21.9239467165725
20.3385438419658
18.698898576378
17.2843363840715
16.6316785449044
16.8455709315824
17.4152662297589
17.7744889728748
17.8687852936946
18.0111342178955
18.2765659803986
18.3013710507234
17.7849640159639
17.008058630816
16.6161492207875
16.8836910004072
17.3899673265029
17.5303501450735
17.2064779327241
16.8148506708151
16.5934964224337
16.2476322989975
15.401021916362
14.28909217431
13.7280807828613
14.3020060576028
15.7391280699001
17.2423864850165
18.339377885972
19.1787791884742
19.9536469592719
20.2903340093954
19.4840814438866
17.3297758170117
14.4754256298
11.8022488800754
9.56852261380391
7.34531096034493
4.75244165431928
2.00654879048459
-0.399325063748262
-2.39215094671246
-4.41657443985225
-6.78321680994463
-9.132275172189
-10.734652094696
-11.2547628758673
-11.0086682054231
-10.4375690353016
-9.54559035330183
-8.05086622899513
-5.9962130466692
-3.93140772567859
-2.37312757850142
-1.25864505064868
-0.149988541420358
1.06021449949848
1.8874675907211
1.81194372769647
0.931970351184934
-0.144739782022697
-1.00574974610679
-1.75458123068551
-2.49063014813791
-2.67809010728702
-1.3696496326037
1.84744776672227
6.32250405246926
10.9099762498363
14.9331989866028
18.3451223670257
20.9707976626129
21.9757964598665
20.4470639375285
16.4750999531387
11.3468129517904
6.48704247868471
2.3568728668022
-1.40766056936525
-4.89785702653006
-7.36918137470067
-7.98898017477991
-6.93371357298412
-5.36863364123487
-4.24921473704114
-3.40328949443868
-2.01956019505795
0.102534133302235
2.12600447000849
3.07411358169986
2.86550922970047
2.1755856655482
1.36938710949175
-0.0647090694998589
-2.85902124718276
-6.98999568409102
-11.6763571171833
-16.3283388492157
-21.1718173287031
-26.7378328637452
-32.936113714417
-38.9628477303129
-44.1343982726276
-48.4778450458747
-52.2641237267994
-55.1600065320872
-56.2581525277264
-55.0808577258943
-52.2840984065798
-49.09345745152
-46.142028422434
-43.1803017296044
-39.977038595682
-37.1227495793087
-35.5490053106506
-35.3133033308232
-35.2758924370399
-34.2173219683655
-32.0674848302001
-29.7232048299277
-27.7387316090415
-25.6335436136063
-22.7246113392951
-19.3291253989012
-16.6437833664311
-15.3639705620316
-14.8553257488224
-14.0457483957929
-12.9262129688731
-12.6490339495343
-13.9925515168943
-16.1645775156946
-17.5905607882501
-17.7656177402618
-17.7587371726909
-18.6083960442381
-19.6311427470869
-18.9456009863252
-15.7611314361782
-11.6172314456149
-8.87540816686846
-8.09519599223359
-7.34246157374924
-4.19473095538959
1.94020864709207
9.72608285175846
17.6784567229155
25.3020431855113
32.2091553693429
36.5912520218922
35.1567146704734
24.6649908797838
3.36813588280391
-28.6369338251762
-69.3398440219461
-114.265718246756
-156.551455129347
-189.240900314432
-208.798404413278
-216.248845622628
-214.0187861217
-201.599040048714
-175.343370661697
-133.091123431802
-77.4372298958282
-11.3357914698599
71.5066202258926
190.473185646121
368.006566884412
611.232732526936
901.320847391644
1201.4881239027
1477.16209573802
1709.68548642017
1891.28136593793
2008.01595212441
2029.98204800346
1921.2652482312
1663.33917761346
1272.97884829075
800.688198245515
311.663257929323
-136.895893959374
-509.323183540301
-792.50319711276
-989.018063389878
-1108.81963095841
-1163.48076120218
-1164.40707507101
-1124.3310437699
-1059.46936299391
-988.937591020113
-930.102741975456
-892.545200246663
-875.303419740046
-869.589881783876
-864.558199692333
-851.817837842073
-826.868303147184
-789.016899426503
-741.584958109
-691.703377281605
-647.822775905836
-615.343846433865
-593.680035136074
-577.458445154099
-560.607596225821
-539.377826618081
-512.18327614842
-478.199108131521
-437.746898317281
-394.277139206874
-354.518209189257
-324.704897361784
-305.588475523206
-291.342624787686
-274.099436354306
-250.097587695822
-221.742775313334
-194.177394465751
-170.401435539252
-149.712858294004
-130.007776777958
-110.495360989402
-91.8788325831428
-74.6506232402238
-58.1789496326209
-41.6506372636644
-25.2830268151279
-10.0189203466557
3.8648030301522
17.3010908105443
31.3491975028102
45.8702484096696
59.6548772181478
71.8160978878404
82.6947634191266
93.2451247639534
103.827892010854
113.979249876402
123.326290890837
132.310027839424
141.707749104438
151.584894752372
161.058238598971
169.17802877125
175.805394361923
181.435973357139
186.330823595576
190.170840513747
192.669041411188
194.254407661835
195.842707693685
197.93388085498
200.181531998315
201.979475936259
203.30710894168
204.770934939584
206.841511537017
209.307256915407
211.636696362785
213.731192360879
216.052993646771
218.951562498121
222.065338085253
224.580525071282
226.03469055597
226.684939374117
227.047170655535
227.254060104309
227.036925863595
226.266093089889
225.260612732423
224.425284583745
223.689275136269
222.491025682963
220.348792364589
217.31830795568
213.814992571293
210.098880761728
206.103795708846
201.775091306924
197.385906852806
193.34794394465
189.730713580279
186.114028318147
181.987016374279
177.223540842927
172.09282748438
166.868882216836
161.579176219849
156.185553929589
150.886284694099
146.075172504625
141.970425118034
138.380329938949
134.907865809273
131.344847441402
127.791413833328
124.413012207841
121.195918951121
118.006825642707
114.818003710577
111.741764883489
108.803331036322
105.761230278917
102.240706921247
98.0456815672802
93.297906573764
88.291769697251
83.3049450305327
78.5961329560921
74.4950594759362
71.3271837349307
69.1557652371424
67.6293084009942
66.1468676122504
64.1723532706214
61.3545449643329
57.3925400453471
51.9511615463572
44.8662520091272
36.4445639470897
27.4432529538547
18.6502951961868
10.4857094217556
3.05220672775197
-3.47205969543615
-8.63102382370982
-11.9756969038258
-13.5122001078351
-13.757355461746
-13.3090832662345
-12.4289617578329
-11.1166825280765
-9.54857613833996
-8.30524268858001
-8.07382679220756
-9.14925999155409
-11.2934725247908
-14.0773994423649
-17.281710183331
-20.9269238370631
-24.9993269064063
-29.2924347018217
-33.5803884648069
-37.8845000783474
-42.4769156270665
-47.6057829107725
-53.2627468818142
-59.2285514902878
-65.2740106641605
-71.2401749048812
-76.9438343128495
-82.1195917604571
-86.5525051551047
-90.2651775465136
-93.5071525274548
-96.5219446374371
-99.3437867492492
-101.838588100286
-103.900203456379
-105.537633696096
-106.761455678753
-107.461492430227
-107.485426292571
-106.856961835751
-105.868684917588
-104.91673004806
-104.24596009327
-103.866646476663
-103.682550037476
-103.628226746384
-103.650703484449
-103.613622496376
-103.316854422494
-102.662067480492
-101.778055194269
-100.941778558576
-100.369022935557
-100.097747134122
-100.060943680267
-100.213248801777
-100.534646293564
-100.92583646219
-101.172455073381
-101.073074765577
-100.606053574789
-99.9391735039535
-99.2584453516107
-98.5950410306414
-97.8174262785489
-96.758277209025
-95.3127239828087
-93.4233595006263
-91.0311668176228
-88.1031516831163
-84.7218527440255
-81.1193106301404
-77.5939133432086
-74.3818161210706
-71.5914362926546
-69.2178183343615
-67.1715652645668
-65.2906490846683
-63.3820427706414
-61.3268057214378
-59.1795605635897
-57.1507775554758
-55.4646644165915
-54.2222019756
-53.3893027213973
-52.8743274545153
-52.5547243772169
-52.2029640102165
-51.4367438795006
-49.8394572318693
-47.2078361835576
-43.7043298899006
-39.7562105855255
-35.7986015672209
-32.1108026899153
-28.8637024481051
-26.2401744814937
-24.4205233416995
-23.4224720411737
-23.0005210686209
-22.7693398180864
-22.460708169344
-22.0601475008424
-21.6963208949335
-21.4238035802459
-21.1354680278916
-20.6665452659461
-19.9314564589591
-18.9274929454947
-17.6313371607719
-15.952304441307
-13.8233866176714
-11.3255877597737
-8.69104777069473
-6.17199741748439
-3.91130249039512
-1.92678824012557
-0.174525569016739
1.41647784801089
2.9621356549307
4.61087003661375
6.44754790299982
8.39139179245284
10.2130841299404
11.6765393358968
12.6650350670158
13.1701054575017
13.1912435572369
12.7018235963397
11.7388741468586
10.4915691038322
9.23638935009316
8.14839153268188
7.19018238935828
6.21828834759113
5.2062823926296
4.34728040532781
3.93253713367467
4.15117383360679
5.02472619842234
6.50576462727257
8.56671061322356
11.1342346579921
13.9447420153404
16.5279796652215
18.3993775904818
19.3065505944917
19.3127919125081
18.6790022790567
17.7049839388613
16.6806115689727
15.9154232073699
15.7058974592636
16.1989568349157
17.280162746804
18.6281446819532
19.9071917462645
20.923376654412
21.6222556846552
21.9875837998538
21.989225560971
21.6301580130698
20.9974969245678
20.2180393422028
19.3533638554566
18.3644685976064
17.2071549334098
15.9697084619682
14.9130483852373
14.3745946111919
14.625664973111
15.7883773129311
17.8299038395707
20.5816840338725
23.7513609661347
26.9525106261757
29.7836662701118
31.9385526873455
33.2927562448934
33.9289250653952
34.1000708956199
34.1448130508996
34.3692623590401
34.9307494935003
35.7846531052973
36.7342909494769
37.5492191050998
38.0636641372438
38.2017991310216
37.9622688785055
37.4229859997354
36.7616941077204
36.2210666611697
35.9854993031802
36.0502274487973
36.2081055558081
36.1803354737351
35.7778326459549
34.9627853213066
33.8027503327354
32.4180982654589
30.9872792604017
29.7543335182183
28.9508506541637
28.6537025080054
28.7099745232808
28.8188155986627
28.7049297655287
28.2358637701082
27.4197590461656
26.3551339977264
25.2182575877056
24.2666943829691
23.7744875497215
23.8954740053518
24.5701078771096
25.5766219563324
26.6804679168341
27.73894369438
28.6936099794987
29.5268400233851
30.2763820834817
31.0748084331813
32.0977150926433
33.4032907595309
34.8108470449122
35.9677698609827
36.5615811242641
36.4764387305559
35.7726127501901
34.583811609358
33.0990567942741
31.6302241978362
30.5933326077578
30.3054383189999
30.7479570469977
31.545768631723
32.2037487226252
32.3669830608758
31.8708500550134
30.6235615007733
28.560614504962
25.7717847563008
22.6132357636168
19.5762572520863
16.972705155223
14.7551683441623
12.6694135205942
10.5641829370852
8.51712985980636
6.68262592608303
5.1102460276844
3.78398963072302
2.80069648514137
2.38882963371544
2.6662081708644
3.39877322035768
4.07008496090056
4.22039722408477
3.70258263019673
2.62530996282301
1.14660610297339
-0.570726780162389
-2.21355135560711
-3.27661253033241
-3.32414126528325
-2.34181356385473
-0.78079563721673
0.783574715942937
2.00926376297272
2.78992442740535
2.9900506162992
2.33777109519053
0.673446225212311
-1.75399163905647
-4.3722091482169
-6.72902350538297
-8.80043289665933
-10.790451738837
-12.6449059403671
-13.8486012480201
-13.7454756798911
-12.0156408055353
-8.79503880608146
-4.39036129316706
0.973655670066118
7.02908384614244
13.1438335112423
18.2787735370726
21.3976316698732
21.991409394213
20.2613821181369
16.8787266200896
12.6270169802903
8.21704016015689
4.26130320242241
1.228872339627
-0.672652787761702
-1.56582003448331
-1.82489485852023
-1.90269775288927
-2.16257769551721
-2.73720730230638
-3.41676973016971
-3.66657038123787
-2.88780127428609
-0.821183970552116
2.23465332001771
5.61085783717629
8.67043856944313
10.9941956959326
12.1990900872466
11.7334211771888
9.06438216588842
4.16620870457596
-2.25823309060083
-9.18290694425545
-15.9384156162396
-22.4539803673965
-28.8307854691505
-34.792814714813
-39.6872033813513
-43.0162147716988
-44.8294356290211
-45.5019546097241
-45.2161810686752
-43.8408151898491
-41.3789366789618
-38.4042395706499
-35.8844881276663
-34.5331853572552
-34.3946647144383
-35.0550240971866
-36.1096215361807
-37.2873490917097
-38.1892118100407
-38.166897408786
-36.680285842245
-33.7881977550273
-30.1709284988112
-26.6149830431387
-23.5242826488536
-20.9402614081744
-18.8858208144903
-17.4840286737874
-16.6968163745765
-16.1107936072741
-15.1633273237783
-13.6080143956062
-11.6859784765667
-9.84636131290031
-8.41078066771504
-7.5460546910636
-7.3888046202544
-7.95472977054497
-8.89559498236306
-9.56764529146589
-9.52777962720036
-8.85975887309027
-7.74776842588877
-5.69415229677825
-1.51054289355002
5.49046684948269
14.2177308338915
22.0047199892441
26.3765502468534
26.6286673139805
23.5543656269567
17.7472793556287
8.54407600873503
-5.17030901191788
-23.3883136619771
-44.6282160464499
-67.169497519189
-90.2322698014977
-113.696266154034
-137.024184423955
-158.999294809329
-178.30145279018
-193.178822398653
-199.559321986821
-189.980023230702
-156.23543136828
-94.5445237239983
-7.58166012862182
100.608816034612
232.870470362247
400.673694007509
614.26231700234
868.363826141602
1137.56616217588
1387.75717343062
1593.79150726397
1745.87091454915
1837.87304102323
1850.46236373635
1749.714485528
1508.28631111306
1133.27288153328
675.708523157523
211.104347741514
-195.008624044596
-511.011018021085
-738.273201427818
-892.699036872709
-987.65035521612
-1030.37914814361
-1028.78956124585
-997.169603210952
-954.045371136956
-914.948225176536
-887.217631651838
-870.397072122938
-859.986523320533
-850.446047996508
-835.935103575897
-810.41585617986
-769.214958312925
-712.128967634522
-645.946908385723
-583.708791010089
-539.613940096116
-521.521368820432
-525.593568841731
-537.410282898558
-539.868506488428
-522.853312985824
-487.724695264688
-443.629561676497
-399.486155047507
-358.83996398217
-321.315819808359
-287.575572146132
-261.491999971907
-246.809957619296
-241.896729060261
-238.52392686771
-226.662097164576
-201.339613832925
-165.758643103497
-128.504243784376
-97.7445166987223
-77.023842609073
-64.8758980015251
-57.1588944745543
-49.758528698131
-40.2222538232893
-28.1546308153714
-14.6706221682563
-1.26397779222845
11.2923874313751
23.2511727978386
35.204662598239
47.1634412164116
58.405729236784
68.2387617073797
76.7838758129238
84.9111241994819
93.4608542762841
102.653240642829
112.226075853883
121.908476664389
131.536397845724
140.747196660097
148.840364500515
155.185039414076
159.791284315756
163.371498831199
166.788980649481
170.485790432573
174.43247788001
178.465254278256
182.470239340023
186.219376834856
189.228639933209
191.010013823995
191.532735461289
191.359104393324
191.258596640434
191.700224061203
192.718347281342
194.151282856711
195.832936617984
197.499746390236
198.662816385917
198.79930455104
197.786217967956
196.112519372897
194.592295705719
193.843683497338
194.021221955867
194.942394182361
196.305664455524
197.710414016294
198.578228684383
198.273946496235
196.457865774355
193.338318507011
189.537761823084
185.693702667956
182.16973233567
179.051827058428
176.250941450204
173.497044950929
170.297296519949
166.093940901037
160.628227561179
154.190576614221
147.47868517757
141.187672448141
135.725947687047
131.249950101374
127.809075797656
125.313974272674
123.374436022047
121.3292703689
118.607746598346
115.128719585314
111.322612694526
107.739440104585
104.638490871125
101.925088529
99.3688803105841
96.7549953373334
93.8127721758738
90.1405570556386
85.3854827983325
79.5862164072983
73.3088643576719
67.3774554506842
62.4229255078168
58.6373849596885
55.8506807783572
53.7070152990107
51.7219317005831
49.283287746427
45.8045489291313
41.0375534357908
35.277477498639
29.2263687705595
23.6079737524907
18.8554586488479
15.0642327635907
12.1035535688433
9.68586383494567
7.3759529910028
4.69022692680135
1.34120237303895
-2.54943106995612
-6.491248496065
-9.91513890683665
-12.4762869280741
-14.162249863984
-15.2242851550062
-16.0817421873604
-17.2556975720962
-19.2490523630424
-22.3286201709615
-26.3361847072656
-30.7134939940719
-34.7614760407962
-37.9479739667799
-40.0682483297192
-41.2377461790668
-41.8268733041815
-42.393014550284
-43.5490390318971
-45.7288131079035
-48.960860623827
-52.8331919065603
-56.7005321139679
-59.9836884466006
-62.3651699846548
-63.826397156403
-64.6088705901666
-65.1600940471875
-66.0215707493698
-67.6153073456383
-70.0149225396249
-72.8745396588226
-75.5927179754158
-77.5975687660612
-78.5634661377578
-78.4768522648411
-77.6075386968597
-76.450306961426
-75.6134178367538
-75.6110465527289
-76.6229640921516
-78.3811166798078
-80.2826855536798
-81.6574243312882
-82.0184546830734
-81.1913501924011
-79.3383244283189
-76.9221769324007
-74.5944342286098
-72.9798217391837
-72.4234242077044
-72.853147727972
-73.8533378005664
-74.8836467580658
-75.4867581057491
-75.3990108884295
-74.5976942556867
-73.3280758650133
-72.0617518178395
-71.3105254453998
-71.3433680721262
-71.9973170928963
-72.7422762440773
-72.9544023753865
-72.1882886511717
-70.2888271475606
-67.3699396526495
-63.7793467092725
-60.0755370614088
-56.9206815833018
-54.8332361731636
-53.9195033364469
-53.7961531110304
-53.7900295249435
-53.2776932391738
-51.9383962855056
-49.8125467360069
-47.2264604934157
-44.683992042032
-42.7429390125996
-41.840680458633
-42.0941381520936
-43.1887103336228
-44.4575844042766
-45.1309157744702
-44.6249450163268
-42.7396945726068
-39.7103081502423
-36.1213866225166
-32.7152900864201
-30.1439992348378
-28.7499460428466
-28.4706235552615
-28.9043083288086
-29.4867882668462
-29.6907263753508
-29.1903052174103
-27.9716005446066
-26.3606382585079
-24.921898003953
-24.2237828559156
-24.5689212405558
-25.843689481763
-27.5739267622937
-29.134259902129
-29.9784388911078
-29.7970015277565
-28.5921472819118
-26.6849241017592
-24.6362159385358
-23.0593692992478
-22.3730882992576
-22.617847146565
-23.440261751075
-24.2428673832933
-24.4064310508338
-23.492643896938
-21.3869718863892
-18.3608212669773
-15.0130057557931
-12.0673904710715
-10.0915985975929
-9.28332073747148
-9.44199102521441
-10.1132781248518
-10.7886939023771
-11.0594918963302
-10.714895486523
-9.81372329000329
-8.70613516111919
-7.93405919410652
-7.99508270530454
-9.07963916408887
-10.9469822642738
-13.0179465961739
-14.6132015387688
-15.1945348447547
-14.5142380002089
-12.6596822406143
-10.0097550263203
-7.10818200007867
-4.47190517323739
-2.40131435935852
-0.880340989668229
0.394255154924021
1.88844126694337
4.06903812470848
7.23519312836738
11.3664347707346
16.0529707792287
20.5954397767919
24.2792961400124
26.6829955786386
27.8199890189797
28.0324996940767
27.7514489326362
27.3149474252117
26.9249740420888
26.6594663125638
26.4374109812142
25.9712227615863
24.8480936954558
22.7975774546239
19.992415894437
17.1279471311702
15.1702577667582
14.929737111455
16.7444393974727
20.4307069038442
25.4248837934315
30.9412297959961
36.0783173305208
39.9561791464291
41.9614143584423
42.0153487097814
40.6572308131503
38.8190561276228
37.4043355252144
36.9402015811477
37.4940918620493
38.8180884386434
40.5374512472708
42.2602448504338
43.6432916413498
44.5014297465491
44.935645262741
45.3375276427393
46.1801201114901
47.7029553458291
49.7277034551699
51.7442384774661
53.1769662126351
53.6191526136211
52.9209467041986
51.1918896434498
48.8139744915647
46.4347467651743
44.8179796885411
44.5311313200521
45.6488561419323
47.703696765224
49.9270052979565
51.5865073730637
52.195315931427
51.5520733186403
49.7341398445011
47.1174391008804
44.3344783661391
42.0557277141882
40.6599063214277
40.0326443659929
39.6665747590146
38.9769687340231
37.5788023361658
35.3688606716061
32.4781564740878
29.234142281644
26.1404439608436
23.7584053442401
22.4536737139505
22.1650852950599
22.4040473758449
22.5086124049291
21.9570918261189
20.5339277003791
18.3222438601513
15.6371948787431
12.964657368594
10.8488703574508
9.6826265879262
9.49702523458397
9.92360757969972
10.3823928231978
10.3602497581726
9.60171339695753
8.16366914977258
6.3987192870901
4.89489446096841
4.31264448642616
5.10461587000538
7.26238170819717
10.2894064751651
13.4311579590374
15.9726331401419
17.40290109045
17.4498043844918
16.1295348428131
13.8421263524341
11.3401122080332
9.42414606894392
8.50979755117543
8.42013332739322
8.58965344032699
8.47128695717252
7.77277190346417
6.40407380826689
4.36897858623967
1.83947147667295
-0.683890846106819
-2.4431383039067
-2.8258964357813
-1.785974005008
0.124798097716507
2.14525028835135
3.73168980980868
4.66367194176989
4.8732861449888
4.32245714196992
3.09338774132745
1.50733829898331
0.0145242673168617
-1.11048212812677
-1.96138083409168
-2.86719459049591
-4.05637283537392
-5.41719486331498
-6.5041671365507
-6.70090292632171
-5.40248188715563
-2.19186517137733
2.97730653500433
9.67357701349765
17.0724700453677
24.2030125499367
30.1734664852837
34.267914271361
36.0226626237416
35.419951866888
33.0745387968192
30.0867383315807
27.4668112712475
25.5304974806964
23.8180372339765
21.6132559150218
18.5234841616263
14.5625479981182
9.81321539879781
4.26505429738534
-1.84047681144053
-7.57212838204894
-11.4683484570546
-12.3714857688048
-10.2042006423564
-5.93960432992664
-0.854222670264435
4.13187419336534
8.45655502460308
11.5367359362865
12.6935689763709
11.5686203555704
8.49996700249346
4.31691748315699
-0.293641382792984
-5.19021193169818
-10.5896371809331
-16.6154429303616
-23.1126959495636
-29.8052803102263
-36.4301952969489
-42.6338521783626
-47.8732009137322
-51.6266126089863
-53.7721498308045
-54.6779871467734
-54.8609575477264
-54.6171062865894
-54.0503759696257
-53.3570398436989
-52.8433919883765
-52.5349250339626
-51.8994819172054
-50.2071453297578
-47.2730737934623
-43.7540208624979
-40.6155065469331
-38.3667290491952
-36.924226714667
-36.1345644592021
-36.1254997958606
-36.9226968469587
-37.8496262183344
-37.6669897850378
-35.5255881580314
-31.6942100284685
-27.190679233659
-22.7830156632376
-18.6253853137299
-14.9331935079956
-12.6380469690612
-12.871492490569
-15.6817631578805
-19.616730098204
-22.9468218065961
-25.2309096820533
-27.2813069387964
-29.4208996794384
-30.1456939210014
-27.0721064689814
-19.3972499106391
-9.14885397030247
0.277405545401223
6.72170667484539
10.1636583836954
11.165583213555
9.00715191974035
1.874302088626
-11.2084125932357
-29.1937346048525
-50.0542761835632
-72.684124412074
-97.2750192798182
-123.856508688416
-151.081253319949
-176.840425164469
-199.538309401306
-217.637100685346
-227.390216005109
-221.743032614429
-192.860537668218
-136.467171767852
-53.1074116450878
56.0031126440734
194.584617219248
371.391521072915
592.429287679727
851.243646870732
1126.54716154347
1390.37936470572
1619.83581491717
1801.33824810054
1923.28911501379
1964.89725231223
1894.54995274326
1684.14333103814
1331.49370216939
873.745707598481
379.268622792161
-78.9963653384703
-451.808176171916
-725.645569057672
-913.428873362424
-1034.68412605056
-1101.60802705726
-1119.29910489241
-1094.79802224051
-1043.11123486769
-983.877305910817
-932.802944627865
-896.485928701443
-874.182968857313
-862.306313449439
-855.905672179734
-847.069064594982
-825.411456059324
-783.753218160159
-724.958923977588
-662.484064754053
-612.305135103926
-582.480171334284
-569.186886717272
-561.774028161438
-551.006164822968
-533.038978483436
-507.590220086379
-474.888274282303
-435.666968762385
-393.261980286751
-353.743119649879
-322.615078265316
-301.18273978792
-286.308561204147
-273.394893550966
-259.078013853569
-241.345907916689
-218.560338623677
-190.036652980657
-157.969062990847
-127.653274733642
-104.307296587643
-88.9920154756537
-77.8791091227237
-65.8574943433961
-50.8165607391636
-34.3546418588711
-18.7894508207064
-4.28857423377704
10.7743316818232
27.2578290854069
43.9202393840287
58.8155029417991
71.4229643707604
82.8538508592459
94.1539115822039
105.083930777767
114.875050482393
123.726925398824
132.889857314686
143.14529932086
153.666206970558
162.766543560137
169.632117566315
174.93642243584
179.750263453353
184.300910355221
188.151314030934
191.361391868107
194.88477044307
199.540320625252
204.87214084149
209.436165076509
212.240703967423
213.609879001787
214.518214990031
215.39802384525
215.99021069264
216.308131874933
217.249076999672
219.854485767244
224.055298030743
228.508438933704
231.807645708062
233.646194246507
234.613987658117
235.057357128634
234.546981456351
232.589261865378
229.530969710724
226.360116866633
223.585503988284
220.620122139653
216.481431337525
210.967013940167
204.90267331295
199.266582144905
194.363506911141
190.016749604405
186.326122744707
183.817476003834
182.699684965599
182.215614648622
181.024606558205
178.258775982854
174.058146233404
169.077351885932
163.728456884309
158.123078897202
152.614499850292
147.989620716574
144.859041029338
142.945317621323
141.208506628476
138.736211965547
135.388254573285
131.539927329839
127.418508173119
122.955407498357
118.260936279113
113.913496921344
110.491006974797
107.8411545612
105.036209689164
101.152062266526
95.9888117349693
89.9491329267537
83.3731228256119
76.2674116009432
68.7395546236226
61.4226490912962
55.1439446583319
50.1156570174344
45.6441942260762
40.7840736984583
35.2130920560166
29.3548699637465
23.7369362837696
18.4903155319646
13.5975153988361
9.41987664371162
6.63276531351244
5.50533127477789
5.40126030632698
5.18600858766135
4.12851123130405
2.29688969213816
0.116076868590667
-2.2095642044123
-4.64648218160627
-6.84172343841308
-8.0373105910497
-7.70719611052056
-6.21782166425999
-4.67024742165396
-4.0386259896692
-4.5582508039679
-5.96597586024245
-8.1267763194847
-11.1756660109799
-15.0506849144833
-19.1666275473347
-22.8139290232474
-25.8853406737502
-29.0375746775737
-33.0488642614345
-38.0982998697836
-43.7397854552516
-49.4506736522029
-54.981157940373
-60.1282293632035
-64.4127853516315
-67.2802082620189
-68.6937347956816
-69.3752804916878
-70.3163411711366
-72.0653581587752
-74.5452250042954
-77.4592491142957
-80.6385806036129
-83.8861012697757
-86.6658973457869
-88.2662878739908
-88.4259865340269
-87.7095334560532
-87.1203096571334
-87.329858849741
-88.3429452769008
-89.8451527504193
-91.6474928328059
-93.6268791896187
-95.345462700379
-96.0396410219557
-95.201165740826
-93.1382678959139
-90.8210228023769
-89.1284358100015
-88.2993460720837
-88.085732833895
-88.2347606126502
-88.6151367396931
-88.9110176170494
-88.4741698716708
-86.7406024751054
-83.8275419783006
-80.5953171157569
-78.0487613566279
-76.7124217222037
-76.5757629960515
-77.455703403193
-79.1661677218436
-81.2911985140529
-83.0260381550989
-83.5338810151149
-82.5628512537571
-80.6296408680629
-78.5278123205776
-76.7043527039901
-75.1548710552005
-73.7892161841019
-72.6456549632041
-71.6334193723432
-70.2299798321255
-67.7143199131674
-63.8316707127398
-59.1519560371501
-54.6672529069233
-51.0509633388738
-48.3648724742921
-46.3985014912385
-45.0526792063195
-44.2314708228324
-43.4757414109517
-42.0016637436164
-39.300628596623
-35.6719373465414
-32.0454742630253
-29.2604347373337
-27.5757798634731
-26.8361056746672
-26.8889518055304
-27.6264329110177
-28.657045512803
-29.2130700162525
-28.6335646738683
-26.971220487415
-25.0136560014293
-23.6579247222658
-23.3143339636036
-23.9082067426408
-25.2672898033847
-27.2632049937113
-29.540397974161
-31.3447483990094
-31.9047785891273
-31.0730426591657
-29.500312312308
-28.1039167683833
-27.4034311769862
-27.3958081656828
-27.9197401370154
-28.8757488473958
-29.980208905589
-30.488995325483
-29.4767652573254
-26.5557643317637
-22.2732704906375
-17.7140570871331
-13.728975863178
-10.592454092728
-8.29614978095919
-6.90313787491714
-6.42169125303879
-6.42063620194347
-6.05239741060393
-4.66200339648316
-2.370815510459
0.0253450704777727
1.72823039558904
2.44330741274337
2.2805229755294
1.39163390351972
-0.0748701864657217
-1.68768444495613
-2.65910559245461
-2.29469362452811
-0.557360116560531
1.89645316070606
4.26278123116994
6.11411179156677
7.40646190514852
8.1711656901738
8.43728059598057
8.48997371468274
8.98790548881238
10.5723597281618
13.2860736692088
16.4574797806631
19.2095561071366
21.0412334519024
21.9159759138162
21.9670796794344
21.3761733662425
20.6125975840162
20.5739099942747
22.1768319954876
25.6607969846776
30.339538837443
35.0901560056414
39.0321656336998
41.6966564083781
42.7141473793569
41.6875602067587
38.5998938173342
34.2501314942755
29.9944957056218
26.8660051083665
24.9677672903496
23.7888780116226
23.0240159229376
22.9153809964668
23.7911825764435
25.5092591844828
27.5991779905954
29.9287403104626
32.9681728013604
37.1896731949408
42.2521523132614
46.9589280425029
50.0902281609617
51.2037543895942
50.607179405609
48.7462335182224
45.8802774505132
42.3824242240592
39.0744670439699
36.9298980384523
36.3371509788348
36.7601911492932
37.2103261527105
37.0015552354259
36.0071734266017
34.3446817212704
32.1122801665266
29.5796748493266
27.4598850095449
26.6641611384802
27.6113476552719
29.8331727287368
32.3573293861833
34.4531392981432
35.9384062187896
36.8596062909708
37.1508815100047
36.8078397066107
36.2983817121467
36.4956383761938
37.984424408617
40.4448293615095
42.824991184277
44.1292924830956
43.9775352712132
42.4628309567437
39.7294851861793
35.9405882226804
31.6317363094741
27.8042397228337
25.3908148203956
24.5698936108951
24.6839016873261
24.8411552118462
24.5154758710973
23.5735175166785
21.9552160063556
19.6259219053646
16.908415558948
14.6322070643043
13.672215173543
14.2508293281395
15.769145680659
17.3495343430367
18.4457206990984
18.8815272434195
18.4907702976193
17.0460333480373
14.6822417728086
12.2062679134338
10.690417148098
10.6448670811337
11.6842678761905
13.0742332671829
14.4900953883087
16.0987976628938
17.9877976204343
19.8212735376848
21.260713987782
22.5799400555582
24.5210785511475
27.3617487142792
30.2476728555835
31.654610259208
30.5411832494811
26.9521922163023
21.5449733867326
14.8336356212941
7.19325175376091
-0.460188531659028
-6.4164852284434
-9.00189855109339
-7.77295358093403
-3.79457245999257
1.27993999185111
6.28433991633161
10.6960147340429
14.0320533059452
15.5421553146576
14.7215690050795
11.969509210466
8.44214940709459
5.13768300690367
2.20978253611684
-0.782094376974687
-4.10199293823518
-7.48537734487124
-10.4805322519601
-12.8642835724379
-14.5502108402396
-15.2226973216383
-14.3492992690492
-11.6820116223038
-7.63533825323533
-3.0401694909939
1.43337535392855
5.50509655100389
9.02393171358593
11.7625440011293
13.6695249512909
15.2049687572805
17.106647120265
19.6400388549287
22.1698901308357
23.6337287812738
23.4290224454144
21.7167031343721
18.9035551093412
15.1309679474256
10.5452538337783
5.98031053465644
2.9657386018861
2.71926847979684
5.11198052958285
8.77771150813275
12.2514912889011
14.8463485161594
16.4005963031177
16.5034605664526
14.4296947130995
9.98165267059414
4.11251756894569
-1.64626601980467
-6.45141036006578
-10.6945260730538
-15.2636357668498
-20.4890263013851
-26.0142797661229
-31.5437759397138
-37.2911280430052
-43.4551250708644
-49.4664077915803
-54.1505120711579
-56.7732738224852
-57.7331463625505
-58.0584384545613
-58.3633590872948
-58.5480499820053
-58.4690259987785
-58.489031376162
-59.0241864993265
-59.6711819362819
-59.2177585107527
-56.765299267555
-52.6910454408298
-48.269220692777
-44.4151259674019
-41.0908846854838
-37.9926321440821
-35.4290691648886
-34.079156752604
-33.8984796669544
-33.7089090435442
-32.2031563190488
-29.2327056069984
-25.8140588711589
-22.9192259767025
-20.6632591342943
-18.8692577612995
-18.0146840510046
-18.9744901504082
-21.6918403523371
-24.6218281137275
-25.9972443147571
-25.4939697061843
-24.0737421653058
-22.0497582953808
-17.9838278543399
-10.2991549699368
0.0231792892899279
9.17159537003727
13.5843485852612
13.1003479481644
10.4030838336743
7.26478720730135
2.10164425631429
-8.07652400008228
-23.6654686162061
-41.5174603696497
-58.5548243577814
-75.727130891039
-97.3844205330575
-126.542732711338
-161.397716594222
-196.654992303862
-227.09361051851
-248.307502821695
-254.163340934075
-236.044285152932
-187.37004035014
-109.196694267141
-8.89465167486014
109.385138839189
252.966195480259
436.67149303346
667.609633228833
932.992702879258
1204.1253777544
1453.41216608362
1666.77399521642
1837.9317901605
1950.67863164189
1969.85221430016
1854.88803264252
1587.68573841391
1191.50508232619
724.768235833987
255.240682723918
-165.275991510635
-510.284584187264
-772.755331247482
-955.494220595961
-1066.1492314327
-1116.16616630813
-1119.19314879061
-1088.19827317227
-1034.56949773633
-970.555766953088
-911.28321901834
-871.580012882258
-858.217807408222
-864.144466437733
-870.954489484697
-859.178306605314
-819.511978912007
-757.640517113974
-690.338519743993
-636.096345677026
-605.806761834512
-598.028772840002
-600.771942264667
-598.651136478104
-581.31603480948
-547.962695227421
-505.224928373325
-460.779559469837
-418.367292847384
-378.135222241556
-340.694025278239
-309.594146278523
-288.951603576525
-278.545024882209
-271.833012442312
-259.627392221927
-236.502041066413
-204.326441262384
-170.142650885416
-140.751787026377
-118.708063792283
-102.259100848684
-88.0058704819152
-73.4271984709506
-57.6857573568573
-41.1346684395598
-24.5948043430352
-8.85053735663685
5.72561753000403
19.3587782891822
32.6089307006147
45.7588912923414
58.4535686663074
70.039082943779
80.2841292109239
89.7030061077331
99.1409865786045
109.106310213381
119.549962297473
130.193240483946
140.874709903716
151.488134338995
161.702959315321
170.962728973084
178.875743647824
185.573960179853
191.617196211855
197.538750024369
203.503784534939
209.351965708591
214.83105161299
219.69179565851
223.615554796051
226.226088778915
227.3167707055
227.090493818711
226.128817157924
225.093503722043
224.445007865414
224.389264405278
224.962702530788
226.044750005011
227.284837443787
228.143510340238
228.154791185094
227.222065593436
225.656081721958
223.912635826112
222.296854076291
220.895482305002
219.699553479429
218.67241865107
217.654446232255
216.276881667026
214.099130992688
210.916033072412
206.940369511712
202.664449509062
198.536350439253
194.758609509402
191.339364502701
188.234504069521
185.368517985954
182.544050574068
179.436637247076
175.776154178258
171.564748603092
167.097515059372
162.748189894536
158.72269771699
154.988823951745
151.377361449689
147.689657152925
143.713731986464
139.221509613406
134.054090313873
128.261653685481
122.148154420125
116.143060701402
110.598358512044
105.671892750285
101.342118099826
97.4658347886634
93.8051783468041
90.0651663415629
86.0130778046323
81.6355182101022
77.1846270942096
73.0360328867793
69.4673459256246
66.5428496765812
64.1580497194438
62.1212317257691
60.1515883078569
57.8445803807794
54.7560356028352
50.6301200608224
45.586951721189
40.0694189403882
34.5772347575617
29.4305106647683
24.7482839283888
20.5699380890541
16.9067064250159
13.6537659886962
10.5244831455779
7.1758325433383
3.45379701848526
-0.496279569747664
-4.38797076521804
-8.05878671519969
-11.5682800226461
-15.0640124825223
-18.6185739802547
-22.2382623890321
-25.9870161379608
-29.9993324013913
-34.3009245836324
-38.6332044032602
-42.5234322857173
-45.5785106272633
-47.7230701662276
-49.1678402228443
-50.1998280517225
-51.0552586347046
-51.9745735388726
-53.2726954328187
-55.2372648647808
-57.9154008753235
-61.0365182046796
-64.1925265968166
-67.108543335639
-69.7462268097997
-72.1938181270673
-74.5347411037044
-76.8547914066079
-79.3132368334934
-82.0954670570442
-85.2344605602206
-88.5044632743487
-91.5479188243063
-94.1282692269589
-96.2462436644459
-98.0213158031484
-99.5190815336019
-100.743340164842
-101.763790869125
-102.746561317065
-103.773012400605
-104.630049683479
-104.8442615723
-103.978035549353
-101.909476753356
-98.8411542571076
-95.0925036006667
-90.944977661481
-86.6804402455801
-82.6713946425547
-79.3150137527954
-76.8253702040551
-75.1087365245244
-73.8708008251848
-72.8444393513838
-71.9133270566288
-71.0652779734145
-70.3124482982468
-69.7018931386857
-69.358442690919
-69.4262508942735
-69.9187163415784
-70.6452813758808
-71.3217736857116
-71.7529229745796
-71.8893620108618
-71.7282620754541
-71.2278734100461
-70.3701274526683
-69.2779059504501
-68.1866562425794
-67.2447544576933
-66.3548255047706
-65.249110652054
-63.7222315936374
-61.7630834633935
-59.4671406417577
-56.8885736110459
-54.0449926185926
-51.0515149002238
-48.1581693388572
-45.5784464141423
-43.2863994698236
-41.0367075634811
-38.6057270878396
-35.982472721128
-33.307702672569
-30.6827305595895
-28.1266139332937
-25.7418798490409
-23.8402679108556
-22.7965323693807
-22.7386075195256
-23.4151318906957
-24.3970546416891
-25.3873172765762
-26.3063097245297
-27.1170080506181
-27.6707880383603
-27.7955909871975
-27.5052420096681
-27.0343433554653
-26.6196886316611
-26.2699657143475
-25.7783739339192
-24.9335179764525
-23.6656098906391
-21.9937145626872
-19.9173554408636
-17.4444236287306
-14.7193143146182
-12.0431364329356
-9.70931514951551
-7.83361953345416
-6.3785417466037
-5.31783358175705
-4.70202667883532
-4.53102728706453
-4.62505392773301
-4.71296868924987
-4.66720986025728
-4.58910722257757
-4.61074237017987
-4.64373482264948
-4.39510335824023
-3.64596089636075
-2.45462652626333
-1.0385824257193
0.499122534683096
2.23442103830077
4.19211842380985
6.13559211975987
7.68587281686296
8.66283362370003
9.24602180519131
9.76550061516641
10.3860410687377
11.0606914395384
11.7626552137354
12.6412863970286
13.8637978771425
15.3425598756197
16.7255674353151
17.7023150847856
18.2698835211924
18.648923322204
18.9809776440328
19.2018493586642
19.2306214284485
19.1837353302434
19.2914669114477
19.6040151898277
19.8790348701521
19.8271526872963
19.4298690820367
18.9430554228782
18.5985530531817
18.3957723399124
18.2365609435447
18.1852773479646
18.4618661483811
19.1392022353252
19.9393497251907
20.4338894519649
20.4466541447094
20.1882555780334
19.9810789787171
19.9435656317811
20.0326474183549
20.3529648272888
21.2727870503674
23.1291801826124
25.8516621109993
28.972088702936
32.0276941901521
34.8877859909511
37.6481997475645
40.2873180884107
42.5550996085057
44.229544617523
45.3802242274508
46.2732989534659
47.0302472719779
47.4766609578769
47.3670834982389
46.6878396797902
45.659808199901
44.4757829473532
43.1486753195906
41.6652958562194
40.198120740242
39.0375391152152
38.2982605160515
37.7906048818024
37.2553333674754
36.6795327521133
36.2887012931912
36.2294035613196
36.369315692408
36.4874914062971
36.5959945028893
36.9340813188804
37.5976988947169
38.2715119414375
38.4413972482791
37.8687370261819
36.7670594376418
35.4882679180597
34.1368595632259
32.5977983935524
30.9015795484326
29.3954489194844
28.4425281923535
28.0040700151841
27.6423912002154
26.9651585292261
25.9812348775719
24.9657080247194
24.0638612418728
23.1725589253628
22.2290807086315
21.4674095553379
21.236057506691
21.5682328729511
22.057729258829
22.2272483390888
21.9505277077857
21.4270755003632
20.7935052374227
19.9179043782318
18.6533056280096
17.1847674367101
15.951766436844
15.1810698682129
14.6013396077902
13.7134044863814
12.3006593362169
10.5729922165804
8.81804391609669
7.05269257453116
5.12251458407708
3.06939849322625
1.22381881481247
-0.140683643487531
-1.14710004917803
-2.1910088566565
-3.49264780193399
-4.87228580709444
-5.97579746230096
-6.57800139182099
-6.53594766963096
-5.52139780345348
-3.0405778063616
1.11561512017109
6.48883593929817
12.1530193759139
17.3122176643646
21.6003971568531
24.7796456916202
26.3530676461209
25.755540426146
23.0027564787045
18.9681526274773
14.8073398530013
11.0941471611558
7.64290084666099
4.18417845486742
1.01399506390049
-1.21448157790638
-2.27711791247931
-2.70074729124682
-3.15693262392045
-3.6604295496669
-3.58353586080471
-2.48235331888093
-0.710642892211022
0.925147558653062
2.00266696572651
2.75623670609717
3.50215117088986
4.03716665334369
3.82394095690398
2.69529804393565
1.10228326417479
-0.459824920827927
-2.10365046429385
-4.41430475581632
-7.701507795678
-11.6311919625773
-15.7167636355556
-19.9805336574228
-24.8456942898649
-30.3596961582383
-35.8051771146633
-40.3080655853208
-43.7360569709142
-46.733316775387
-49.8095110269249
-52.6328219582608
-54.4367558720021
-55.0066158651713
-54.9403702678165
-54.8218341165207
-54.3955440365346
-52.8740625165518
-50.0392082533442
-46.7241062099426
-44.0202700554624
-42.1910051046334
-40.6494183358813
-38.9605703937447
-37.483685710538
-36.7733305653861
-36.5643984681757
-35.793300405334
-33.759303959463
-30.9555528446999
-28.4388271028952
-26.5089904228254
-24.440182688295
-21.6712599143277
-18.8889128159645
-17.4605965107711
-17.8082493824199
-18.8308050850353
-19.2843596017229
-19.4866641972157
-21.0877867490606
-24.9229620765233
-29.4212508586686
-31.5756288635611
-29.5315940173829
-23.9723444733077
-16.9491780050907
-9.81314518762736
-2.81302864116219
3.25103687441589
5.4555063317618
-0.672003563656432
-18.6994751403076
-48.9861293057454
-88.078729574863
-129.805915920515
-167.279567081912
-195.052611447007
-210.50732862969
-213.3600105403
-203.343228242041
-178.387283955077
-136.014048148873
-77.1812855662574
-7.52725842224832
68.1252922345364
154.744549028614
269.717746326734
432.669504424778
648.571852587564
899.404497542818
1153.5965258618
1385.01529734231
1582.31921378249
1738.50853989768
1832.05532191694
1822.48528939837
1670.84809779026
1370.29617779062
959.746579969804
507.560404469736
78.6491849562546
-288.82841848699
-583.215074140744
-804.264561855696
-951.87439927445
-1027.31159800622
-1039.84981837218
-1007.75278149059
-951.901112322457
-889.55502005479
-833.874210768428
-795.988632607688
-782.991074200368
-791.74926911148
-806.295815866363
-805.135891270834
-774.789657134555
-718.503025974733
-652.818401819375
-595.653713198776
-556.237789434524
-533.652047000781
-521.958088471706
-515.284976754249
-509.028110013508
-498.620716852605
-479.21817899175
-447.443071307738
-403.735574775926
-353.441895558583
-305.776889326284
-270.611744874372
-253.810326005425
-253.293288872572
-258.9837132283
-258.025279710357
-242.417186029735
-213.387608092656
-179.03156774704
-147.543377898985
-122.090568038617
-101.170451924588
-82.6202211009415
-66.3814127089343
-53.5169038809495
-43.558787839066
-33.7691593520755
-21.1568435322173
-4.8434248176669
13.6564821247264
32.0288750002471
48.6130990217599
62.5960464497984
73.6825647771216
82.2252784341263
89.4850772712316
97.0510103275278
105.563838113546
114.164661820338
121.529255186048
127.437566178322
133.037582576901
139.466737605214
146.49740570947
152.846447453371
157.736271930558
161.786665690326
166.217484613593
171.456170666395
176.888488837909
181.928488242139
186.892355310798
192.497359821426
198.658616572431
204.190085165773
207.857030815327
209.517368111893
210.020189362244
210.119004896812
209.816434023848
208.852153272494
207.499432315762
206.492897689199
206.15077038683
205.876016094574
204.743258478394
202.471654714299
199.615313301524
196.849653360134
194.367563202194
192.134764296578
190.506091147376
190.189158134705
191.454632102336
193.588031614403
195.356023442668
195.983687705248
195.492101627172
194.089964060637
191.535726500827
187.371937380723
181.708424918137
175.435878009794
169.465856500494
163.892534963352
158.132122262313
151.872120767347
145.631384608015
140.237516723295
135.917155026546
132.163043741873
128.491491665261
125.024104916194
122.074235745685
119.272336609525
115.443042005725
109.535613441351
101.566837707867
92.4953289314171
83.2649168459846
74.2370118036637
65.6292460443992
58.2013678109798
53.0854314467969
50.7976590120056
50.6085050357712
51.0926197427769
51.2640835665807
51.0211757795503
50.5274523206427
49.4700367885547
47.1977892225582
43.524602383035
39.0894179277355
34.7373067060458
30.6572535583556
26.3347277776627
21.3538300098008
16.0421568026397
11.200877535845
7.3305123662315
4.33453283565129
1.97647746451105
0.364417443457711
-0.249328643407914
-0.0982858547577905
-0.0876791778161348
-1.19911260462187
-3.75547558646719
-7.34517105958407
-11.3785945968819
-15.5360200219176
-19.6485758920699
-23.3776473256122
-26.2969841033921
-28.3528082271948
-30.0762543266291
-32.183898761108
-34.9778751110483
-38.206205864987
-41.4426496742213
-44.4115020656483
-46.8593167903787
-48.29120004424
-48.1346873089118
-46.302534430801
-43.4910493861505
-40.7686789550138
-38.8525963321937
-37.8520574354593
-37.6625470819546
-38.3860054344927
-40.183540359608
-42.7923831886965
-45.4569667893464
-47.5225608709542
-49.0503551895354
