Value(bpm)
63.2098765432099
63.1604655102631
63.1118307285321
63.0646668093916
63.019664350036
62.9775103398104
62.9388887151777
62.9044810617696
62.8749674625432
62.851027491778
62.8333413554851
62.8225911797748
62.819462449841
62.8246456034702
62.8388377843966
62.8627447623915
62.8970830287375
62.9425820776948
62.9999868867557
63.0700606109367
63.1535875091046
63.2513321393534
63.3624319423374
63.4839066492485
63.6126023411214
63.7453192961596
63.8788060469415
64.0097566615293
64.1348113881975
64.250560809039
64.3535536382119
64.4403082749212
64.5073281784307
64.5511210719427
64.5682219041048
64.5552194021075
64.5090082396469
64.4310203220217
64.3268347312478
64.2021853714007
64.062767184791
63.9142056008637
63.7620361815457
63.6116941682906
63.4685135260587
63.3377350416504
63.2245230625745
63.1339905523676
63.0712322844691
63.0413661970917
63.0495831867776
63.1011428166097
63.1970669682717
63.3312690197396
63.4970294571605
63.6875907620131
63.8960954111227
64.1155379128698
64.3387313292678
64.5582891148197
64.7666233557166
64.955960601625
65.1183764269213
65.2458496177242
65.3303364380065
65.3638647739199
65.3391807443801
65.2565645724608
65.1217889754317
64.9409184236879
64.7201052886928
64.4655117425
64.1832431022659
63.8792931124948
63.5595011865556
63.2295212541813
62.8948015856186
62.5605747816321
62.2318570229077
61.91345565126
61.6099841962394
61.3258840525713
61.0646248218561
60.8259835303604
60.6087977922576
60.4119738978322
60.2344799033253
60.0753393503341
59.9336255657313
59.8084564754036
59.6989898739892
59.6044191004342
59.5239690758008
59.4568926654882
59.402467333021
59.3599920569252
59.328784486038
59.3081783119764
59.2973893672084
59.2946125869801
59.2975635679866
59.3039584893207
59.3115134657709
59.3179427740439
59.3209588392738
59.318273984928
59.3076039464065
59.2866731401113
59.2532216655863
59.2050139986175
59.1398493082468
59.0555733009332
58.9500914612934
58.8213835219028
58.6675991324245
58.4894999235849
58.2908298200942
58.0754554573316
57.8471715924246
57.6096831248191
57.3665922353784
57.1213903718552
56.8774547574432
56.6380490743083
56.4063279723396
56.1853450715426
55.9780641613876
55.7873733492942
55.6161019711039
55.4670401473744
55.3429609499129
55.2466450098441
55.1798141360236
55.1406352740369
55.1266206127078
55.1353607387113
55.1645037429763
55.2117367471307
55.2747696262216
55.3513207683561
55.4391047668445
55.5358219873419
55.6391499923354
55.7467368386674
55.8561962908399
55.9651050135516
56.0710018210098
56.1713890675776
56.2637362637363
56.345957769609
56.4178458153952
56.4796764993718
56.5317398727923
56.5743388732564
56.6077882551333
56.6324135236261
56.6485498787076
56.6565411747767
56.6567389014669
56.6495011906001
56.6351918538294
56.6141794550497
56.5868364211954
56.5535381945818
56.5146624294944
56.4705882352941
56.421918915716
56.3701483252993
56.3169835218455
56.2641192514107
56.2132376471358
56.16600893956
56.124093159655
56.0891428188989
56.0628065562018
56.0467337493664
56.042580099004
56.052014205484
56.0767251747019
56.118431306425
56.1788899400503
56.2599085572501
56.3633572698226
56.4904926043833
56.6395998567173
56.8081357160733
56.9935344048006
57.1931902639362
57.4044424819176
57.6245620417277
57.8507409954717
58.0800842247573
58.3096038865496
58.5362167762091
58.7567448606155
58.9679192426964
59.166387812188
59.3487268138843
59.5114565219243
59.6514928585115
59.7685350297197
59.8634423699737
59.9371413392486
59.9906157737405
60.0248998593299
60.0410711864842
60.0402439666256
60.0235624817204
59.9921948300303
59.9473270219002
59.8901574703568
59.8218919124086
59.743738788433
59.6569050990884
59.562592751901
59.4621181821251
59.357968789522
59.2532613129489
59.1510766380926
59.0544536156259
58.9663933954135
58.8898667934988
58.827824615594
58.7832108987859
58.7589790832198
58.7581111878313
58.7836401396003
58.8386754958923
58.9264329067973
59.050267792722
59.2137138671104
59.4202663186111
59.6684346574205
59.9519529483078
60.264247989262
60.5985411836782
60.9477857058919
61.3046180439548
61.6613255197911
62.0098318327128
62.3417029639664
62.6481758756661
62.9202122886839
63.1485793819655
63.3239584794849
63.4370816583193
63.479108628385
63.4496056805107
63.3588250409005
63.2179622354859
63.0382954751224
62.8310305148211
62.6071859088305
62.3775184933997
62.1524875457849
61.9422552868959
61.7567211710803
61.6055876766342
61.4984560130675
61.4449512523664
61.4548778597217
61.5384084770916
61.704325997646
61.9480041834826
62.2590483966711
62.6270634969319
63.0414543859081
63.4912347091987
63.9648682287076
64.4501457444626
64.9341026943722
65.4029843528785
65.8422667265675
66.2367415790064
66.5706732391695
66.8280326914934
66.9932196291881
67.0620092723084
67.0428535886343
66.9455185016541
66.7802513811035
66.5575620389557
66.2880315682591
65.9821531947452
65.6502070728572
65.302169109468
64.9476525043879
64.5958797657161
64.2556824595673
63.9355258337566
63.6435556508219
63.3875818294712
63.1706440372018
62.988913560554
62.8381926755425
62.7144548801661
62.6138082455642
62.5324646229518
62.4667141320915
62.412904508911
62.3674250100049
62.3266946648072
62.2871547353481
62.2452652907574
62.1975058303624
62.1403798961571
62.0704236031945
61.9849244967013
61.885333811585
61.7745890615246
61.6556035341488
61.5312553409726
61.4043813137265
61.2777736007974
61.1541788651347
61.036299977639
60.9268001025189
60.8283090826296
60.7434320527307
60.6747602363968
60.6248839177202
60.5964076219581
60.5919675572687
60.6130635497159
60.6569280567632
60.7198447081055
60.7981068602683
60.887996348451
60.9857667423501
61.0876311094936
61.1897543648395
61.2882503376959
61.3791837156128
61.4585770284187
61.5224228124275
61.5667010435714
61.5874018478743
61.580553388258
61.5423559722914
61.4722973560397
61.3737003436551
61.2501459559503
61.1052274681429
60.9425240701755
60.7655787756057
60.5778806176152
60.3828510744898
60.1838345923724
59.9840930198879
59.7868037362327
59.595061239868
59.4118819671384
59.2402121269902
59.0829383676619
58.9428984786917
58.8218397233575
58.7188436504049
58.6326229816266
58.5619340047305
58.5055698666099
58.4623545238201
58.4311372905216
58.4107879347482
58.4001922830522
58.398248301571
58.4038626285077
58.415947539057
58.4334183290304
58.4551911079149
58.4801809958914
58.5073007224721
58.5354937533026
58.5639970132646
58.5921977253559
58.6194820271864
58.6452338332227
58.6688350893517
58.6896661581003
58.7071063352859
58.7205344984773
58.7293298871261
58.7328730135986
58.730546703587
58.7217372635199
58.7058357716245
58.6822394882272
58.6503533797246
58.6096121878506
58.5603857972346
58.5043293132019
58.443185117551
58.3786846143807
58.312545774471
58.2464717086155
58.1821502493856
58.1212545186185
58.0654444581988
58.0163693043251
57.9756709903473
57.9449884703381
57.9259629648037
57.9202441413601
57.9294972568852
57.9554113037664
57.999364632166
58.0603308031356
58.1362447322177
58.2250401301778
58.3246436146886
58.4329660570464
58.5478953735556
58.6672907791516
58.7889785407096
58.9107492831297
59.0303569124818
59.1455192269327
59.2539202874596
59.3532146160572
59.4410332788521
59.5149918948822
59.5728685927004
59.6142637015047
59.6399110589778
59.650588836982
59.647099740675
59.6302670717412
59.6009309394804
59.5599446470218
59.5081712759648
59.4464804888293
59.3757455648884
59.2968406813244
59.2106384482406
59.1180077029217
59.0198115658885
58.9169057587682
58.8101384861513
58.7004068068188
58.5886773217409
58.4759088313768
58.3630458474972
58.251018478523
58.1407426157238
58.0331204083564
57.9290410163573
57.8293816300853
57.7350087478371
57.6467797033889
57.5655444376472
57.4921475106036
57.4274303521701
57.3722337531429
57.3274006004891
57.293779302809
57.2722325476777
57.2636391618179
57.2688937801486
57.2889109552422
57.3246297202898
57.3770185473777
57.447080744847
57.5358603456852
57.6444485482691
57.7739907816011
57.9256944797354
58.1008376647473
58.3007784547958
58.5269656341118
58.7809504457781
59.0643579303029
59.3765835975174
59.7134626268175
60.0703805058893
60.4425221734689
60.8248390380072
61.2120231901087
61.5984898375057
61.9783691760197
62.3455090377465
62.6934897107313
63.015652282365
63.305141700681
63.554965454425
63.7580683298343
63.9074795197225
64.0003279218571
64.0405153622117
64.0328426920919
63.9823359891301
63.8941756395188
63.7736319626288
63.626008527819
63.456593916587
63.270622327996
63.0732431244052
62.8694991750224
62.6643136789409
62.4624850355948
62.2686892748925
62.0874895561473
61.922985617248
61.7768613633441
61.6498696389995
61.5427797745983
61.4563852634456
61.3915094055253
61.3490113087237
61.329792305334
61.3348028507665
61.3650499818919
61.421605424624
61.505614454582
61.6183056313901
61.7610015469278
61.9351307512881
62.1421782025172
62.3808923268063
62.6460543408451
62.9320297860033
63.2330116530857
63.5429840684855
63.8556963433251
64.1646484331209
64.463089041752
64.7440276957836
65.0002620933041
65.2244218739407
65.4090296438862
65.546579607244
65.6296334980932
65.6518595832462
65.6152843389415
65.5263858775798
65.3918790507281
65.2185827497493
65.0133342941938
64.7829178028222
64.5340070772884
64.2731229735328
64.0066048099498
63.7405950656891
63.481036450139
63.2336803637725
63.0041058067956
62.7977479111242
62.6198437680169
62.4726995711009
62.3552878454552
62.2664852208167
62.2052586187034
62.1706564338983
62.161800569136
62.1778792101106
62.218140242897
62.2818852285561
62.3684638604477
62.477268838937
62.6077311059961
62.7593153889017
62.9315160079919
63.1238475532353
63.3349355286041
63.561454703883
63.7997542475102
64.0460832540218
64.2965778357374
64.5472525475998
64.7939965069618
65.0325746078291
65.2586342419529
65.4677179231931
65.6552821626272
65.8167228562874
65.947407322432
66.0427129597305
66.0984428278745
66.1145056916532
66.0933918654283
66.0377511394835
65.950329533662
65.8339422294526
65.6914483297698
65.525727751406
65.3396604730538
65.1361082848107
64.9178991153251
64.6878139516918
64.4485763157489
64.2028442188736
63.953204485641
63.7021920796962
63.4525380328099
63.2070683984967
62.9685255519666
62.7395705929669
62.5227912220946
62.3207116342513
62.1358043040349
61.9705035768207
61.8272210233361
61.708362564592
61.616347428421
61.5536290593601
61.5227181714618
61.5262082106736
61.5668032480652
61.6457050886878
61.7587889459263
61.9008503617348
62.0666769772772
62.2510027043217
62.4484704670969
62.6536036384566
62.8607865350602
63.0642545176829
63.258094359645
63.4362555906707
63.5925734854941
63.7208042362994
63.814672617276
63.8679321672166
63.8763623870779
63.8429205049395
63.7723147356928
63.6693535259639
63.53889397096
63.3857971452091
63.2148907839913
63.0309394942931
62.8386224619474
62.6425184584333
62.4470978366673
62.2567211377917
62.0756439067724
61.9080273291898
61.7579543505597
61.6293419831809
61.5231700701169
61.4373030343067
61.3695127512783
61.3176241783458
61.2795034099915
61.2530474079274
61.2361753012245
61.2268211801676
61.222928330713
61.2224448750655
61.2233207982958
61.2235063512852
61.2209518267215
61.2136087074361
61.1994321850698
61.1766389150899
61.1454486713562
61.1070267793677
61.0625440687426
61.0131687727333
60.9600644560095
60.9043883928954
60.8472903924978
60.789912064948
60.7333865214801
60.6788385002825
60.6273849099468
60.5801357828899
60.5381956323082
60.5026652080223
60.4746436489765
60.4550236329158
60.4436017926956
60.4398183232571
60.4431195486384
60.4529568041517
60.4687851982504
60.4900624795309
60.5162480054878
60.5468018104659
60.5811837710036
60.6188528674276
60.6592665411516
60.7018801476527
60.7461465055466
60.7915155425614
60.8374338026259
60.8831725189891
60.9275226396593
60.9691865954072
61.0068602851963
61.039234489658
61.0649968493211
61.0828344097383
61.0914367315854
61.0894995587176
61.0757290310934
61.0488464224711
61.007593374941
60.9507375937932
60.8770789571036
60.7854559849314
60.6747802469276
60.5459444270131
60.4030090544729
60.2502752339563
60.0919728295396
59.9322502573107
59.7751702112932
59.6247110294759
59.484773401117
59.3591921419558
59.2517528175126
59.1662130738916
59.1063286390254
59.0758840849788
59.0787285952986
59.1188171639302
59.2002564752579
59.3251420764014
59.4890358131301
59.6862796875051
59.9111804506833
60.1579483978238
60.4206465310556
60.693150391405
60.9691192458844
61.2419796214314
61.5049223922177
61.7509147341262
61.9727282389297
62.1629843084693
62.314217605473
62.4189578084542
62.470573863174
62.4698476825533
62.4218605364499
62.3319373352492
62.2055269640257
62.048135148765
61.8652663820973
61.6623755344971
61.4448293895821
61.2178780249288
60.9866357177697
60.7560708877674
60.5310044925499
60.3161162592353
60.1159581590511
59.9349746047241
59.7772558295063
59.6439147270177
59.5343134794449
59.4478519887744
59.3839894229074
59.3422404219664
59.3221717052765
59.3233990385911
59.3455845261913
59.3884341968838
59.4516958567487
59.5351571848325
59.6386440509077
59.7620190369934
59.9051801466016
60.0680596876772
60.2503792760014
60.449509881838
60.6614357867138
60.8820274920762
61.10704040152
61.3321045068563
61.5527200370321
61.7642595451071
61.9619769218332
62.1410237957615
62.2964737037305
62.4233542873728
62.5166875879219
62.5715382727875
62.5830693364323
62.5467000716895
62.4623951618574
62.3363075048421
62.1751167178477
61.9855058043101
61.7740950650656
61.5473905823695
61.3117471376408
61.0733450367134
60.8381800615185
60.6120656358902
60.4006462727033
60.2094214454595
60.0437791862149
59.9090389425293
59.8105035221564
59.7534691941832
59.7397665338501
59.7655301711749
59.8265030783894
59.9185283243608
60.0375022962089
60.1793340564705
60.3399103986458
60.5150663858308
60.7005613446083
60.8920604430524
61.0851221085786
61.2751916372925
61.4576014085426
61.6275781423907
61.7802576187251
61.9111586841972
62.0193257808733
62.1055268767911
62.1705985609655
62.2154301002655
62.2409573320159
62.24815659474
62.2380387630006
62.211643446174
62.1700334043711
62.1142892278084
62.0455043189064
61.9647802094248
61.8732222381773
61.7719356084309
61.6620241970962
61.5449820325098
61.4231244608185
61.2988404323384
61.1744820298896
61.0523636938595
60.9347632243813
60.8239244876575
60.7220617598341
60.6313656532514
60.5540105860554
60.4921637768051
60.447995770811
60.4236925345787
60.4214691892557
60.443585493957
60.4923202146123
60.5676293456786
60.6659021511911
60.7832353674379
60.915704426187
61.0593407750539
61.2101141643752
61.3639200213019
61.5165721171172
61.6638007917527
61.8012570278525
61.9245226626088
62.0291269858102
62.1105698942923
62.1643516543061
62.1860091638612
62.1721387738136
62.1246514079373
62.047271816814
61.9437834001166
61.817993609464
61.6737049045628
61.5146903872864
61.3446741885995
61.1673165714662
60.9862036261166
60.8048413721582
60.6266540438905
60.4549863190631
60.2931092551112
60.144229718488
60.0115031301256
59.8976591779084
59.8033515396593
59.728580363319
59.6733820704531
59.6378302746086
59.6220364473743
59.6261507731869
59.6503632020958
59.6949047116731
59.7600487913981
59.846113165219
59.9534617706187
60.0825070154499
60.2337123371074
60.4075950923351
60.6047296024723
60.8247238177161
61.0637817481691
61.3173007293362
61.5805406360254
61.848603204352
62.1164185583228
62.3787396102512
62.630145080618
62.8650519038949
63.0777377423237
63.2623742097616
63.413071203963
63.5239324526798
63.5891219962887
63.6029408637065
63.5618519263343
63.4711030923149
63.3384558618854
63.1717343266334
62.9787334949076
62.7671470547846
62.5445146620327
62.3181882706906
62.0953165942916
61.8828465525663
61.6875405039963
61.5160081677311
61.3747523789125
61.2702281836305
61.2089152552031
61.1973576439816
61.2380900479775
61.3263704305302
61.456854498967
61.6242930215812
61.8234619169229
62.0491014975666
62.2958643483557
62.5582717308608
62.830678757716
63.1072488765094
63.3819384407313
63.6484923174592
63.9004515762259
64.1311743061912
64.3339184013653
64.5045279936234
64.6429203692213
64.749452976515
64.8245877628925
64.8688859448865
64.8830021272707
64.8676778660856
64.823734774544
64.7520672726168
64.6536350808694
64.5294555569801
64.3805959694985
64.20816579803
64.0133091424097
63.797218951544
63.562612829448
63.3146208414136
63.0584692022582
62.799232241184
62.5418249662989
62.2910036572295
62.051373840543
61.8274050399159
61.6234517733071
61.4437803863291
61.2926014597718
61.1741077071852
61.0925174854793
61.0521242804595
61.057352806327
61.1124249851748
61.2157027386689
61.3609443888074
61.5418462330114
61.7520872754368
61.9852596557539
62.2348116291211
62.4940033539454
62.7558762008755
63.0132366481827
63.2586560630432
63.4844877657903
63.682902711049
63.8459448710312
63.9656069511051
64.0343104950678
64.0505320835471
64.0176076516471
63.9392185996384
63.8192153037926
63.6615659959668
63.4703092276386
63.2495106747173
63.0032248171378
62.7354618195774
62.4501597540514
62.1511621464461
61.8422006997363
61.5268829471938
61.2086845182453
60.8909456555665
60.576875938866
60.2695841336258
59.9720665773486
59.6872036219
59.4177721546249
59.1664605008964
58.9358854643453
58.7286113803579
58.5471711292759
58.394089132017
58.2719064333254
58.1832080680813
58.1306530064137
58.1170070870977
58.1451794803907
58.2182633770555
58.3395153373886
58.5087468396529
58.7203372932525
58.9682171895894
59.2462424096397
59.5481200573176
59.8673462281006
60.1971563038765
60.5304888950661
60.8599649820013
61.1778841195276
61.4762397321994
61.7467555056664
61.9809446334363
62.170193170686
62.3058679520992
62.3814589142286
62.4004332051941
62.3695126312591
62.2956549513209
62.1859505062392
62.0475337999271
61.8875108480601
61.7129029490363
61.5306069194815
61.3473713824908
61.1697884027189
61.0042996208809
60.8572160384523
60.7347507269897
60.6430639727979
60.5883192797461
60.5744932237956
60.5988598858645
60.657543097436
60.7467623279793
60.8627916137793
61.0019235568274
61.1604380007711
61.3345751683745
61.520513196482
61.7143501333239
61.9120905704377
62.1096371671967
62.3027873883093
62.4872358109776
62.6585823652322
62.8126956544466
62.9481417763135
63.0648014027935
63.1625976750793
63.2414887400478
63.3014677446316
63.3425626694266
63.364836003808
63.3683842661621
63.3533373741126
63.3198578708259
63.2681400145947
63.1984087399119
63.1109184991517
63.005951994755
62.8838830814742
62.7463862237555
62.5963041802723
62.4364892255715
62.2697491124943
62.0988400122884
61.9264620157231
61.7552570792679
61.5878092895189
61.426647317124
61.2742489375788
61.1330475096237
61.0054403218131
60.893798743587
60.8004801484644
60.7278416136887
60.677937661889
60.6497849223935
60.6407296001545
60.6481415956358
60.6694181599761
60.7019708532207
60.7432147776459
60.7905600300122
60.8414053513582
60.8931339797001
60.9431117298988
60.9886873359785
61.0271950941317
61.0559598392998
61.0723042743255
61.0735586481113
61.0576601598782
61.0249240734321
60.976278399274
60.9126713016227
60.8350664075201
60.7444383570683
60.6417686219955
60.5280416143297
60.4042411017581
60.2713469413493
60.1303321387744
59.9821602360296
59.8277830269741
59.6681385967689
59.5041496785378
59.3367223182799
59.1668523919025
58.9962741527195
58.8270095560483
58.6610358173764
58.5002859577703
58.3466519416228
58.2019890066403
58.0681211263346
57.9468475590766
57.8399504541685
57.7492035042938
57.6763816551003
57.6232719067366
57.5916852691693
57.5834699635558
57.6005259965081
57.6448176158195
57.7169234613172
57.8137786997691
57.9317631953238
58.0672471720135
58.2165662714709
58.3760010495794
58.541760974294
58.7099730860184
58.8766755582074
59.0378164476537
59.189257948654
59.3267864597741
59.4461287329029
59.542974298668
59.6130042479005
59.6519266702804
59.657359981882
59.6331382511626
59.5844433152441
59.5164930200054
59.4345032307601
59.3436589609082
59.2490946781524
59.1558836705221
59.0690362447861
58.9935064860938
58.9342073266699
58.8960337496707
58.8838940893931
58.9027495803728
58.9576625580001
59.0538540286822
59.1957442140344
59.3806904122632
59.6029685006623
59.8568106557093
60.1363470711209
60.4355456256773
60.7481623149137
61.0677031680187
61.3873987674281
61.7001927959033
61.9987462351569
62.2754589056439
62.5225099393824
62.7319184867804
62.8956254491858
63.0059804915421
63.0621924938333
63.0694459128437
63.0333566736955
62.9597099071901
62.854386331547
62.7232985175601
62.5723379019558
62.4073329641368
62.2340186120244
62.0580165414422
61.8848261418491
61.719825415847
61.5682813543925
61.4353692564593
61.3262005937272
61.2450933435436
61.1923297471928
61.166927267864
61.1679804209945
61.19465379323
61.2461749151777
61.3218277421827
61.4209466595447
61.5429109389941
61.687139582104
61.8530864938744
62.0402359362109
62.2480982166032
62.4762055721419
62.7241082132275
62.991299960535
63.276316206521
63.5769559992505
63.8909319285171
64.2158731402893
64.5493146722524
64.8886883669129
65.2313155475883
65.574401674135
65.9150332218849
66.2501770475493
66.5766825181338
66.8912866813178
67.1906227462776
67.4712674095683
67.7313332178548
67.971172959137
68.1913640170285
68.3925425979568
68.5753998057184
68.7406775967674
68.8891646668628
69.0216923179243
69.1391303515799
69.2423830330303
69.3323851656118
69.4100983129133
69.4765072016005
69.5325853627297
69.5787821213545
69.6150983850487
69.6415290098574
69.6580773419454
69.6647551922076
69.6615827928391
69.6485887360774
69.6258098953932
69.5932913294777
69.5510861694406
69.4992554896924
69.4378681630486
69.3670007006472
69.2869256200277
69.1997401565303
69.1085438011137
69.0164173590645
68.926409526779
68.8415375159876
68.7647903299486
68.6991346265621
68.6475231203391
68.6129055012759
68.5982418837816
68.606518843045
68.6407681501307
68.7040883816607
68.7990060638363
68.9223605435503
69.0680222760339
69.2297821728673
69.4013406700989
69.5762833150185
69.7480677967327
69.910022984585
70.0553605980811
70.1772000942205
70.2686072141238
70.3226463735327
70.3324467083896
70.2912827550452
70.1952757704448
70.0487067420055
69.8574959574448
69.6276296752233
69.3650917265221
69.0758052783628
68.7655850977343
68.4401002847502
68.1048471480871
67.7651316793013
67.4260609404383
67.0925426047897
66.769291875065
66.4608450373998
66.1713783823418
65.9022388121368
65.6528210164615
65.4225205149127
65.2107743942031
65.0170585956082
64.8408854375539
64.6818013510894
64.5393848084191
64.4132444268069
64.3030172320509
64.2083670673923
64.1289831351985
64.0645786600626
64.014889663127
63.9795948950533
63.9573229513457
63.9459516176856
63.9433573571999
63.9474258500093
63.9560468870833
63.9671106672642
63.9785054880004
63.9881168286732
63.9938278298717
63.9935211725796
63.9850823579613
63.9664043812744
63.9353937824123
63.8899780408037
63.8282172232852
63.7497853495412
63.6556152678827
63.5466867051339
63.4239887346245
63.2885155551326
63.1412625585429
62.983222701589
62.8153831922654
62.6387224970737
62.454207671233
62.2627920103806
62.0654130191234
61.8629906890835
61.6564260768077
61.4466001700646
61.2346453314613
61.0228528667473
60.8137757753273
60.6098975796727
60.4136361518206
60.2273494405809
60.0533429665707
59.8938789848428
59.7511872431505
59.6274772966211
59.524952376657
59.4458248534215
59.3923333777614
59.3667618407349
59.3714603482923
59.40886847688
59.4809175381179
59.585229769106
59.7175708157123
59.873707226992
60.0493761098533
60.2402530089804
60.4419256452056
60.6498736789743
60.8594548112989
61.0658976457513
61.2643018078835
61.4496458477093
61.616803430288
61.7605682426211
61.8756879063821
61.9569506474842
62.0022585522318
62.0146484788899
61.9977397243282
61.9552339451903
61.8908825314979
61.8084581362084
61.7117306457324
61.6044477448069
61.4903201189253
61.3730112506965
61.2561317036679
61.143237747937
61.0378341652466
60.943381075825
60.8633046535157
60.8009136127494
60.7575635063623
60.7328375420393
60.7262876042004
60.7374990808463
60.7660884249764
60.8117009050371
60.8740085239724
60.9527080885543
61.0475194125175
61.158183638629
61.2844616662353
61.4261326720577
61.5829927130909
61.7548534013989
61.9415406262151
62.1423428026447
62.354525873451
62.5748278534806
62.7998984572126
63.0262912851388
63.2504595937897
63.468755929731
63.6774359224723
63.8726665268106
64.050538979043
64.2070866812284
64.3383081512724
64.4401950728337
64.5087653479655
64.5401058498656
64.5323956130281
64.4889610507686
64.4140135575801
64.3118271856312
64.1867002975138
64.0429227417112
63.8847487821773
63.7163758477671
63.5419290336693
63.3654511866607
63.1908983384005
63.0221402143973
62.8629655382572
62.7170918686323
62.5881797473023
62.479466318619
62.3914525089062
62.323495894596
62.2749931497681
62.2453811570183
62.2341336703796
62.2407582409193
62.264793375432
62.3058059019188
62.3633885183851
62.4371575039719
62.5267505736039
62.6318248592388
62.7520550024726
62.8871313447236
63.0367759532926
63.2010346603873
63.380237247385
63.5747467467138
63.7849525771486
64.0112721206163
64.2541524403527
64.5140721539171
64.7915434761415
65.0871144488683
65.4013713763379
65.7349414873698
66.0884958480674
66.4627525517271
66.8584717844464
67.2743330984311
67.7039663882361
68.1399617682844
68.5745192057993
68.999436729555
69.4061175707122
69.7855986827035
70.1286029544404
70.4256170425565
70.6669960650996
70.8430953969655
70.9444284869662
70.9618480125225
70.8877288742545
70.7269931575196
70.4929227654492
70.1991201779245
69.8591197695857
69.4861931977238
69.0932080775258
68.6925380980723
68.2960209730505
67.9149596876481
67.5601622916028
67.2420158716495
66.970591194505
66.7557757491317
66.6073836570052
66.5292610761029
66.5137266287377
66.5521254332866
66.6360557397026
66.7572423704703
66.907432473564
67.0783120437888
67.2614426628028
67.448218680214
67.6298456225781
67.7973409696728
67.9415585610389
68.0532377665731
68.123086429172
68.1451970412494
68.12222107169
68.0582902234588
67.957663480776
67.824679303647
67.663712577033
67.4791368485684
67.2752921786042
67.0564587410963
66.8268361580784
66.5905284264021
66.3515342033856
66.1137421567527
65.880931051507
65.6566425079758
65.442043084114
65.2363475937385
65.03873403769
64.848403840174
64.664579922291
64.4865050003504
64.3134400938912
64.1446632300676
63.9794683325434
63.8171642842971
63.6570741547939
63.4985345828513
63.3408953072321
63.1835188375493
63.0257962218236
62.8680159446108
62.7117887544231
62.5588029920797
62.4107144654475
62.2691488189826
62.1357047284589
62.0119578859285
61.8994657480673
61.79977303066
61.7144179430278
61.6449391687024
61.5928836126804
61.5598149512831
61.5473230382461
61.5570342404716
61.5902972142472
61.6456795041407
61.7203225702386
61.811367292421
61.9159492052917
62.0311843234737
62.1541575783811
62.2819138926626
62.4114519592992
62.5397208230891
62.6636193824652
62.779998938498
62.8856689146049
62.9774058539564
63.0519657709593
63.1062292297607
63.1396741463341
63.1541986132502
63.1518297537501
63.1346235036185
63.1046542935432
63.0640060143485
63.014764320531
62.9590103046467
62.8988155557609
62.8362385995979
62.7733227063112
62.7120950439357
62.6545671515006
62.6027367053621
62.558589221143
62.5237704315694
62.4991565478059
62.4855220577792
62.4836511005359
62.4943403357319
62.5184020487758
62.556667510624
62.6099906149976
62.6792518200218
62.7653624260707
62.8692692270178
62.9919595782776
63.1344669321028
63.2978768987547
63.4833337203453
63.6911521696886
63.9187015839101
64.1626827562444
64.41971593195
64.6863238157384
64.9589179402724
65.2337886611066
65.5070991028946
65.7748834254543
66.0330498033864
66.2773885158961
66.5035855205182
66.7072418319227
66.8838989416601
67.0294970170857
67.1441327378371
67.2303231956015
67.2907167670134
67.3280459887807
67.3451075419817
67.3447441705024
67.3298287471071
67.3032506427744
67.2679045032611
67.2266814926651
67.182463027894
67.1381170008948
67.0964964674347
67.060421040097
67.0319613378041
67.0122416411868
67.00232833372
67.0032945362624
67.0162234288714
67.0422119445873
67.082374855281
67.137849275168
67.2097996138422
67.2994230177734
67.4079553473021
67.5366777454151
67.6869238652186
67.8600732997492
68.0558055672537
68.2703753140774
68.4995719247034
68.7390880598231
68.9845027356336
69.2312697101987
69.4747115619717
69.7100198991634
69.9322621605745
70.1363954540689
70.317287823152
70.4697472307398
70.588558398935
70.6689934738601
70.7120341386346
70.722527587317
70.7054935842675
70.6660149978586
70.6092019846413
70.5401633708855
70.4639854119042
70.385717958936
70.3103679573617
70.2429001390338
70.1882447545346
70.1513122166932
70.1370145931722
70.1491467911454
70.1865177171231
70.2465998568003
70.3268956129849
70.4249218590745
70.5381962847107
70.6642254988152
70.8004948551267
70.9444599984352
71.093540157788
71.2451132361049
71.3965127637854
71.5450267967338
71.6879351340471
71.8231116287632
71.9489443917128
72.0638237350445
72.1661295455366
72.2542364096889
72.3265194806943
72.3813610727593
72.4171579566582
72.4323293176429
72.4253253230774
72.3946362326891
72.3388019694338
72.2564372700272
72.147599979203
72.0148471935102
71.8610029628328
71.6888866936243
71.5012983025995
71.3010056287096
71.090734099717
70.8731586129678
70.6508975609189
70.426508910454
70.2024882306237
69.9812685556289
69.7652219680369
69.5566268591564
69.35688768306
69.1665632645354
68.9861697014554
68.8162181656948
68.6572166189564
68.5096715931994
68.37409003911
68.2509812472304
68.1408588475984
68.0442428950582
67.9616620487897
67.8936558561063
67.8407771521884
67.8035700974345
67.7812332330039
67.7709314418753
67.7696778415368
67.7744950924877
67.782408753972
67.7904432591368
67.7956205022248
67.7949610404464
67.7854879135593
67.7642330749262
67.7282464089349
67.6746072813386
67.600438531692
67.5029247093953
67.3807285095984
67.2364372485623
67.073300339738
66.8945435321858
66.70335302249
66.5028627553795
66.2961448448878
66.0862030048002
65.8759688469602
65.668300887957
65.4659860977457
65.2717438267273
65.0882319595869
64.918055163695
64.763756930998
64.6265803356976
64.5056966407651
64.4001208447635
64.3089016843793
64.2311173767548
64.1658717307054
64.1122905938725
64.0695186077412
64.0367162467265
64.0130571213055
63.997725528501
63.9899142359691
63.9888224885469
63.9936542284234
64.0036144320812
64.0177632733947
64.0349208545272
64.0538835642794
64.0734454187401
64.0923976065502
64.1095284889888
64.1236240576034
64.1334688517452
64.1378473372796
64.1355457459147
64.1253543720351
64.1060703206453
64.0765006960506
64.0354662162631
63.9818219228108
63.9156120728626
63.8388043247799
63.7535363382973
63.6619314942121
63.5660940744153
63.4681058705779
63.3700241906098
63.2738812247608
63.1816847298542
63.0954199904471
63.0170530194716
62.9485349679467
62.8918077234948
62.848810690566
62.8214887489116
62.8113515622904
62.8182943069333
62.8418666995179
62.88164400214
62.9372247513508
63.0082286313687
63.0942944749837
63.1950783773284
63.3102519091456
63.4395004174797
63.5825214028622
63.7390229630877
63.908722294592
64.0913442432701
64.2866196306892
64.4938590843236
64.7110701362715
64.9359672002619
65.1662040451245
65.3993684334036
65.6329784222426
65.864480456068
66.0912493913208
66.3105905984635
66.5197442848513
66.7158921728996
66.896166650436
67.0576624834366
67.1974511449484
67.3131316732304
67.4061234925279
67.4795606391105
67.5366504505124
67.5806498987154
67.6148513706839
67.6425715159069
67.6671432687199
67.691911114297
67.720229641132
67.7554654101116
67.8010021712297
67.8602494738668
67.936654745712
68.0333663852864
68.1497839204025
68.2829941898922
68.430030805333
68.5878934177545
68.7535364712903
68.9238605214044
69.0957062155876
69.2658510631359
69.431009139576
69.5878338795262
69.7329241082032
69.8628334452675
69.9740831842105
70.0638899353484
70.1326103060755
70.1815041080822
70.2118739413232
70.2250579604642
70.2224230196528
70.2053582318549
70.1752689927903
70.1335715097726
70.0816878665153
70.0210416463762
69.9530541287163
69.8791410661435
69.8007114805735
69.719406208109
69.6373633567858
69.5567662697225
69.4797782355182
69.4085441172088
69.3451933016072
69.2918439449086
69.2506084998226
69.223600522124
69.2129427703872
69.2207766318996
69.2492729305399
69.3006441991383
69.3770950385789
69.4780160090223
69.5988257247082
69.7346201754987
69.8804409074594
70.0312567295968
70.1819524264175
70.327324751334
70.4620860247902
70.5808756646098
70.6782799307366
70.7488600687862
70.7871888844004
70.7878955730922
70.7466591205449
70.6659823900209
70.5513583728106
70.4083314850177
70.2424380093797
70.0591668206242
69.8639289383227
69.6620357994501
69.4586859753728
69.2589599487221
69.0678225111893
68.8901323390344
68.7306583438965
68.5941024775925
68.4846303738873
68.4028785554816
68.3480160971118
68.3192748494193
68.3159498606112
68.3373941740587
68.3830140839937
68.4522647941864
68.5446464309284
68.6597003671767
68.7970058194696
68.9561766833151
69.1368585762802
69.3387260610466
69.5607197192691
69.7984194565583
70.0463730206048
70.2989800714586
70.5504788199927
70.7949417025811
71.0262808153753
71.2382638112424
71.424540894278
71.5786833967451
71.6942341845665
71.7647698070968
71.7839738873683
71.7461828543336
71.6530804504282
71.5121051963304
71.3309418285992
71.1172808384999
70.8787425479907
70.622817996364
70.3568264839857
70.0878891740872
69.8229178610506
69.5686178642255
69.331503985258
69.1179285577687
68.9341208055646
68.7858379260491
68.6740261689314
68.5965490081125
68.5513366604252
68.5364240724947
68.5499332326012
68.5900571409403
68.6550452165045
68.7431899587359
68.8528147163812
68.9822624457343
69.1298853665749
69.294035447288
69.4730556714501
69.6649971315821
69.8661010588518
70.0718193704233
70.2774962050908
70.4783658474119
70.6695552518269
70.8460932832899
71.0029270244051
71.1349454272237
71.2370104712427
71.3039958260717
71.3308328082074
71.3125631698141
71.2444971693045
71.1266551206779
70.9654530863135
70.7678245944908
70.5406848820996
70.2908688226593
70.0250826308707
69.7498691216962
69.4715859741934
69.1963962355506
68.9302701908621
68.678997707758
68.4482102296327
68.2434117251308
68.0699940550465
67.9311411846659
67.8262234726868
67.7543199107759
67.7146130401205
67.7063815623674
67.7289938089268
67.7819019713853
67.8646370090867
67.9768041612981
68.1180790010915
68.2882039764109
68.4869853909673
68.7142907837975
68.9700039905245
69.2516661133479
69.5531389380835
69.8677927537035
70.188766579719
70.5089460569455
70.820954987073
71.117161881224
71.3897029083064
71.6305225226628
71.8314327754286
71.9841918575497
72.0806017757976
72.1126243141858
72.0754904163756
71.975643665263
71.8222588256723
71.6246275538564
71.392035075839
71.1336607726123
70.8585031926067
70.5753290812681
70.2926453569311
70.0186925644041
69.7614581811421
69.5287082067281
69.3280357048591
69.1669180844619
69.049894204071
68.9742584451474
68.9363422064519
68.9326238560631
68.9596922289009
69.0142144480537
69.0929075830186
69.1925137897604
69.3097786889068
69.4414328331409
69.5841761954593
69.7346656780295
69.8895056977085
70.0452573553196
70.1989073705977
70.3479655872319
70.4899344901957
70.6222805185737
70.7424398279213
70.8478259539095
70.9358394074747
71.0038792055602
71.0493563093498
71.06970890392
71.0624194100361
71.0250330712435
70.9551779086856
70.8514568694812
70.7171896664122
70.5572483200646
70.3764854320316
70.1797022554727
69.9716245359453
69.7568850374994
69.5400125201002
69.3254268575175
69.1174399446072
68.9202620361181
68.7380131822175
68.5747394754161
68.434433896622
68.3204810035454
68.232890859585
68.1705101496652
68.1322485802953
68.1170729120399
68.1239999267693
68.1520899482969
68.2004408473673
68.2681824713135
68.3544714468411
68.4584863115299
68.5794229359347
68.7164902037653
68.8689059226524
69.0354477231336
69.2127251182917
69.3966331517556
69.5829829514742
69.7674957892789
69.9458021300799
70.1134460909932
70.2658955929575
70.3985584509919
70.5068045803742
70.5859943928752
70.6315133191838
70.6388122219587
70.6035243517128
70.5253974450879
70.4102771106513
70.2645542321387
70.0946096936916
69.9067658257167
69.7072495894699
69.5021673272168
69.2974906750322
69.0990530941782
68.9125564187876
68.7435868346483
68.5976397883323
68.4801534708409
68.3965067754912
68.3490380040945
68.3351416808335
68.351853126512
68.3962897419294
68.4656262791134
68.5570728528251
68.6678554554668
68.7951988126982
68.9363114810426
69.0883731440303
69.2485241109533
69.4138570625692
69.5814111211889
69.7482604327804
69.9132682674953
70.0769857007746
70.2400388880477
70.4030660047809
70.5667172543202
70.7316549938451
70.8985539843163
71.0681017705013
71.240999197472
71.417961070392
71.599716964956
71.7870121965342
71.9806072677903
72.1808561372161
72.387135549755
72.5986696755232
72.8146654273693
73.0343112229298
73.2567759063857
73.4812078404528
73.7067341802258
73.9324603414389
74.1574696764922
74.3808233721871
74.6015605835101
74.8186880532902
75.0305879073726
75.2346941419957
75.428314450603
75.6087107855383
75.7731075036732
75.9187016181316
76.0426751849752
76.1422098191831
76.2145032930027
76.2567881222252
76.2663519929637
76.2405598242806
76.1774927485712
76.0806939821513
75.9565104505097
75.8113001866777
75.6513697048363
75.4829449513771
75.3121528291381
75.1450129636074
74.9874392910418
74.8452510292088
74.7241926364433
74.6299624688197
74.5682500046933
74.543214143025
74.5499459044503
74.5803062174281
74.6261819449241
74.6794477597285
74.7319411178007
74.7754549662488
74.8017483977365
74.8025754478031
74.7697320495004
74.6951208101527
74.5708327636188
74.3892445941154
74.1455062555358
73.8455624206001
73.4982828325995
73.1124449476311
72.6966383547254
72.2591910057258
71.8081164297497
71.3510805975934
70.8953867266885
70.447976134254
70.0154432255527
69.6040628144498
69.2198281854499
68.8684985514896
68.5541046217984
68.275010062708
68.0284528881502
67.8118299502809
67.6226740785946
67.4586339606473
67.3174564102504
67.1969707330258
67.0950749524484
67.0097237039772
66.9389176421691
66.8806942370112
66.8331198620525
66.7942830989863
66.7622813648998
66.7351297980373
66.7107900733768
66.68722984146
66.6624227556949
66.6343486081024
66.6009946908677
66.5603583717755
66.510450866641
66.4493021838779
66.3749672054901
66.2855328552242
66.1791262886287
66.053924021688
65.9081625760682
65.7412217863512
65.5557676755255
65.3550505708507
65.1422712785089
64.9205685217889
64.6930096133525
64.4625842225255
64.2322010692851
64.0046873601057
63.7827907758363
63.5691838269499
63.3664704055243
63.1771943849619
63.0038501467293
62.8488949475073
62.7143687874418
62.5995205065885
62.5024413906426
62.421271959698
62.3541969398091
62.2994366167159
62.2552393457033
62.2198751454953
62.191630321138
62.1688030749741
62.1497000763327
62.132633969671
62.1159218077423
62.0978844010231
62.0768465771719
62.0511646378515
62.0206659842809
61.9873854945028
61.9535329688683
61.9213088496113
61.8929046069971
61.8705046790094
61.856289951533
61.8524427740484
61.8611535184591
61.8846287058714
61.9251007480989
61.9848393776925
62.0661648729147
62.1714632230431
62.3032034257706
62.4630070315638
62.6479836374596
62.853833985066
63.0761855912756
63.310565453242
63.5523783004821
63.7968910188727
64.0392237099893
64.2743479324258
64.4970927137423
64.7021589157925
64.8841424751962
65.0375669179753
65.1569253577073
65.2367466904138
65.2741381969328
65.2716397093989
65.2326155130419
65.1605442040482
65.0589820101334
64.9315292954145
64.7818006732448
64.6133990105047
64.429893480064
64.2348017081506
64.0315759721967
63.8235933331899
63.6141495344452
63.4064564651256
63.2036429636362
63.0085191781252
62.8229610667904
62.6486091771619
62.4870756739099
62.33995097996
62.2088111645628
62.0952260787008
62.0007682550943
61.9270226085482
61.8755969927303
61.8481336920541
61.8463219526581
61.8719116851836
61.9267285049856
62.0126903136308
62.1316270480391
62.2820161754461
62.459427297443
62.6593058290888
62.8770283234095
63.1078710688906
63.3469852302809
63.5893788884214
63.8299064781277
64.0632662244557
64.2840062305643
64.4865398670284
64.6651710443985
64.8141298101686
64.9276184920521
65.0006420970275
65.0343855381306
65.033057765193
65.001007263151
64.9426611876785
64.8624867896905
64.764958659847
64.6545320718917
64.5356225338441
64.412591520825
64.2897382642333
64.1712974089135
64.0614423214848
63.9642938370729
63.8839342660672
63.8239168885994
63.7833715997768
63.7591894461554
63.7482805238821
63.7475785478353
63.7540295602312
63.7645836107636
63.7761893685644
63.7857916539009
63.7903318933272
63.7867515060558
63.7719982215812
63.7430353090672
63.6968536678356
63.6304866858629
63.5413427087865
63.4306956542863
63.3023529437861
63.1601418441239
63.007845533482
62.8491892717056
62.6878311636441
62.5273573456159
62.3712813921439
62.2230477289046
62.0860388464802
61.9635861361534
61.8589842119856
61.7755086415892
61.7164370807539
61.6850728618422
61.6831385330767
61.7074826414607
61.7540817154089
61.818942302696
61.8980745467182
61.9874709506369
62.083090262225
62.1808465142691
62.2766033298344
62.3661736482516
62.4453250451239
62.5097908063022
62.5552868699176
62.5775346709101
62.572289808698
62.5358860791917
62.4691876079542
62.3754140418057
62.2578427390506
62.1197637815228
61.9644572537286
61.795174018754
61.6151200316243
61.4274441548284
61.2352293808325
61.0414873224695
60.8491558034025
60.6610993663
60.4801125145927
60.3089255133045
60.150212594104
60.0063899681995
59.878183230917
59.7655446479679
59.6684445106195
59.5868759064444
59.5208548882337
59.4704207294383
59.4356362686158
59.4165883460163
59.4133883361378
59.4261727808293
59.4551041283234
59.5003715844594
59.5621920833119
59.6408113854967
59.7365053135887
59.8494071758265
59.97799001451
60.1197724132616
60.2722326608184
60.4328086478017
60.5988894213623
60.7678088616159
60.9368415877606
61.1032012221304
61.2640411527412
61.4164579382035
61.5574974921817
61.684164166867
61.7934328252823
61.8822639500048
61.9476296057201
61.9878503915318
62.004101569417
61.997975636799
61.9711146668808
61.9251989247678
61.8619361797552
61.7830518139673
61.6902798051982
61.5853546406095
61.4700041983627
61.3459436166366
61.2148701540716
61.0784590326095
60.9383602430369
60.7961962852611
60.6535653086537
60.5122038669308
60.3740298332129
60.2409403781358
60.1148006698179
59.9974478187797
59.8906959119721
59.7963421048194
59.7161737546501
59.6519765958315
59.6055439763971
59.5786871981353
59.5732470273086
59.59110647186
59.634204953822
59.7045540435443
59.8042111739003
59.9328908215474
60.0866698759359
60.2613004536915
60.4524797893483
60.655822232717
60.8668371701581
61.0809131499229
61.2933086134432
61.4991497195015
61.69343579166
61.8710529150469
62.0267961500541
62.1554007116135
62.2515822789214
62.3100863499894
62.3270941404144
62.3054365385022
62.2500433055142
62.1659307426608
62.0581515381088
61.9317528681103
61.7917427007389
61.6430643950564
61.4905794892359
61.3390584292027
61.1931789034822
61.0575314169621
60.9366317519528
60.8349400249479
60.7568861481974
60.7068993360725
60.6877762536549
60.6977724392641
60.7344359848352
60.7953779409463
60.8782520373232
60.980736509806
61.1005178540151
61.2352763835236
61.3826735205872
61.5403407915031
61.7058705371747
61.8768083827915
62.050647538745
62.2248250277842
62.3967199505266
62.5637581612074
62.7242248619246
62.8768468272808
63.0203368995028
63.1533934086525
63.27470399457
63.3829499937408
63.4768113877614
63.5549723020718
63.6161270346952
63.6589865849828
63.6822856419404
63.6847899808135
63.6653042054558
63.6226797628652
63.5560583314689
63.4674742228186
63.3608608577286
63.240169547401
63.109316029116
62.9721658641767
62.8325247355656
62.6941334931169
62.5606677578629
62.4357418852303
62.3229170971312
62.2257136239166
62.1476267470982
62.0921467017125
62.0627824829279
62.0630809469965
62.094475428837
62.1534197802913
62.2357039749189
62.3371319160378
62.4534923237881
62.5805352416867
62.713954154953
62.8493738318531
62.9823440870343
63.1083397211178
63.2227669113731
63.320976311232
63.3982830587538
63.4499937935529
63.4714409589951
63.4596031297813
63.4167978250687
63.346507786286
63.2522633196243
63.1376140984155
63.0061047945922
62.8612546959637
62.7065413621072
62.5453882863246
62.3811564651392
62.2171397300681
62.0565636680761
61.9025879459378
61.7583118582098
61.6267829371549
61.5109685073691
61.4127438134969
61.3328320269988
61.2719214597051
61.2307284305982
61.210001992764
61.2105289927139
61.2331395120209
61.2787127485823
61.3481834033459
61.4425486482398
61.5628757626269
61.710310539176
61.8860865760508
62.0915355912362
62.328098617443
62.5958544170837
62.8899874062987
63.2045152456619
63.5332446055862
63.8697332966665
64.2072641990638
64.5388323338227
64.8571466174812
65.1546479219967
65.4235449980529
65.655869583618
65.8435515867941
65.9785145865018
66.0527910344685
66.0590367357672
65.9978844711064
65.8773465171753
65.7059308096639
65.4922401285672
65.2448540544086
64.9722334159053
64.6826476551224
64.3841246331396
64.0844217535202
63.7910168843429
63.51111738972
63.2516856087296
63.0194793123411
62.8211059994439
62.6630721818727
62.5488254997978
62.4754721625204
62.4394880965359
62.4375069004167
62.4662816360235
62.5226511155017
62.6035101251779
62.7057831741634
62.8264014792381
62.9622830029801
63.1103154523108
63.2673422217046
63.4301513304
63.5954674564211
63.7599480397248
63.9205150219607
64.0748768176717
64.2208337287166
64.3561529717562
64.4785749983353
64.5858214475527
64.6756047488475
64.7456393667805
64.7936546491141
64.8174092043504
64.8147066957658
64.7834128967437
64.7214738080298
64.6269345928338
64.4979877524389
64.3355497959495
64.1452150575426
63.9330074617937
63.7048545742771
63.4665543108315
63.2237528468859
62.9819331496114
62.7464134371441
62.5223548306757
62.3147774970521
62.1285846719985
61.9685940988395
61.8395766085039
61.7463018006134
61.6935910631394
61.6857132362992
61.7206721889918
61.7930254444915
61.8973889130065
62.028415338666
62.1807425126358
62.3489506751882
62.5275290076301
62.7108513959714
62.8931618651152
63.0685702328936
63.2310586115628
63.3744993821876
63.4926851755666
63.5793712037551
63.6286810595053
63.6395900642934
63.6146423261898
63.5565766562559
63.4682214390593
63.3524669411828
63.2122397340961
63.0504795276624
62.8701186214117
62.6740640985477
62.4651828145868
62.2462891699376
62.0201356043107
61.7894057107247
61.5567098376997
61.324583029336
61.0954278836603
60.8713258999425
60.6542300674374
60.4460394499219
60.2486047862111
60.0637351380371
59.8932055294615
59.7387655391071
59.6021488274663
59.4850836044689
59.3893040674897
59.3165628673744
59.268644690302
59.2473810770717
59.2546666395675
59.2924768778865
59.3623966556057
59.4622560584017
59.5881137865938
59.7360232876382
59.9020106525768
60.082046869786
60.2720251911816
60.4677437527456
60.6648937082296
60.8590532235836
61.0456877371785
61.2201569132118
61.377728698068
61.5136008270285
61.6229300173447
61.7008824371978
61.7449515433472
61.7575677597552
61.7418836876524
61.7011293821893
61.6385845609348
61.5575539297366
61.4613458774269
61.3532546900533
61.2365463483292
61.114447900534
60.9901403479301
60.8667549409455
60.7473727613728
60.635027457807
60.532711007443
60.443361999
60.3687637024927
60.3089945417201
60.264012275901
60.2337962431313
60.2183473406779
60.2176880841159
60.2318627459009
60.2609375745207
60.3050010959306
60.3641644995552
60.4385621117515
60.5283519602687
60.6337164339225
60.7548630424394
60.8920252822168
61.0453683686102
61.2136143145615
61.3943198796919
61.5849664538178
61.7829805696025
61.9857260371272
62.1904981694097
62.3945202387406
62.5949423225306
62.7888427081465
62.9732320278126
63.1450602858414
63.3012269200441
63.4385940060702
63.5540026668575
63.644383212331
63.7087742619435
63.7483591809323
63.7644787083611
63.7585303886665
63.7319585421184
63.6862446241911
63.6228980743062
63.5434477380423
63.4494339306466
63.3424011939529
63.2238917839643
63.0954399126694
62.9585667553443
62.8147762237864
62.6655526539373
62.5126448353983
62.3584324647433
62.2053423860265
62.0557541901909
61.9120022675335
61.7763796089271
61.6511432745357
61.5385214639695
61.4407221417448
61.3599431962741
61.298384139365
61.2582593864781
61.2418131961868
61.2513363910557
61.2891850325365
61.3576204919251
61.4553933800315
61.5779756959688
61.7207067724223
61.8788822489403
62.0477260457729
62.2223693583375
62.3978369365613
62.569041030388
62.7307834527975
62.8777662297582
63.004611266789
63.1058893585229
63.1761586963981
63.2100127884329
63.2022115546976
63.1517982116312
63.0641949014929
62.9454215755219
62.8015157272442
62.638479576216
62.4622389242673
62.2786136482688
62.093299515023
61.911860820226
61.739733259856
61.5822364313476
61.4445954250506
61.3319710959249
61.2494987952855
61.2023355898561
61.1952418931307
61.2273837212265
61.2942642392563
61.391407412135
61.5143779747987
61.6587400036782
61.8200219052793
61.9936876757087
62.1751144811848
62.3595767688938
62.5422372398737
62.7181450985299
62.8822420327783
63.0293763694772
63.1543257862091
63.2519562315076
63.3205525750551
63.3621755037736
63.3791563258471
63.3738929383582
63.3488320408073
63.306452938084
63.2492531001464
63.1797355972471
63.1003984858433
63.0137261822951
62.9221828297191
62.828207638246
62.7342121605046
62.6425794523157
62.5556647197867
62.4755501786482
62.403615760521
62.3411171141331
62.289307303388
62.2494409261812
62.2227787417288
62.210592823911
62.2141722665931
62.234829476439
62.2739070995472
62.3327856405194
62.4128918466084
62.5157079457091
62.6427818456049
62.7957384235877
62.9756407979819
63.1794203919567
63.4022983332288
63.6393888848327
63.8856761387332
64.1359938948117
64.3850133667683
64.6272393617683
64.8570156460325
65.0685402130028
65.2558911047187
65.4130632915197
65.534016883029
65.6127366210966
65.6433195129511
65.6229614190145
65.5552711777403
65.4448276560567
65.2963298670895
65.1145405805834
64.9042361554077
64.6701631690884
64.4170021415579
64.149338411195
63.8716400258641
63.5882423617686
63.3033390774517
63.0209789462062
62.745068083203
62.4793770889443
62.2273783090181
61.9913277575632
61.7729899724917
61.5740993107819
61.3963725944638
61.2415215005452
61.111265858455
61.0073479335842
60.9315478096053
60.8857000200616
60.87171162235
60.8915819560899
60.9474243847678
61.0414903867613
61.1761964422592
61.3541437977322
61.5755278921518
61.8345789709668
62.1245928022195
62.4386974932405
62.7697875272654
63.1104721542145
63.4530394578809
63.7894378816819
64.111277309497
64.4098519314217
64.6761870339956
64.9011114965034
65.0753571109183
65.1896848494805
65.2353349742964
65.2118737043921
65.1279315021474
64.992851580503
64.8160990188061
64.6071287162115
64.3752807843273
64.1297038864781
63.879305941869
63.6327308704837
63.3983596461123
63.1843338200898
62.9985998393207
62.8489728725728
62.7432194508869
62.6891497150027
62.6910194115286
62.7439370906466
62.8417743327989
62.9785365432402
63.1482811754108
63.3450478096514
63.5627993571458
63.7953741794216
64.0364493459586
64.27951560227
64.5178648858267
64.7445913983449
64.9526073063127
65.1346740803375
65.2835840680371
65.3963180456856
65.474920539996
65.5218568131433
65.5397045506148
65.5311297140676
65.4988638964587
65.4456834958814
65.374390954218
65.2877982397428
65.1887126913063
65.0799252873045
64.9642013563339
64.8442737088694
64.7228381406875
64.6025341646903
64.4857013909352
64.3744426888212
64.2708283741638
64.1769061037677
64.0947065578672
64.0262503786637
63.9735563607533
63.9386509094597
63.9235788067029
63.9304153513254
63.9612799722452
64.018351449118
64.1038849173081
64.2202308831791
64.3694848090541
64.5493599930741
64.7545903719687
64.9797816538695
65.2194247973956
65.4678649664257
65.7192795963776
65.967666230385
66.2068409200989
66.4304480494646
66.6319824190707
66.8048243111759
66.9422880302547
67.0376840732981
67.0844732024998
67.080654370409
67.0310417114922
66.9411664712017
66.8166608521852
66.6631961518468
66.4864300838572
66.2919637392142
66.0853083070207
65.8718614078741
65.6568926963719
65.4455382621585
65.2428032966751
65.0535724891696
64.8826276639525
64.7345386894881
64.611175793824
64.5119916519437
64.4364069104304
64.3838984664424
64.3539959641014
64.3462786484876
64.3603725418987
64.395947911304
64.4527169996518
64.5304319969385
64.6288832297989
64.7478975508741
64.8873369114132
65.0470971025079
65.2268115824488
65.4238072672978
65.6342634975026
65.8542693594365
66.079815383676
66.3067833678658
66.5309410814676
66.7479422124585
66.9533319349116
67.1425584659548
67.3109909370851
67.4539438247342
67.5667080657692
67.6445888241542
67.6832882541968
67.6838102434909
67.6513507162241
67.59130108946
67.5090919608033
67.4101535071381
67.2998845844858
67.1836306091265
67.0666701225429
66.9542098247545
66.8513878009391
66.7632846620675
66.6949423682472
66.6513906006326
66.6376709589787
66.6564531939414
66.7048673641672
66.7793157720598
66.8762349517994
66.9920693669135
67.1232489493563
67.2661703777986
67.4171820859118
67.5725730680191
67.7285656098972
67.8813121162202
68.0268962320396
68.1613384621956
68.2806082800487
68.3819479047301
68.4662231789123
68.5349589926788
68.5897159582907
68.6320836291265
68.6636743520277
68.6861178037294
68.7010562510262
68.7101405644096
68.7150270062993
68.7173748077964
68.7188445422192
68.7210972995856
68.7257950107155
68.7347401387669
68.7500900586409
68.7740636251439
68.8088913917318
68.8568219238671
68.9201296154667
69.0011240677782
69.102161114227
69.2256556041407
69.3740960935075
69.5500616330415
69.7562408941319
69.99545393346
70.2705084639855
70.5798408918615
70.9169322394571
71.2748155435884
71.6462669118316
72.0237662671457
72.399472511936
72.7652147739308
73.1125015817276
73.4325498504948
73.7163354054203
73.9546664001924
74.138280374455
74.258354192804
74.3140368953993
74.3119768741283
74.2593800450885
74.1636385021062
74.0322381444509
73.8726803122636
73.6924183800452
73.498809666476
73.2990825504879
73.1003183464321
72.9094472840921
72.733257854915
72.5783675969776
72.4477321523091
72.3384612137494
72.2471977991198
72.1706477561525
72.1055648720701
72.0487390938699
71.996987725998
71.9471495114473
71.8960815301066
71.8406588650991
71.7777769943294
71.704356860859
71.6173525623553
71.5142803559387
71.395449207938
71.2620896298914
71.1154347173904
70.9567149922721
70.7871542497253
70.6079658419989
70.4203494008084
70.2254879956065
70.0245457206142
69.8186656999061
69.6089684968954
69.3965509122434
69.1824851570921
68.9679822847664
68.7548174265905
68.54485639765
68.339919697367
68.1417850589882
67.9521908962749
67.7728405951066
67.6054076066817
67.4515413094625
67.3128736188535
67.1910263367768
67.0876192478269
67.0042789846457
66.9426487027212
66.9041151898993
66.8870479621082
66.8879983764859
66.903523953824
66.9301982391792
66.9645975992795
67.0032915387334
67.0428365173161
67.0797732847856
67.1106277688012
67.1319155554137
67.1401499899876
67.1318538990522
67.1035748904421
67.0519506749584
66.975787605205
66.876865613752
66.7572073274468
66.6188495091303
66.4638314712151
66.2941847131211
66.1119238219703
65.9190386515101
65.7174877730229
65.5091931741451
65.2960361670961
65.0798544567178
64.8624403108005
64.6455397701864
64.4308736741708
64.2205935713673
64.0172685801046
63.8234252025702
63.641533444312
63.4740157360019
63.3232575935929
63.1916199650053
63.0814532488254
62.9951130126619
62.9349774861788
62.9034669571779
62.9030652596163
62.9363436118184
63.0059871436672
63.1147909521021
63.2626702740576
63.4441981156158
63.6533643949959
63.8840742218872
64.1300984173764
64.3850352911849
64.6422842984065
64.8950324777136
65.1362547574057
65.3587292895578
65.5550689175455
65.7177696794947
65.839276883672
65.9120687522917
65.929631750896
65.8941500156118
65.8127899286377
65.6929128518888
65.5419297445831
65.3672242161907
65.1760923462402
64.9756993516524
64.7730527008297
64.57499095369
64.388187441149
64.2191678734081
64.074341068876
63.9600422107849
63.8825883564851
63.8477446237249
63.8549123085083
63.8996922388916
63.9777478088175
64.0848128955954
64.2166495694912
64.3690116601922
64.5376138991456
64.7181065466797
64.9060555716223
65.0969285805652
65.2860867936059
65.4687834312436
65.6401689097229
65.7953042289169
65.9307601965072
66.0478850751852
66.148988455935
66.2364358996573
66.3126382949523
66.3800427950721
66.4411254405454
66.4983855493755
66.5543419369101
66.6115310129766
66.6725067950577
66.7398428734169
66.8161363674132
66.9040139220109
67.0057284780823
67.1199825775403
67.2436184610163
67.3734250694773
67.5061455385033
67.6384725539748
67.7670468741104
67.8884591479831
67.9992551608407
68.0959446225434
68.1750135862674
68.2329405395882
68.2662161488694
68.2713665608256
68.2453032113842
68.188507228764
68.1036587097416
67.9935158953503
67.8608636953323
67.7084946770249
67.5391922892455
67.3557164023316
67.1607911926009
66.9570953545481
66.747254587459
66.5338362748148
66.3193462545837
66.1062275657791
65.8968607990448
65.6933852503984
65.4973903327075
65.3103452288289
65.1336898696274
64.9688395722322
64.8171902403163
64.6801241142708
64.5590160693331
64.4552404707932
64.3701786074209
64.3052267373759
64.2618047952771
64.2413658250827
64.245406221324
64.2754709703559
64.331691090557
64.4108318393182
64.5091952962574
64.6230763154568
64.7487421638613
64.8824163536328
65.0202667222862
65.1583978838282
65.2928482233093
65.4195916349929
65.5345442090629
65.6335760515024
65.7125283746518
65.7672359206078
65.7937810393474
65.7917719657334
65.763605478844
65.711808818889
65.638948259829
65.5476118854671
65.440394274793
65.3198831983471
65.1886483807553
65.0492323443195
64.9041433151486
64.7558501469714
64.6067791984227
64.4593130869871
64.3157912365165
64.1784246255176
64.0483361183111
63.9259383975569
63.8116297170554
63.7058076061685
63.6088699904241
63.5212163613749
63.4432489986031
63.3753742474222
63.3180038565347
63.2715563806594
63.2364586539571
63.2131473409655
63.2020705727173
63.2036896767748
63.2184436356448
63.2457871409168
63.2841009446165
63.3317158805878
63.386961855103
63.4481633351509
63.5136357113019
63.5816825389512
63.650593668908
63.7186442835267
63.7840948578404
63.8451920663696
63.9001706553639
63.9472562971045
63.9846694374706
64.0106869258119
64.025111522048
64.0294078981508
64.0251348329305
64.0138580637469
63.9971464815304
63.976569087261
63.9536927168275
63.9300805357231
63.9072913011482
63.8868793867902
63.8703955648249
63.8593885405142
63.8554072371421
63.860003832927
63.8747098646171
63.9001961477414
63.9361180360524
63.9820806664189
64.037696492257
64.1025840526221
64.1763668010308
64.2586719894581
64.3491296035795
64.4473713459029
64.5530296639727
64.6657368213337
64.7851240094188
64.9108204989737
65.042452830063
65.1796106690227
65.3215172791817
65.4671622642882
65.6155148115453
65.7655256814853
65.9161263959936
66.0662287608449
66.2147247392828
66.3604866937428
66.5023680128843
66.6392041406265
66.7698140228185
66.8930019854842
67.0075600562222
67.112290152961
67.2068700422676
67.2922105650491
67.3693312384608
67.439267996099
67.5030708181783
67.5618016615574
67.616532703669
67.6683449119682
67.7183269484451
67.767574417092
67.8171894609993
67.8682807149891
67.9219636194098
67.9793544819735
68.0407757534554
68.1049922369611
68.1705805126849
68.236106450837
68.3001249107201
68.3611800480159
68.4178062421675
68.4685296546802
68.511870426965
68.5463455229801
68.5704722173782
68.5827722241388
68.5817764537763
68.5660393890238
68.5352251745045
68.4911314013091
68.4358057932947
68.371295566869
68.2996413892145
68.222872568904
68.1430034743878
68.0620311654002
67.9819342150195
67.9046726958309
67.8321893023006
67.7664115829274
67.7092552598869
67.6626284733614
67.6277152627678
67.6033112365111
67.5877300925495
67.579296470399
67.5763419956859
67.5772021636349
67.5802140496861
67.5837148410489
67.5860411868934
67.5855293670695
67.5805162797417
67.5693412471308
67.5503486356709
67.5218912823266
67.4826035214161
67.4328627304829
67.3737368775669
67.3062968166014
67.2316118130629
67.1507471209032
67.0647619038106
66.9747074999837
66.8816260270924
66.7865493220606
66.6904982087276
66.5944820853203
66.499498822973
66.4065349662511
66.3165663531416
66.2305644758494
66.1494996740849
66.0743350764247
66.0060276363196
65.9455300252099
65.8937927948838
65.8517668104366
65.820405957994
65.8006701345112
65.793528530475
65.7999632202568
65.8209730792373
65.8575780517195
65.9108237991336
65.9815060441739
66.0684550544093
66.1696457243598
66.2830438951431
66.4066014378494
66.5382491150206
66.6758906724556
66.8173981883186
66.9606087207412
67.1033223061637
67.2433013683505
67.3782716020694
67.5059243955213
67.623920851415
67.7300504724157
67.8241702097608
67.9076540481463
67.9819345207427
68.0484655697799
68.1087189235098
68.1641810713749
68.2163508610839
68.2667377364486
68.3168606310731
68.3682475303786
68.4224357130516
68.4809726828526
68.5454178028677
68.6172205339139
68.69615759052
68.7807877447003
68.8696315902385
68.9611961052971
69.0539730927555
69.1464382656821
69.2370509954316
69.3242547410269
69.406478178409
69.4821370467623
69.5496367263734
69.6073755583119
69.6537489106005
69.6874423273791
69.70900574701
69.7197389928065
69.7209563054314
69.7139806735788
69.7001404743347
69.6807666076738
69.6571901340013
69.6307404194757
69.6027437904758
69.5745226960101
69.5473953751251
69.5226760254365
69.5016754577978
69.485307779325
69.4730505940314
69.4640569677221
69.4574819389269
69.4524818277783
69.4482137508698
69.4438353411904
69.4385046726195
69.4313803886509
69.4216220349851
69.408390595396
69.3908492298357
69.3681642130981
69.3395066227035
69.3041907945682
69.2618552566233
69.2121891786032
69.1548881388964
69.0896547962087
69.0161995754693
68.9342413650018
68.8435082217832
68.7437380814182
68.6346794692843
68.5160922091366
68.3877481253287
68.2494317346799
68.1009411528074
67.9424493613723
67.7752234644496
67.6007187682425
67.4203679324822
67.2355784147293
67.0477305422904
66.8581761862155
66.6682380092887
66.479209258437
66.2923540714986
66.1089082686914
65.9300806003348
65.7570544242977
65.590989789201
65.4330137723206
65.2838556368252
65.143790987963
65.0130711221281
64.8919497610577
64.7806839030867
64.6795346998903
64.5887683617236
64.5086570945162
64.4394800725578
64.381524450916
64.335086422173
64.3004723225531
64.2779997930443
64.267999001709
64.2707707938817
64.2856384156234
64.3109445669142
64.3449947948706
64.3860955514002
64.4325500096552
64.4826547690519
64.5346974504924
64.5869551897737
64.6376940415504
64.6851693086069
64.7276268115384
64.7633051121676
64.7904387000855
64.8072621455536
64.8121569644556
64.8050446300918
64.7867922694152
64.7582904594725
64.7204369946845
64.6741341938895
64.6202864473569
64.5597980114816
64.4935710561796
64.4225039675813
64.3474899064943
64.2694156212823
64.1891605122853
64.1075959436948
64.0255847978808
63.9440218444306
63.8642294418598
63.7877827087143
63.7162461576379
63.6511719517527
63.594102729109
63.5465751646488
63.5101242662636
63.4862884095588
63.4766151254614
63.482667665919
63.5060323857611
63.5483269935384
63.6112097411021
63.6963896412002
63.8054028450479
63.9366529081872
64.0862438874873
64.2501885240949
64.4244377237094
64.6048642894257
64.7872516733304
64.9672880067215
65.1405657185869
65.3025870728323
65.4487759433724
65.5744960991695
65.6750761856053
65.7458414621557
65.7821522369817
65.7811792459167
65.746511155588
65.6832633287693
65.5965963607004
65.4916756630922
65.3736391112516
65.247572875381
65.118495371943
64.9913491402787
64.8710003726973
64.762245800533
64.6698266608366
64.5984495351045
64.5528139601304
64.537641882796
64.5557257421407
64.6049073775209
64.6823222469629
64.7851569285525
64.9106252617583
65.055947075089
65.2183293353291
65.394949627687
65.5829419410199
65.7793847888919
65.9812917460316
66.1856045207431
66.3891887164875
66.5888324593625
66.7813721252618
66.9646614949434
67.137077991514
67.2969825024528
67.4427201809826
67.5726266608179
67.6850351125399
67.7782841241727
67.8507263734385
67.9007380426426
67.9267289094373
67.9271530282277
67.9005198981447
67.845405994854
67.7606866565565
67.6486902033225
67.5144089757236
67.3628798689591
67.1990848949134
67.0279300524854
66.8542316479527
66.6827097884165
66.5179887126874
66.3646036085737
66.227013589626
66.1096205642471
66.0167938226916
65.9529002909662
65.9223405066578
65.9278623240923
65.9660247429554
66.0320375090826
66.1211509207455
66.2286187430202
66.3496679852462
66.4794754320348
66.6131509817918
66.7457279699708
66.8721607367817
66.9873297386624
67.0860544963205
67.1631146161073
67.2132790129123
67.2319507406161
67.2198882560725
67.1806525892446
67.1178826215163
67.0352453591328
66.9364125038321
66.8250410024557
66.7047576455157
66.5791477052836
66.4517475433029
66.3260410753497
66.2054599581587
66.0933873557338
65.993165152632
65.908100168113
65.840399899104
65.7897804656451
65.7556346756659
65.737382917688
65.7344703654696
65.7463643704348
65.7725520218919
65.8125378573076
65.865841706912
65.9319966586986
66.0105471314833
66.1010470451283
66.2030580783386
66.3161480056241
66.4397522765207
66.5719780874578
66.7101606510364
66.8515858158214
66.9934942411019
67.133079617334
67.2674891987173
67.3938267495047
67.5091580002148
67.6105186954594
67.6949252910426
67.7593883239445
67.8009284346757
67.8165949675308
67.8036695460165
67.7626840822093
67.6969328509521
67.6098297973062
67.5047996796458
67.3852585206721
67.2545975429631
67.1161706076132
66.9732851144325
66.8291962772222
66.6871046575642
66.5501568246634
66.42144900615
66.3040336043597
66.2009283273473
66.114412673437
66.0443940274651
65.9903142562019
65.9516419108116
65.9278697869069
65.9185126508452
65.9231051150867
65.9411996472876
65.9723646994466
66.0161829448868
66.0722496121574
66.1401709061124
66.2195625074729
66.3100481431351
66.4111886232627
66.5214780316889
66.6385568100784
66.7600140505403
66.8834055062476
67.0062511139997
67.1260343178941
67.2402032638922
67.3461739347218
67.4413352881059
67.5230564483777
67.5886959818195
67.6356132593777
67.6611818767952
67.6628663213475
67.6404720355382
67.5967839547408
67.5348072103576
67.4575584451812
67.3680509982125
67.2692827863217
67.1642269010758
67.0558248990277
66.9469827340369
66.84056926063
66.7394172276592
66.6463266810669
66.5640707028694
66.495403430031
66.4423921580375
66.4041347186653
66.378936848802
66.3651260874691
66.3610456569409
66.36504919749
66.3754963480961
66.3907491528843
66.4091692814516
66.4291160578653
66.4489452980526
66.4670089585503
66.48165560116
66.4912316779411
66.4941332720852
66.4897492196647
66.4783852433327
66.4603852370834
66.4360964734024
66.4058689337728
66.3700546718634
66.329007210972
66.2830809770313
66.2326307682301
66.1780112620632
66.1195765603943
66.0576797729077
65.9926726391302
65.9249051890277
65.8549237334737
65.7841398656091
65.7141914654754
65.6467025758726
65.5832842457042
65.525536169254
65.4750491004257
65.4334080318629
65.4021961346136
65.3829994612861
65.3774124244669
65.3870440726154
65.4135251978292
65.4585163239571
65.5236899540535
65.6088916634068
65.7109184388017
65.8262688615706
65.9514102835513
66.0827660911642
66.2167067139248
66.3495444978248
66.4775325974017
66.5968680559665
66.7036992399854
66.7941377695347
66.8642750407501
66.910203367401
66.9280416769715
66.9149821428345
66.8727621685705
66.8044118551601
66.7130032909515
66.6016282653204
66.4733787461111
66.3313302102797
66.1785278819477
66.0179758735721
65.852629178917
65.6853884310644
65.5190973145203
65.3565425069264
65.2004560222031
65.0535158902408
64.9176937575482
64.793538021792
64.6814216891968
64.5817242864387
64.4948334454439
64.421146554863
64.3610724865057
64.3150334060675
64.2834666786273
64.2668268806684
64.2655879317937
64.280245360894
64.3113187233125
64.3593541875611
64.4249095317031
64.50732530021
64.6039078352898
64.7117604315718
64.8279606232811
64.9495510825781
65.0735331236956
65.1968628931783
65.316450347043
65.4291611258373
65.5318214376341
65.621226046126
65.6941494354302
65.7473601844262
65.7776385312128
65.7821830090238
65.7619784047907
65.7201542552905
65.6598943612211
65.5843944204686
65.4968458218676
65.4004225531591
65.2982712399848
65.1935042860541
65.0891960508368
64.9883819800685
64.894060595505
64.8091982530843
64.736736592259
64.6796026231785
64.6402798213665
64.6186888738719
64.6138470887526
64.6247981339025
64.6506085152445
64.6903631266242
64.7431611280041
64.8081121250913
64.8843326285318
64.9709427753045
65.0670632990187
65.1718127395284
65.284304885653
65.4036464478891
65.5289324501312
65.6588209878923
65.7910451941761
65.9231863139162
66.0527866218185
66.1773502130693
66.2943456766858
66.4012107210443
66.4953588099034
66.5741878493916
66.6350909417219
66.6754691897723
66.6927464983115
66.684386273046
66.6479098686487
66.5816275612394
66.4889747432878
66.3755893371612
66.2470896867166
66.109036034077
65.9669103415346
65.8261054730764
65.6919233985841
65.5695820426661
65.4642304199182
65.3809717745216
65.3248945707118
65.3011113598354
65.3148057801503
65.3712845520021
65.4733702936853
65.616676742985
65.7956253278429
66.0046375294701
66.2380768369905
66.490199861222
66.7551166644023
67.0267606900707
67.2988689434521
67.5649732726907
67.8184037256348
68.0523049926332
68.2596668781182
68.4333713367206
68.5690799417323
68.6710955956225
68.7455070530448
68.7985356575927
68.8364909334193
68.8657371544042
68.8926713850009
68.9237132750537
68.9653067666172
69.0239338380688
69.1061404719457
69.2185751906036
69.3680407629639
69.5615125722767
69.8019369607131
70.0847276666308
70.40448313714
70.7557085601681
71.1327574463692
71.5297809414119
71.9406853225981
72.3590984694323
72.7783463888676
73.1914411125411
73.5910814501465
73.9696681605042
74.3193955876379
74.6356433102263
74.9189072166018
75.1702389613072
75.3908186338493
75.5819440160786
75.745019479855
75.8815447121993
75.993103445866
76.0813523610688
76.1480103095982
76.1948479964547
76.2236782370048
76.2365155374504
76.2368669601431
76.2290102292825
76.2172334093619
76.205821842052
76.1990561483977
76.2012150444635
76.2165829645958
76.249462511108
76.3041917966815
76.3851668166946
76.4968690843603
76.643876991135
76.8272100801818
77.0400905009172
77.2746485081417
77.5228616678646
77.7765163224512
78.0271856278707
78.2662252405477
78.484787862613
78.6738578201435
78.8243066288781
78.9269700784171
78.9727473415652
78.9557227665141
78.8802198036072
78.7528561846122
78.5803893561655
78.369635225981
78.1273980174932
77.8604119278309
77.5752948260894
77.2785138553126
76.9763625176556
76.6749486269354
76.3801924007875
76.097745927634
75.8307610503628
75.5797913117544
75.345263404544
75.1276085634505
74.9272649533015
74.7446801190063
74.5803135095966
74.4346390900543
74.3081480562839
74.2013516703877
74.1147842354049
74.0490062309168
74.0045019021171
73.9793585362135
73.9692713103196
73.9698567980438
73.9767435794493
73.9855622058662
73.9919403354197
73.9915030336331
73.979878244796
73.9527074254562
73.9056612914862
73.8344605650828
73.7349015189065
73.6030229599095
73.4386495919037
73.2456369402712
73.0280352438182
72.7898612450833
72.535074639305
72.2675590903001
71.9911077089697
71.7094128165736
71.4260597626263
71.1445245348376
70.8681748840742
70.6002746887129
70.3439912978522
70.1021168591149
69.8753397875982
69.6634675765296
69.4663227917788
69.2837461928248
69.115596337094
68.9617492389098
68.8220980813752
68.6965529798121
68.5850407956657
68.4875050000713
68.4039055865471
68.3342190325563
68.2784383099455
68.2364564686333
68.2071706903342
68.1889755495781
68.180276610952
68.179489942708
68.1850380746931
68.1953467011976
68.2088421172865
68.2239493828881
68.2390912131836
68.2526875967022
68.2631561439727
68.2689131696165
68.2683755093776
68.2600693983813
68.2436737092928
68.2195725796659
68.1881644426537
68.1498511721835
68.1050372575958
68.054129021885
67.9975338854295
67.9356596767307
67.8689139913326
67.7977035997606
67.7224339050166
67.643508449883
67.5613284740307
67.4763027964048
67.3891113798175
67.3007246542197
67.212118060959
67.1242568844131
67.0380963600527
66.9545820552535
66.8746505156105
66.7992301701583
66.7292424898441
66.6656033948336
66.6092249077423
66.5610170516687
66.5218899939645
66.4927564277258
66.4741288311796
66.4650518645126
66.4642440143263
66.4704307486692
66.4823415893367
66.4987076782681
66.5182598314352
66.5397270771389
66.5618356783677
66.5833086408293
66.6028657094508
66.6192238565437
66.6310982644425
66.6372038042392
66.6363039239828
66.6278028828942
66.6115691487657
66.5874868929381
66.555446133965
66.5153430083881
66.4670800339185
66.410566363967
66.3457180324733
66.2724581879969
66.1907173160481
66.1004334486678
66.0015523602905
65.8940277489656
65.777821413017
65.6532957729435
65.5222387666646
65.3867382484854
65.2488509742012
65.1106006317982
64.9739771630531
64.8409373224796
64.7134064203334
64.5932811997341
64.4824338041341
64.3827168001604
64.295969232111
64.2240236979983
64.1687144529954
64.1318864011882
64.11460411095
64.1153045149256
64.1319052161955
64.1623453742831
64.2045761118307
64.2565522791284
64.3162255368922
64.3815387381517
64.4504216069723
64.5207877251271
64.5905328477933
64.6575345758044
64.719653414851
64.7747352511252
64.8206209069428
64.8558289329236
64.8802087775046
64.8937728741026
64.8965445467055
64.8885579209976
64.8698578087998
64.8404995664343
64.8005489277355
64.7500818125471
64.6891841116408
64.6179514490985
64.5364889232821
64.4449108276017
64.3433403523619
64.231922535595
64.1117368018093
63.9853675571582
63.855503952116
63.7247942815054
63.5958443956142
63.471218281324
63.3534407236457
63.2450019642337
63.14836428633
63.0659704747243
63.0002541243759
62.9536518022111
62.9286171033935
62.927636686471
62.9532481537066
63.0067415767446
63.0850985202975
63.18442157268
63.3008102451091
63.4303370023588
63.5690280398474
63.7128488536149
63.8576947389242
63.9993864180838
64.1336710371611
64.2562287824143
64.3626853480191
64.4486304345353
64.5096423705917
64.5413272225361
64.5414460181671
64.5126943265378
64.4585219261984
64.3824215513868
64.2879035333435
64.1784741427409
64.0576177606906
63.9287829163748
63.7953721573473
63.6607356644945
63.5281684873304
63.4009112559644
63.2821542226701
63.1750444973
63.0826963657056
63.0076170150303
62.9497376096804
62.9083107547486
62.8826191139415
62.8719718328527
62.8757011994568
62.8931595346763
62.9237162895884
62.9667553289285
63.0216723833011
63.0878726549781
63.1647685643928
63.2517776264608
63.348320447705
63.4538188368591
63.5675382354071
63.6877332455844
63.8122358859636
63.9388449594024
64.0653246516879
64.1894036703136
64.3087759730231
64.4211031505977
64.5240185241405
64.6151330076473
64.692042771656
64.7523387230434
64.79361778953
64.8134959652915
64.8096230600046
64.7805372573752
64.7278869638304
64.6540562770362
64.5614530254958
64.4524941767852
64.3295929987739
64.195148034459
64.0515339140815
63.9010939968793
63.7461348093944
63.588922227724
63.4316793373199
63.2765858956002
63.1257793193605
62.9813571203447
62.8452935455974
62.7188515080273
62.6029595473173
62.4985392848195
62.4065107633141
62.3277961295905
62.2633235931383
62.214031677215
62.1808737838872
62.1648231004972
62.1668778815
62.1880671468653
62.2294568464039
62.292156548641
62.3773267234522
62.4861209397278
62.6172842802732
62.7664101908621
62.9288329419104
63.0998081491704
63.2744955179856
63.4479486983022
63.6151126403413
63.77082888652
63.9098492305439
64.0268581142014
64.1165040114369
64.1734398644843
64.192372387715
64.1681197448277
64.095834627763
63.9758654158778
63.8145698117733
63.6186921772477
63.3949496374232
63.1499688104219
62.8902370291834
62.6220677567453
62.3515795427896
62.0846876433692
61.827107317035
61.5843678050788
61.3618360863512
61.164749654204
60.9982577833557
60.8674710305143
60.777085860743
60.7266642421509
60.7124646665904
60.7308288847468
60.7782029655071
60.8511010576347
60.9460737357511
61.0596805437876
61.1884664949538
61.328942410529
61.4775690834757
61.6307453385981
61.7848001291291
61.9359888596829
62.0804941561343
62.2144387764351
62.3351544698831
62.4426376555994
62.5372468517637
62.6193625104809
62.689385380489
62.747734855988
62.7948473238648
62.831174520981
62.8571819124963
62.8733471014364
62.8801582788997
62.8781127234469
62.8677153573359
62.8494773663895
62.8239148893932
62.791647054826
62.7537736692059
62.7115367575179
62.6661739757546
62.6189171189057
62.5709911487585
62.5236137062379
62.4779951012819
62.4353387728546
62.3968422120871
62.3636983426754
62.337097354537
62.3182289893218
62.3082852796886
62.3084637482985
62.3199128756175
62.3426324939904
62.375562714079
62.417609766217
62.4676825464612
62.5246895843578
62.5875363918221
62.6551231896355
62.7263430117005
62.8000801902897
62.8752092280728
62.9505940647071
63.0250877472096
63.0975325141796
63.1667603041681
63.2316003129521
63.2912431854901
63.3454337352827
63.3939641857671
63.4366285883716
63.4732231828903
63.5035467679499
63.52740108064
63.5445911842875
63.5549258632705
63.5582180236795
63.5542850985491
63.5429494563071
63.5240388110078
63.4973866328489
63.4628373448466
63.4210496394261
63.3743917737771
63.3254384700953
63.2767497106776
63.2308699440817
63.1903293476638
63.1576471162413
63.1353367543594
63.1259133640759
63.1319029412742
63.1558537213641
63.2003496501551
63.2680260982808
63.361587988771
63.4838294533833
63.6358836746664
63.8135814777466
64.0116992869468
64.2249233288326
64.4478186044219
64.6748064650892
64.9001513169973
65.1179571152118
65.3221743793986
65.5066184586761
65.6649996834628
65.7909658575463
65.8781572573008
65.9202739151113
65.9114487042329
65.8518976283675
65.7474517051646
65.6042704106139
65.4285628759446
65.2265223718918
65.0042725534286
64.7678256490181
64.5230524063206
64.2756633311188
64.0312005759466
63.7950397428439
63.5724008515244
63.3683677798659
63.1879155984231
63.0359148221501
62.9150704564664
62.8246401387906
62.7636534048634
62.7312300461854
62.7265723448048
62.7489580947494
62.7977343101068
62.8723115327456
62.9721586636717
63.0967982513297
63.2458021780706
63.4187876927278
63.6154137429564
63.8353775658479
64.0783936464769
64.3429463184349
64.6254173670499
64.9218878980443
65.228305474146
65.5404670664191
65.8540069084256
66.1643897684792
66.4669102174792
66.7566985017145
67.0287336252294
67.2778641981189
67.4988375090345
67.6863371268774
67.8350343296859
67.9417324552878
68.0086490901666
68.0389919968241
68.0361066074566
68.0034415266004
67.9445166571997
67.8628944146051
67.762154369177
67.6458715434203
67.5175984875693
67.3808511707478
67.2390986546637
67.0957564637809
66.9541835298423
66.8173896230504
66.6862643472033
66.5607919729539
66.4409555792218
66.3267406695694
66.2181351762807
66.1151294670633
66.0177163544111
65.9258911076689
65.8396514678436
65.7589976652189
65.6839324398291
65.6144610648604
65.5505913730516
65.4923332072923
65.4394671487476
65.3911930765817
65.3466269016386
65.3048907557917
65.2651121086933
65.2264231224951
65.1879602406357
65.1488640073902
65.1082791152171
65.065354677016
65.0192447202445
64.9691088994271
64.9141134229421
64.8534321890926
64.7862580090853
64.7123437730809
64.6322754871381
64.5467056875747
64.4562833902781
64.3616530879246
64.2634538815835
64.1623187451342
64.0588739202726
63.9537384393357
63.847523772753
63.7408335976079
63.6342636835856
63.5284018924649
63.4238282872937
63.3211145396174
63.2206237157787
63.122250670367
63.0258266953575
62.9311853546355
62.8381623809751
62.746595582578
62.6563247588536
62.5671916251382
62.4790397460755
62.3917144773926
62.3050629158214
62.2189338569316
62.133177760645
62.0476467242175
61.9621944624772
61.8767374590253
61.7918511483643
61.708505080714
61.6276641653617
61.5502835801286
61.4773097337402
61.4096815142299
61.3483318180242
61.2941893561686
61.2481807363086
61.2112328215333
61.1842753700334
61.1682439627291
61.1640832296273
61.1727503896895
61.195219123506
61.2319849742443
61.2815667845277
61.3419903860458
61.4112787556221
61.4874455746706
61.5684900499826
61.6523930054086
61.7371142664907
61.8205913691932
61.9007396294562
61.9754536121846
62.0426100363015
62.1000721464222
62.1456955713936
62.1773356752746
62.1929511319469
62.1921710666013
62.1760523811786
62.1457180635301
62.1023073267645
62.0469706593174
61.9808652601866
61.9051508824173
61.8209861012799
61.72952501751
61.6319144005243
61.5292912717476
61.4227809241118
61.3134953704173
61.2025322105844
61.0909739058451
60.9798427678672
60.8698598840539
60.7616229553756
60.6557210168936
60.5527351595073
60.453239074971
60.3577997054156
60.2669779943352
60.1813297365757
60.1014065255061
60.0277567962672
59.9609269647742
59.9014626629974
59.8499100719679
59.8068173549517
59.7727361943138
59.7481106479329
59.7325067107997
59.7250817090815
59.7249985213391
59.7314258837899
59.7435364616689
59.7605051575314
59.7815076514978
59.8057191702864
59.8323134834414
59.8604621264659
59.8893338516019
59.9180943077709
59.945905951701
59.9719281925076
59.9953177719642
60.0153674537615
60.0324538850108
60.0474681374719
60.0613066880671
60.0748679060201
60.0890518365627
60.1047602537649
60.1228969838669
60.1443685007303
60.1700847956079
60.200960524364
60.2379164365625
60.2818810924974
60.3337928762797
60.3946023155402
60.4652747211944
60.5465927022491
60.6382904650825
60.7397553790004
60.8503753617392
60.9695370786721
61.0966240401673
61.231014815253
61.3720813600152
61.5191874606725
61.6716872926875
61.8289240986239
61.9902289887167
62.1549198693041
62.322300505365
62.4916597244051
62.6622707698342
62.8333908127583
63.0042606317644
63.1741044707808
63.3421300854427
63.5075289885462
63.669476905135
63.8271344474898
63.9796480197773
64.1261509613328
64.2657649364853
64.3976015774715
64.5207643853047
64.6343508914714
64.7374550810107
64.8291700748952
64.9085910666945
64.9748185052749
65.0269615118139
