Value(μV)
-3.62407302856445
-5.1499981880188
-10.3953666687012
-11.1583299636841
-7.34351634979248
-7.0574049949646
-9.06018257141113
-9.06018257141113
-10.3953666687012
-19.1694374084473
-27.2759170532227
-24.7962875366211
-14.4009208679199
-5.43610954284668
-6.29444265365601
-12.7796258926392
-11.1583299636841
-3.8148136138916
-6.86666440963745
-17.0712909698486
-22.125919342041
-19.360179901123
-11.5398111343384
-8.3925895690918
-12.0166625976563
-8.96481227874756
3.62407302856445
7.82036781311035
2.76573991775513
1.43055510520935
-0.0953703373670578
-4.7685170173645
-5.7222204208374
-3.05185079574585
-0.0953703373670578
-7.34351634979248
-15.6407356262207
-11.1583299636841
-12.6842555999756
-17.0712909698486
-13.5425882339478
-10.7768487930298
-11.0629596710205
-14.9731435775757
-15.4499950408936
-8.96481227874756
-7.43888664245605
-10.3953666687012
-11.8259220123291
-9.34629344940186
-8.20184898376465
-10.3953666687012
-9.63240432739258
-12.588885307312
-16.4990692138672
-13.1611070632935
-11.2537002563477
-18.4064750671387
-25.7499923706055
-22.4120292663574
-23.2703628540039
-30.995361328125
-25.0823993682861
-10.7768487930298
-10.2999963760376
-14.7824029922485
-13.6379585266113
-16.4036979675293
-16.2129573822021
-12.2074031829834
-15.7361059188843
-14.3055505752563
-6.29444265365601
-6.86666440963745
-13.8286991119385
-15.35462474823
-15.5453653335571
-24.7962875366211
-26.9898052215576
-19.1694374084473
-20.2185115814209
-18.8833274841309
-8.58333015441895
-11.9212923049927
-13.1611070632935
-1.04907369613647
-3.62407302856445
-5.43610954284668
-3.05185079574585
-17.6435127258301
-23.5564746856689
-18.2157344818115
-18.6925868988037
-16.1175880432129
-14.2101802825928
-22.0305480957031
-25.9407329559326
-19.6462898254395
-9.537034034729
-0.572222054004669
1.43055510520935
1.33518481254578
7.82036781311035
9.537034034729
1.71666610240936
-1.62129580974579
-3.62407302856445
-1.14444410800934
3.62407302856445
-0.858333051204681
-1.52592539787292
-0.667592406272888
-2.95648050308228
0.667592406272888
4.10092449188232
-1.71666610240936
-8.77407169342041
-6.1037015914917
2.00277709960938
6.96203470230103
3.43333220481873
-4.38703584671021
-6.86666440963745
-4.48240613937378
-6.96203470230103
-13.6379585266113
-12.2074031829834
-8.67870044708252
-13.7333288192749
-19.8370304107666
-16.7851791381836
-11.635181427002
-10.2999963760376
-8.0111083984375
-9.25092315673828
-9.44166374206543
-10.0138854980469
-13.1611070632935
-4.29166507720947
5.34073925018311
3.91018390655518
4.10092449188232
5.53147983551025
1.14444410800934
-2.1935179233551
-2.76573991775513
-1.9074068069458
0.0953703373670578
-1.04907369613647
-4.57777643203735
-16.9759197235107
-43.9657249450684
-78.5851593017578
-106.814781188965
-114.158294677734
-112.060150146484
-110.152740478516
-85.5471954345703
-39.7694320678711
-17.1666603088379
-21.2675857543945
12.0166625976563
136.474960327148
331.793426513672
519.768371582031
656.434020996094
783.753479003906
941.209899902344
1060.99499511719
1149.9755859375
1358.83654785156
1514.19482421875
1353.97265625
1095.42370605469
914.792297363281
711.653503417969
445.379486083984
144.104583740234
-149.63606262207
-394.070251464844
-564.783142089844
-683.328491210938
-767.158996582031
-807.69140625
-819.421936035156
-804.067321777344
-765.15625
-733.11181640625
-720.522888183594
-717.280334472656
-714.037719726563
-706.122009277344
-700.590515136719
-694.48681640625
-667.306274414063
-625.820190429688
-591.010009765625
-562.684997558594
-536.839660644531
-512.138732910156
-489.917449951172
-476.184112548828
-458.159118652344
-433.267456054688
-415.051727294922
-389.969329833984
-354.491546630859
-324.640625
-295.552673339844
-268.753631591797
-257.499908447266
-253.208251953125
-241.000854492188
-216.490676879883
-187.593460083008
-163.560134887695
-139.622177124023
-113.967559814453
-96.4194107055664
-82.5907135009766
-69.4296035766602
-63.8027572631836
-55.5055389404297
-44.6333198547363
-31.8536930084229
-4.57777643203735
21.0768451690674
40.0555419921875
58.5573883056641
66.5684967041016
72.8629379272461
79.9203414916992
81.827751159668
83.925895690918
92.318489074707
102.904594421387
107.577743530273
118.068481445313
137.237915039063
150.780502319336
155.83512878418
159.077728271484
163.941619873047
167.470321655273
169.663833618164
175.1953125
178.437911987305
176.530502319336
182.920318603516
194.746231079102
198.370300292969
201.136047363281
203.138824462891
195.986053466797
192.743453979492
195.509201049805
199.228637695313
205.999938964844
207.525863647461
200.75456237793
197.893447875977
199.324005126953
200.9453125
206.572158813477
203.997161865234
192.361968994141
190.263824462891
189.024017333984
180.726791381836
177.865676879883
180.822158813477
180.154571533203
177.961059570313
180.917541503906
177.48420715332
164.418472290039
165.276794433594
175.767532348633
170.80827331543
162.3203125
163.464767456055
162.606430053711
161.938842773438
166.61198425293
170.426803588867
170.903656005859
166.61198425293
150.494400024414
134.853652954102
128.654586791992
123.123107910156
121.883293151855
126.365699768066
130.657363891602
133.232360839844
134.090698242188
133.041625976563
126.07958984375
119.68977355957
120.262001037598
124.744407653809
127.891624450684
128.082366943359
133.041625976563
139.240692138672
138.191619873047
133.041625976563
126.937919616699
123.790702819824
126.747184753418
130.085144042969
130.657363891602
132.850875854492
137.524032592773
139.622177124023
138.000885009766
133.709213256836
126.842552185059
114.444404602051
100.424964904785
100.52033996582
101.950889587402
93.5583038330078
86.5009002685547
78.394416809082
67.9990539550781
55.219425201416
40.6277656555176
29.5648059844971
16.6898097991943
8.3925895690918
3.5287024974823
-10.4907369613647
-17.0712909698486
-15.5453653335571
-21.3629570007324
-28.8972129821777
-38.2435073852539
-48.5435028076172
-55.4101676940918
-61.8953514099121
-71.7184982299805
-83.2583084106445
-88.9805297851563
-85.3564529418945
-87.9314498901367
-101.283302307129
-105.002746582031
-103.76293182373
-112.441627502441
-119.403663635254
-123.027740478516
-126.07958984375
-127.224029541016
-132.850875854492
-137.905517578125
-133.804580688477
-125.984222412109
-129.894409179688
-144.390701293945
-146.679580688477
-139.622177124023
-138.096252441406
-137.333282470703
-135.521255493164
-134.853652954102
-139.812911987305
-149.159210205078
-152.211059570313
-149.349945068359
-145.058288574219
-134.472183227539
-130.657363891602
-139.336059570313
-138.668472290039
-136.951812744141
-144.772171020508
-146.393478393555
-140.671249389648
-137.714767456055
-134.186065673828
-124.839775085449
-125.602737426758
-133.518478393555
-128.940704345703
-123.599960327148
-127.605514526367
-126.747184753418
-120.166625976563
-115.588851928711
-117.210144042969
-125.316627502441
-126.842552185059
-121.501815795898
-118.545333862305
-110.438850402832
-100.52033996582
-99.7573776245117
-101.187927246094
-93.8444137573242
-90.4110794067383
-94.7981185913086
-88.7897872924805
-83.6397857666016
-86.6916351318359
-84.1166381835938
-82.9721984863281
-84.7842330932617
-83.6397857666016
-81.4462738037109
-78.394416809082
-75.4379425048828
-70.5740509033203
-65.805534362793
-67.4268264770508
-70.3833084106445
-67.1407165527344
-57.3175735473633
-47.5897979736328
-49.5925750732422
-46.6360969543457
-33.6657295227051
-36.2407302856445
-44.8240585327148
-43.7749862670898
-40.913875579834
-35.382396697998
-29.5648059844971
-28.1342506408691
-25.5592517852783
-18.3111057281494
-12.1120328903198
-9.44166374206543
-8.10647869110107
-4.95925760269165
-0.667592406272888
-3.62407302856445
-6.6759238243103
-4.48240613937378
-7.91573810577393
-10.2999963760376
-6.86666440963745
1.23981440067291
10.7768487930298
8.77407169342041
7.53425693511963
12.2074031829834
10.204626083374
10.3953666687012
18.8833274841309
27.2759170532227
30.1370277404785
23.2703628540039
11.7305517196655
8.0111083984375
18.2157344818115
26.7990646362305
22.9842510223389
26.6083240509033
38.9110984802246
43.4888763427734
47.2083168029785
47.8759117126465
37.8620262145996
32.9027671813965
35.5731353759766
33.4749908447266
33.3796195983887
39.3879508972168
41.3907279968262
40.6277656555176
45.300910949707
52.453685760498
54.2657241821289
49.6879463195801
44.9194297790527
48.066650390625
55.4101676940918
54.5518341064453
47.7805404663086
50.7370223999023
59.7972030639648
57.2222023010254
51.1185035705566
51.5953521728516
53.6935005187988
53.121280670166
47.8759117126465
38.0527648925781
27.4666576385498
23.5564746856689
27.5620288848877
38.0527648925781
48.6388740539551
44.251838684082
40.1509132385254
48.8296127319336
54.4564628601074
50.832389831543
44.4425773620605
39.3879508972168
35.6685066223145
31.7583236694336
29.1833248138428
37.6712837219238
48.066650390625
45.9685020446777
41.4860992431641
43.1073951721191
46.9222068786621
51.8814659118652
55.6962776184082
53.2166481018066
44.6333198547363
41.1999855041504
45.4916534423828
42.3444290161133
32.9981384277344
30.70924949646
34.9055442810059
38.5296173095703
39.5786895751953
40.1509132385254
39.1018409729004
41.3907279968262
46.1592445373535
38.9110984802246
32.6166572570801
38.8157272338867
39.5786895751953
31.4722118377686
27.657398223877
32.2351760864258
36.5268402099609
36.9083213806152
36.431468963623
38.4342460632324
41.4860992431641
39.6740608215332
36.1453590393066
35.382396697998
30.5185089111328
23.2703628540039
21.2675857543945
21.0768451690674
18.6925868988037
13.5425882339478
6.38981294631958
6.77129411697388
15.4499950408936
17.5481433868408
13.1611070632935
10.2999963760376
9.9185152053833
10.0138854980469
7.53425693511963
7.24814605712891
13.3518476486206
19.8370304107666
17.8342533111572
8.67870044708252
7.53425693511963
12.7796258926392
14.5916624069214
9.44166374206543
5.7222204208374
10.9675893783569
10.7768487930298
9.34629344940186
14.7824029922485
16.4036979675293
13.0657367706299
7.0574049949646
3.8148136138916
2.28888821601868
-2.38425850868225
-2.5749990940094
-0.667592406272888
-4.86388731002808
-10.1092557907104
-7.82036781311035
-2.00277709960938
-4.29166507720947
-2.00277709960938
4.1962947845459
0.47685170173645
0.762962698936462
7.0574049949646
8.10647869110107
5.53147983551025
3.24259161949158
5.34073925018311
7.53425693511963
3.24259161949158
-6.86666440963745
-11.9212923049927
-3.8148136138916
-1.14444410800934
-9.25092315673828
-14.1148099899292
-20.1231422424316
-25.7499923706055
-20.2185115814209
-19.2648086547852
-21.6490669250488
-15.9268465042114
-15.9268465042114
-12.8749961853027
-7.43888664245605
-16.4990692138672
-16.022216796875
-4.1962947845459
-6.58055353164673
-15.35462474823
-19.6462898254395
-21.0768451690674
-17.8342533111572
-14.5916624069214
-18.8833274841309
-25.177770614624
-21.1722145080566
-12.7796258926392
-13.1611070632935
-16.8805503845215
-16.022216796875
-10.4907369613647
-3.5287024974823
-6.86666440963745
-12.9703664779663
-9.15555286407471
-10.4907369613647
-13.3518476486206
-4.38703584671021
-4.00555419921875
-14.9731435775757
-15.8314762115479
-6.96203470230103
-2.38425850868225
-7.0574049949646
-13.1611070632935
-9.25092315673828
-0.286111027002335
-4.10092449188232
-10.8722190856934
-12.0166625976563
-20.7907333374023
-22.6981410980225
-15.5453653335571
-22.2212886810303
-30.3277683258057
-29.3740653991699
-26.6083240509033
-18.787956237793
-18.2157344818115
-30.8999900817871
-33.5703582763672
-26.5129547119141
-23.5564746856689
-24.891658782959
-25.8453617095947
-20.6953639984131
-15.5453653335571
-14.0194396972656
-12.1120328903198
-7.72499752044678
-0.858333051204681
4.38703584671021
1.23981440067291
-6.58055353164673
-4.1962947845459
2.28888821601868
8.58333015441895
22.4120292663574
20.5999927520752
-0.858333051204681
-4.29166507720947
8.77407169342041
10.3953666687012
0
-9.537034034729
-11.4444408416748
-14.3055505752563
-19.6462898254395
-16.022216796875
-12.7796258926392
-13.8286991119385
-14.5916624069214
-18.5018463134766
-11.7305517196655
-1.81203651428223
-7.6296272277832
-14.4009208679199
-24.6055469512939
-34.9055442810059
-26.9898052215576
-24.891658782959
-29.1833248138428
-16.7851791381836
-9.9185152053833
-14.3055505752563
-15.1638841629028
-17.6435127258301
-17.1666603088379
-18.5018463134766
-23.6518440246582
-22.9842510223389
-17.5481433868408
-6.77129411697388
-4.10092449188232
-12.0166625976563
-10.2999963760376
-6.86666440963745
-12.7796258926392
-17.2620315551758
-12.6842555999756
-0.572222054004669
7.0574049949646
6.58055353164673
4.95925760269165
-10.5861072540283
-38.0527648925781
-60.5601654052734
-91.9370040893555
-115.016632080078
-106.337928771973
-108.340705871582
-115.207366943359
-78.9666442871094
-34.3333206176758
-18.8833274841309
-2.8611102104187
61.1323890686035
216.204559326172
419.915618896484
580.710021972656
698.68310546875
840.784912109375
1008.44598388672
1117.64501953125
1259.36535644531
1468.70324707031
1445.43286132813
1208.15148925781
999.099670410156
788.426574707031
567.262756347656
307.473968505859
-24.2240657806396
-303.468414306641
-481.238739013672
-610.084045410156
-714.705322265625
-784.802551269531
-808.835876464844
-798.821960449219
-771.355285644531
-745.891418457031
-734.637756347656
-726.53125
-721.667358398438
-724.814575195313
-721.667358398438
-707.64794921875
-674.459045410156
-628.013671875
-589.579467773438
-554.673889160156
-529.591491699219
-516.716491699219
-501.838714599609
-491.347991943359
-485.053558349609
-466.551696777344
-439.847991943359
-410.187835693359
-368.034149169922
-324.9267578125
-295.743438720703
-277.527679443359
-268.658233642578
-259.311950683594
-245.197143554688
-230.319366455078
-208.193450927734
-179.58235168457
-150.685134887695
-121.501815795898
-94.7981185913086
-69.8110885620117
-53.4073905944824
-52.0722045898438
-53.8842430114746
-46.2546157836914
-27.8481388092041
-12.4935140609741
-0.572222054004669
22.6981410980225
49.783317565918
70.0971984863281
80.111083984375
81.6370086669922
90.0296020507813
101.664779663086
110.343482971191
119.59440612793
127.986999511719
138.096252441406
141.815689086914
143.246246337891
150.112915039063
152.306427001953
157.742538452148
170.140686035156
178.342529296875
184.160125732422
189.405502319336
190.931427001953
189.500869750977
189.310119628906
194.841598510742
201.899002075195
203.329559326172
195.890670776367
189.405502319336
194.078643798828
198.65641784668
196.749008178711
196.65364074707
195.032348632813
189.977722167969
189.691604614258
196.081420898438
203.234191894531
206.572158813477
206.572158813477
202.185119628906
189.977722167969
179.105499267578
179.010131835938
184.160125732422
191.408279418945
197.035125732422
193.887893676758
187.116607666016
184.636978149414
179.773086547852
165.753646850586
149.731430053711
141.052734375
148.682357788086
163.274017333984
167.279571533203
166.61198425293
166.325866699219
164.704574584961
163.655502319336
159.459213256836
154.595321655273
150.589767456055
140.957366943359
133.232360839844
134.56755065918
135.235137939453
129.989776611328
125.030517578125
125.507369995117
129.608291625977
131.324951171875
126.556442260742
117.114776611328
109.00830078125
112.918479919434
122.83699798584
123.886070251465
124.362922668457
128.273101806641
130.180511474609
128.845321655273
121.501815795898
117.877738952637
122.169403076172
124.553665161133
124.362922668457
122.646255493164
125.221252441406
128.654586791992
122.646255493164
115.588851928711
103.095336914063
83.6397857666016
76.3916397094727
74.1027526855469
67.903678894043
64.6610870361328
57.4129447937012
51.4999847412109
46.9222068786621
30.6138782501221
17.4527721405029
5.7222204208374
-15.5453653335571
-25.8453617095947
-24.4148063659668
-28.5157318115234
-39.6740608215332
-48.6388740539551
-56.6499824523926
-70.1925735473633
-80.3018264770508
-89.8388595581055
-103.095336914063
-105.76570892334
-101.474044799805
-100.424964904785
-102.809226989746
-110.438850402832
-112.537002563477
-107.673110961914
-111.583297729492
-122.741630554199
-126.842552185059
-119.022186279297
-115.398109436035
-118.640701293945
-119.022186279297
-118.44995880127
-120.73885345459
-124.267555236816
-125.221252441406
-129.131439208984
-129.989776611328
-121.597183227539
-123.695327758789
-132.755508422852
-129.512924194336
-123.695327758789
-130.561996459961
-139.240692138672
-140.575881958008
-142.006439208984
-139.908294677734
-141.720321655273
-146.584213256836
-137.333282470703
-127.414772033691
-129.989776611328
-134.949035644531
-135.235137939453
-131.515701293945
-123.790702819824
-117.59162902832
-117.305519104004
-117.686996459961
-121.883293151855
-121.787925720215
-115.684219360352
-119.880516052246
-122.360145568848
-119.880516052246
-114.539779663086
-105.574966430664
-101.474044799805
-97.3731155395508
-97.0870056152344
-98.4221878051758
-94.7981185913086
-97.0870056152344
-97.6592254638672
-90.6018218994141
-91.1740417480469
-95.2749710083008
-90.0296020507813
-83.0675659179688
-78.5851593017578
-74.2934951782227
-75.5333099365234
-77.6314544677734
-76.3916397094727
-74.7703475952148
-66.7592391967773
-59.8925743103027
-63.3259048461914
-65.2333145141602
-61.2277565002441
-54.7425765991211
-49.6879463195801
-52.6444282531738
-52.1675758361816
-46.1592445373535
-43.4888763427734
-34.5240631103516
-28.0388793945313
-30.995361328125
-28.3249912261963
-26.6083240509033
-24.7962875366211
-12.3981437683105
-6.6759238243103
-10.3953666687012
-4.48240613937378
7.43888664245605
13.0657367706299
11.635181427002
9.63240432739258
7.53425693511963
0.858333051204681
-6.19907188415527
-11.4444408416748
-9.15555286407471
1.14444410800934
8.20184898376465
13.3518476486206
12.588885307312
2.76573991775513
-1.52592539787292
4.38703584671021
13.7333288192749
18.5018463134766
23.0796222686768
28.7064723968506
28.8018417358398
35.0009155273438
41.5814666748047
33.8564720153809
30.2323970794678
40.8185043334961
45.1101722717285
41.6768379211426
40.2462844848633
32.9027671813965
23.4611034393311
21.839807510376
30.70924949646
40.913875579834
36.0499877929688
22.8888816833496
18.1203651428223
25.2731399536133
33.6657295227051
34.7148017883301
34.4286918640137
34.9055442810059
39.197208404541
49.783317565918
54.0749816894531
53.6935005187988
55.219425201416
48.1620216369629
39.0064697265625
40.3416519165039
49.0203552246094
55.0286865234375
51.6907234191895
49.1157264709473
53.7888717651367
55.5055389404297
57.7944259643555
55.887020111084
45.3962821960449
40.2462844848633
37.9573936462402
39.864803314209
44.8240585327148
41.7722091674805
42.2490615844727
49.2110939025879
51.1185035705566
44.7286911010742
35.0962867736816
32.5212860107422
33.761100769043
31.0907306671143
33.4749908447266
35.0009155273438
32.1398048400879
29.7555465698242
27.8481388092041
32.5212860107422
35.0962867736816
30.70924949646
33.3796195983887
36.9083213806152
31.5675830841064
29.7555465698242
31.4722118377686
29.8509159088135
28.0388793945313
25.2731399536133
26.9898052215576
31.9490642547607
26.6083240509033
25.6546211242676
35.2870254516602
35.0962867736816
29.5648059844971
29.278694152832
29.4694347381592
26.226842880249
20.8861045837402
20.6953639984131
27.7527694702148
29.1833248138428
28.0388793945313
27.0851764678955
17.5481433868408
13.5425882339478
21.839807510376
28.3249912261963
30.2323970794678
31.4722118377686
33.2842483520508
35.9546165466309
33.0935096740723
26.7990646362305
24.891658782959
21.2675857543945
18.2157344818115
16.8805503845215
12.8749961853027
13.5425882339478
12.2074031829834
5.34073925018311
8.10647869110107
9.06018257141113
2.67036962509155
8.48795986175537
16.30832862854
15.5453653335571
16.4990692138672
16.5944385528564
12.4935140609741
5.34073925018311
-4.00555419921875
-7.72499752044678
-6.19907188415527
-4.7685170173645
-6.00833129882813
-10.4907369613647
-15.2592544555664
-16.9759197235107
-12.7796258926392
-9.9185152053833
-8.67870044708252
-5.34073925018311
-4.57777643203735
-1.14444410800934
3.147221326828
-0.0953703373670578
-5.34073925018311
-4.1962947845459
-3.71944332122803
-7.82036781311035
-8.48795986175537
-1.04907369613647
16.1175880432129
22.2212886810303
8.67870044708252
-1.62129580974579
-3.24259161949158
6.48518323898315
19.360179901123
20.1231422424316
16.4036979675293
14.1148099899292
16.30832862854
13.9240694046021
0.9537034034729
-4.7685170173645
-8.20184898376465
-15.6407356262207
-16.4990692138672
-15.5453653335571
-16.1175880432129
-18.0249938964844
-16.9759197235107
-15.8314762115479
-24.3194370269775
-27.4666576385498
-15.4499950408936
-7.0574049949646
-8.20184898376465
-9.44166374206543
-14.9731435775757
-27.2759170532227
-36.6222114562988
-38.9110984802246
-35.6685066223145
-30.8999900817871
-30.8046188354492
-33.5703582763672
-30.6138782501221
-31.5675830841064
-36.3360977172852
-36.3360977172852
-39.1018409729004
-38.148136138916
-30.5185089111328
-22.4120292663574
-12.2074031829834
-13.3518476486206
-19.360179901123
-18.0249938964844
-24.4148063659668
-25.3685111999512
-13.6379585266113
-13.7333288192749
-20.9814739227295
-18.9786968231201
-20.0277709960938
-33.4749908447266
-56.1731300354004
-86.4055252075195
-116.542556762695
-132.374038696289
-132.278656005859
-130.752731323242
-129.703659057617
-105.002746582031
-68.7620162963867
-42.1536903381348
-10.9675893783569
65.0425720214844
249.202697753906
466.074859619141
611.228515625
737.975708007813
901.058959960938
1054.98669433594
1151.88293457031
1309.53015136719
1474.6162109375
1387.63842773438
1163.70886230469
949.507080078125
696.394226074219
473.609100341797
216.681411743164
-144.104583740234
-418.103576660156
-541.608154296875
-638.313659667969
-731.681274414063
-789.094177246094
-809.121948242188
-794.339538574219
-755.046997070313
-717.184936523438
-706.312744140625
-712.797912597656
-721.095153808594
-726.149780273438
-722.811828613281
-706.884948730469
-675.221984863281
-639.839599609375
-600.642395019531
-558.870178222656
-530.640563964844
-508.419281005859
-492.397064208984
-491.920227050781
-484.481323242188
-463.213745117188
-438.13134765625
-407.326721191406
-372.325805664063
-332.842498779297
-301.084167480469
-283.249908447266
-264.175842285156
-256.546203613281
-257.118438720703
-235.469375610352
-205.046234130859
-177.29345703125
-146.011993408203
-119.117553710938
-93.0814514160156
-72.0046081542969
-66.0916442871094
-58.8434982299805
-47.6851692199707
-38.148136138916
-26.3222141265869
-12.4935140609741
4.38703584671021
20.6953639984131
36.431468963623
54.6472053527832
68.4759063720703
78.394416809082
86.8823776245117
91.1740417480469
95.5610809326172
106.624038696289
126.365699768066
143.246246337891
147.824020385742
151.257354736328
157.647171020508
166.421249389648
177.674942016602
177.674942016602
168.137908935547
167.851791381836
180.726791381836
190.931427001953
193.220306396484
198.370300292969
205.618453979492
210.768447875977
209.52864074707
204.664749145508
204.474014282227
208.861038208008
214.297149658203
214.583267211914
208.765670776367
202.757339477539
196.844375610352
194.269378662109
197.130493164063
194.46012878418
192.934204101563
202.089752197266
199.610122680664
188.165679931641
186.925872802734
191.503646850586
194.841598510742
196.367523193359
195.699935913086
194.841598510742
198.561050415039
193.601791381836
182.157348632813
179.010131835938
171.189758300781
157.456436157227
153.450881958008
156.311981201172
159.745315551758
164.60920715332
162.034210205078
153.927734375
149.731430053711
144.295318603516
134.376815795898
129.608291625977
133.423110961914
130.561996459961
122.93236541748
128.749954223633
134.56755065918
135.711990356445
139.812911987305
132.087921142578
116.256446838379
110.724967956543
112.632369995117
115.874961853027
122.646255493164
128.559219360352
128.463851928711
122.550888061523
122.169403076172
126.937919616699
124.93514251709
115.684219360352
114.730522155762
124.076812744141
128.559219360352
130.752731323242
134.853652954102
133.709213256836
127.414772033691
115.874961853027
100.615707397461
92.5092315673828
88.1221923828125
78.2990493774414
70.2879409790039
67.3314590454102
66.4731292724609
62.0860900878906
49.0203552246094
38.5296173095703
32.2351760864258
16.4990692138672
-1.71666610240936
-3.33796191215515
2.38425850868225
-2.47962880134583
-17.1666603088379
-31.9490642547607
-38.0527648925781
-46.5407257080078
-61.323127746582
-71.4323883056641
-83.8305282592773
-92.6045989990234
-85.1657104492188
-85.5471954345703
-96.7055282592773
-101.092559814453
-107.100891113281
-109.771263122559
-111.297187805176
-121.311073303223
-125.411994934082
-125.793479919434
-125.125885009766
-119.880516052246
-121.69255065918
-127.796257019043
-125.507369995117
-124.172180175781
-123.409217834473
-119.308296203613
-121.024963378906
-126.842552185059
-130.561996459961
-131.706436157227
-134.66291809082
-135.902740478516
-128.36848449707
-122.169403076172
-125.125885009766
-134.56755065918
-141.148101806641
-143.246246337891
-147.824020385742
-148.968475341797
-143.627731323242
-138.573104858398
-131.038848876953
-125.602737426758
-129.608291625977
-132.755508422852
-129.608291625977
-126.842552185059
-125.602737426758
-122.741630554199
-118.545333862305
-118.068481445313
-122.741630554199
-124.172180175781
-121.787925720215
-116.542556762695
-108.149963378906
-109.580520629883
-115.779594421387
-113.681442260742
-109.96199798584
-105.574966430664
-100.997192382813
-98.7083053588867
-91.5555267333984
-80.3018264770508
-71.2416458129883
-74.0073852539063
-80.3018264770508
-76.5823822021484
-73.7212753295898
-74.6749725341797
-78.394416809082
-81.5416412353516
-74.0073852539063
-66.0916442871094
-59.7972030639648
-54.9333152770996
-61.323127746582
-65.0425720214844
-58.7481307983398
-51.6907234191895
-47.017578125
-41.6768379211426
-33.9518394470215
-30.1370277404785
-27.657398223877
-24.2240657806396
-26.7036952972412
-24.3194370269775
-11.5398111343384
-9.72777462005615
-18.9786968231201
-23.0796222686768
-21.4583263397217
-20.5999927520752
-19.2648086547852
-12.6842555999756
-5.7222204208374
-2.38425850868225
-3.62407302856445
-8.96481227874756
-9.72777462005615
-4.57777643203735
-2.5749990940094
-8.3925895690918
-8.77407169342041
-2.47962880134583
-4.67314672470093
-2.09814739227295
10.0138854980469
15.0685138702393
14.1148099899292
12.3981437683105
9.34629344940186
10.3953666687012
11.7305517196655
15.4499950408936
28.6111011505127
36.5268402099609
33.9518394470215
30.3277683258057
21.0768451690674
16.2129573822021
25.0823993682861
26.9898052215576
25.3685111999512
36.2407302856445
47.8759117126465
46.5407257080078
41.5814666748047
42.7259140014648
40.8185043334961
38.4342460632324
38.6249885559082
35.7638778686523
38.0527648925781
45.8731346130371
48.5435028076172
47.017578125
45.300910949707
44.4425773620605
44.8240585327148
45.7777633666992
49.8786888122559
47.6851692199707
42.7259140014648
44.9194297790527
40.2462844848633
32.8073959350586
27.943510055542
29.5648059844971
40.3416519165039
37.4805450439453
30.1370277404785
29.5648059844971
25.7499923706055
32.4259147644043
43.9657249450684
49.1157264709473
54.0749816894531
51.5953521728516
46.4453544616699
51.8814659118652
55.0286865234375
51.3092422485352
47.3036880493164
37.9573936462402
32.4259147644043
35.9546165466309
41.1999855041504
43.4888763427734
40.8185043334961
44.5379486083984
48.3527641296387
41.962947845459
39.864803314209
41.0092468261719
42.1536903381348
43.679615020752
37.5759124755859
30.995361328125
28.6111011505127
32.5212860107422
35.0962867736816
32.5212860107422
36.2407302856445
37.4805450439453
33.9518394470215
35.0962867736816
32.04443359375
29.9462871551514
32.6166572570801
25.8453617095947
22.2212886810303
28.2296199798584
23.0796222686768
13.4472179412842
19.7416610717773
24.0333251953125
16.8805503845215
23.0796222686768
31.1861019134521
19.8370304107666
14.4009208679199
21.5536975860596
20.9814739227295
16.4990692138672
14.2101802825928
12.302773475647
14.7824029922485
18.5972156524658
18.2157344818115
15.7361059188843
14.0194396972656
14.9731435775757
14.5916624069214
12.3981437683105
17.2620315551758
22.5074005126953
23.2703628540039
21.0768451690674
17.1666603088379
13.5425882339478
7.43888664245605
4.95925760269165
9.537034034729
14.2101802825928
17.0712909698486
16.8805503845215
11.1583299636841
3.43333220481873
0.381481349468231
5.53147983551025
9.9185152053833
9.06018257141113
8.29721927642822
6.29444265365601
-1.9074068069458
-9.537034034729
-5.1499981880188
3.24259161949158
3.62407302856445
-1.33518481254578
-7.43888664245605
-6.29444265365601
-1.62129580974579
0.762962698936462
3.33796191215515
0.762962698936462
-3.33796191215515
-7.72499752044678
-12.2074031829834
-4.95925760269165
1.81203651428223
-1.81203651428223
0.572222054004669
4.48240613937378
0.858333051204681
-7.91573810577393
-17.8342533111572
-15.2592544555664
-4.1962947845459
0.0953703373670578
1.43055510520935
3.33796191215515
-1.04907369613647
-3.43333220481873
-3.71944332122803
-10.6814785003662
-8.67870044708252
-3.43333220481873
-10.2999963760376
-12.302773475647
-5.05462789535522
-2.47962880134583
-11.2537002563477
-21.2675857543945
-20.5999927520752
-17.8342533111572
-20.1231422424316
-17.9296245574951
-17.5481433868408
-23.8425846099854
-26.7036952972412
-26.7036952972412
-24.7962875366211
-16.8805503845215
0.572222054004669
14.687032699585
10.204626083374
1.14444410800934
-0.47685170173645
3.05185079574585
2.47962880134583
-4.10092449188232
-9.63240432739258
-15.7361059188843
-18.1203651428223
-16.30832862854
-12.9703664779663
-7.15277528762817
-4.86388731002808
-7.6296272277832
-11.0629596710205
-14.8777732849121
-15.6407356262207
-16.8805503845215
-22.8888816833496
-26.7990646362305
-31.5675830841064
-37.2898025512695
-34.5240631103516
-31.6629524230957
-30.2323970794678
-21.5536975860596
-16.1175880432129
-17.1666603088379
-17.9296245574951
-17.738883972168
-19.2648086547852
-22.3166599273682
-19.9324016571045
-12.588885307312
-11.635181427002
-11.4444408416748
-10.5861072540283
-18.8833274841309
-26.1314735412598
-25.6546211242676
-22.8888816833496
-15.0685138702393
-12.8749961853027
-16.4036979675293
-17.4527721405029
-24.6055469512939
-35.382396697998
-51.4999847412109
-72.2907180786133
-95.1795959472656
-121.120330810547
-133.804580688477
-135.902740478516
-136.66569519043
-112.727745056152
-59.2249794006348
-30.4231376647949
-35.6685066223145
-10.0138854980469
100.043487548828
301.084167480469
507.942443847656
643.654418945313
767.349731445313
932.721923828125
1069.76904296875
1163.61352539063
1361.31628417969
1533.36437988281
1406.90319824219
1144.25329589844
929.57470703125
714.323852539063
464.453552246094
166.039764404297
-140.003662109375
-390.160064697266
-564.306274414063
-683.900695800781
-773.548828125
-824.953430175781
-834.013610839844
-818.75439453125
-792.813659667969
-767.063659667969
-753.807189941406
-745.033081054688
-741.21826171875
-743.697937011719
-730.822937011719
-706.408081054688
-681.993286132813
-645.847961425781
-607.795166015625
-574.797058105469
-539.319274902344
-514.332214355469
-511.185028076172
-505.653533935547
-481.715576171875
-460.638732910156
-447.859130859375
-420.201721191406
-377.571166992188
-345.240631103516
-322.923980712891
-303.563781738281
-290.688781738281
-271.996215820313
-249.584182739258
-235.850845336914
-213.438827514648
-172.524948120117
-133.995330810547
-111.201812744141
-93.0814514160156
-69.5249786376953
-53.2166481018066
-48.8296127319336
-41.1999855041504
-29.4694347381592
-9.44166374206543
12.4935140609741
24.4148063659668
40.913875579834
55.9823913574219
64.4703521728516
81.5416412353516
95.3703384399414
102.999969482422
111.297187805176
113.490707397461
114.730522155762
122.93236541748
138.286987304688
151.829574584961
157.456436157227
169.854568481445
185.686050415039
189.024017333984
185.113830566406
182.824935913086
181.108276367188
179.48698425293
184.636978149414
193.220306396484
195.413833618164
197.225860595703
203.234191894531
205.809188842773
207.43049621582
209.52864074707
209.624008178711
214.201782226563
217.539749145508
212.294372558594
204.569381713867
200.659194946289
205.046234130859
211.62678527832
211.054565429688
206.190673828125
199.705490112305
193.887893676758
198.65641784668
199.419387817383
188.0703125
188.737899780273
191.980499267578
187.116607666016
187.211975097656
182.348083496094
178.151794433594
181.58512878418
175.1953125
165.849014282227
163.083282470703
154.499954223633
144.676803588867
146.488845825195
149.922180175781
146.298095703125
145.535140991211
148.300872802734
144.390701293945
140.099029541016
146.774948120117
149.349945068359
138.85920715332
131.801803588867
135.521255493164
143.246246337891
144.772171020508
141.624954223633
138.000885009766
130.657363891602
120.83422088623
115.684219360352
120.452735900879
123.695327758789
124.649032592773
136.76106262207
144.772171020508
142.769393920898
144.390701293945
138.096252441406
133.995330810547
142.864776611328
140.099029541016
139.526809692383
150.971252441406
145.916625976563
139.908294677734
143.913848876953
137.237915039063
123.409217834473
114.34903717041
104.62126159668
89.7434921264648
85.7379379272461
92.2231216430664
84.4027481079102
65.4240493774414
59.0342407226563
58.4620170593262
43.1073951721191
25.9407329559326
16.1175880432129
8.48795986175537
7.34351634979248
3.91018390655518
-7.6296272277832
-15.9268465042114
-24.9870281219482
-43.1073951721191
-57.5083160400391
-68.6666412353516
-73.8166427612305
-69.9064559936523
-73.5305328369141
-79.5388641357422
-82.7814559936523
-90.6018218994141
-90.7925643920898
-88.9805297851563
-102.141632080078
-118.068481445313
-118.163848876953
-111.487930297852
-123.027740478516
-138.191619873047
-130.180511474609
-117.686996459961
-117.782371520996
-122.646255493164
-133.232360839844
-143.436996459961
-144.486068725586
-139.908294677734
-133.804580688477
-133.136993408203
-137.142547607422
-138.286987304688
-139.622177124023
-141.624954223633
-140.003662109375
-134.949035644531
-135.807357788086
-143.532363891602
-148.777725219727
-149.445327758789
-149.254577636719
-153.450881958008
-155.167541503906
-155.930511474609
-162.701797485352
-156.598098754883
-142.864776611328
-143.818466186523
-144.867553710938
-138.477737426758
-138.191619873047
-141.243469238281
-141.052734375
-135.521255493164
-128.559219360352
-126.270332336426
-125.316627502441
-119.975891113281
-113.013854980469
-109.389778137207
-116.065704345703
-124.744407653809
-122.550888061523
-112.823112487793
-101.950889587402
-103.667556762695
-115.207366943359
-112.632369995117
-101.950889587402
-90.220344543457
-79.3481216430664
-80.8740463256836
-87.2638626098633
-86.3101577758789
-80.0157165527344
-75.5333099365234
-79.9203414916992
-85.1657104492188
-77.0592346191406
-64.4703521728516
-58.652759552002
-61.323127746582
-67.0453491210938
-66.854606628418
-59.1296119689941
-49.2110939025879
-45.300910949707
-47.2083168029785
-46.2546157836914
-43.9657249450684
-40.1509132385254
-32.2351760864258
-25.7499923706055
-30.4231376647949
-34.4286918640137
-22.6981410980225
-13.9240694046021
-18.2157344818115
-18.8833274841309
-17.0712909698486
-20.6953639984131
-19.4555492401123
-14.3055505752563
-14.9731435775757
-14.9731435775757
-9.63240432739258
-2.38425850868225
4.38703584671021
11.9212923049927
16.5944385528564
16.6898097991943
16.022216796875
12.3981437683105
13.1611070632935
13.7333288192749
9.06018257141113
14.4009208679199
20.8861045837402
20.1231422424316
29.4694347381592
36.1453590393066
30.4231376647949
28.3249912261963
26.5129547119141
31.0907306671143
40.7231369018555
42.7259140014648
48.066650390625
49.6879463195801
40.7231369018555
40.2462844848633
40.1509132385254
35.6685066223145
33.6657295227051
31.2814712524414
35.9546165466309
43.7749862670898
50.355541229248
55.6009063720703
52.453685760498
47.1129493713379
46.0638732910156
49.5925750732422
56.6499824523926
63.2305335998535
65.5194244384766
55.7916488647461
50.0694274902344
60.5601654052734
63.7073860168457
58.5573883056641
59.8925743103027
61.7999801635742
58.5573883056641
54.7425765991211
52.8351669311523
50.4509086608887
51.0231323242188
51.8814659118652
47.2083168029785
43.4888763427734
42.3444290161133
43.3935050964355
44.251838684082
41.2953567504883
40.8185043334961
40.2462844848633
38.9110984802246
46.6360969543457
48.6388740539551
44.251838684082
53.3120193481445
59.0342407226563
47.3036880493164
37.2898025512695
34.5240631103516
31.8536930084229
33.0935096740723
33.4749908447266
34.9055442810059
43.2981338500977
42.4398002624512
35.7638778686523
38.6249885559082
35.9546165466309
33.8564720153809
44.7286911010742
43.5842437744141
34.2379531860352
34.3333206176758
30.70924949646
23.7472152709961
23.8425846099854
30.0416564941406
34.5240631103516
34.9055442810059
35.8592491149902
34.5240631103516
28.6111011505127
25.7499923706055
32.6166572570801
38.7203598022461
30.6138782501221
20.5999927520752
20.6953639984131
20.5999927520752
14.4009208679199
9.25092315673828
10.9675893783569
19.6462898254395
25.5592517852783
21.0768451690674
18.8833274841309
23.9379558563232
24.0333251953125
20.2185115814209
17.738883972168
7.0574049949646
5.53147983551025
5.7222204208374
13.6379585266113
11.3490705490112
8.10647869110107
17.9296245574951
25.7499923706055
17.6435127258301
5.53147983551025
6.38981294631958
13.0657367706299
8.48795986175537
1.43055510520935
-1.14444410800934
-7.72499752044678
-8.3925895690918
2.47962880134583
10.3953666687012
13.4472179412842
15.2592544555664
11.635181427002
8.20184898376465
8.20184898376465
4.86388731002808
-2.09814739227295
-11.1583299636841
-17.738883972168
-13.1611070632935
-3.33796191215515
-0.667592406272888
-4.38703584671021
-2.67036962509155
0.762962698936462
-4.7685170173645
-6.29444265365601
0.9537034034729
0.190740674734116
-6.77129411697388
-8.67870044708252
-7.6296272277832
-7.34351634979248
-13.5425882339478
-21.839807510376
-18.6925868988037
-14.3055505752563
-17.0712909698486
-19.2648086547852
-17.8342533111572
-19.7416610717773
-16.8805503845215
-7.24814605712891
-4.38703584671021
-5.05462789535522
-7.34351634979248
-10.2999963760376
-11.2537002563477
-15.7361059188843
-22.5074005126953
-21.2675857543945
-14.1148099899292
-15.8314762115479
-22.6981410980225
-26.0361022949219
-30.8999900817871
-32.1398048400879
-22.4120292663574
-13.7333288192749
-7.82036781311035
-1.62129580974579
-0.190740674734116
0.190740674734116
2.09814739227295
0.286111027002335
-8.77407169342041
-15.8314762115479
-14.4009208679199
-13.9240694046021
-15.35462474823
-16.4036979675293
-17.357400894165
-7.6296272277832
6.77129411697388
7.24814605712891
3.147221326828
7.0574049949646
3.33796191215515
-6.29444265365601
-0.9537034034729
6.77129411697388
0.858333051204681
-5.7222204208374
-1.81203651428223
1.71666610240936
-5.24536848068237
-5.34073925018311
3.147221326828
3.5287024974823
-2.1935179233551
-5.34073925018311
-4.48240613937378
-10.3953666687012
-21.9351787567139
-23.8425846099854
-23.8425846099854
-32.8073959350586
-37.3851737976074
-28.3249912261963
-18.3111057281494
-21.9351787567139
-28.8018417358398
-22.0305480957031
-16.30832862854
-17.357400894165
-10.9675893783569
-7.53425693511963
-12.9703664779663
-17.2620315551758
-17.1666603088379
-12.6842555999756
-9.537034034729
-12.2074031829834
-18.1203651428223
-19.1694374084473
-15.9268465042114
-18.4064750671387
-22.3166599273682
-21.0768451690674
-15.2592544555664
-11.5398111343384
-6.38981294631958
-2.5749990940094
-24.0333251953125
-52.2629470825195
-72.8629379272461
-106.910148620605
-126.07958984375
-117.305519104004
-113.967559814453
-100.997192382813
-57.3175735473633
-26.4175834655762
-31.7583236694336
-24.7962875366211
67.1407165527344
258.358245849609
463.404479980469
613.898864746094
736.068298339844
884.273803710938
1025.23120117188
1113.16259765625
1290.4560546875
1492.45043945313
1413.19775390625
1168.00061035156
970.679321289063
765.728454589844
523.48779296875
234.324920654297
-82.2092361450195
-341.998046875
-521.866516113281
-654.908142089844
-753.044189453125
-809.980285644531
-828.196044921875
-812.459899902344
-778.126586914063
-744.079406738281
-724.909973144531
-725.672912597656
-728.057189941406
-718.138671875
-710.222900390625
-699.350708007813
-670.262756347656
-632.591491699219
-593.108154296875
-554.864624023438
-529.591491699219
-518.433166503906
-511.566497802734
-502.601684570313
-485.721130371094
-459.875793457031
-433.362823486328
-408.471160888672
-374.805450439453
-339.89990234375
-317.297119140625
-295.457305908203
-271.423980712891
-253.398986816406
-234.992523193359
-217.253631591797
-203.04345703125
-184.541610717773
-156.216613769531
-131.038848876953
-120.83422088623
-110.248115539551
-88.6944122314453
-72.0999755859375
-64.4703521728516
-53.9796104431152
-37.0036926269531
-17.2620315551758
1.33518481254578
20.3138828277588
40.2462844848633
54.170352935791
66.1870193481445
79.729606628418
84.7842330932617
94.2258987426758
97.7546005249023
103.381446838379
116.542556762695
130.37126159668
142.674026489258
160.889770507813
173.574020385742
177.102722167969
182.824935913086
185.686050415039
176.625869750977
174.241607666016
185.97216796875
184.827713012695
185.018463134766
201.803634643555
206.286041259766
204.950866699219
215.155487060547
218.588821411133
210.863815307617
208.384185791016
207.335113525391
203.424942016602
205.523086547852
210.959197998047
214.774002075195
210.673080444336
201.422164916992
202.280487060547
203.615676879883
195.699935913086
186.067535400391
182.443466186523
185.495315551758
184.446243286133
179.868453979492
179.868453979492
183.206420898438
184.732345581055
183.015686035156
178.533279418945
174.146240234375
172.334197998047
167.756423950195
156.502731323242
148.777725219727
150.303649902344
155.644393920898
161.271240234375
160.603652954102
154.499954223633
153.260131835938
154.118469238281
146.202728271484
134.853652954102
131.134216308594
131.038848876953
136.379592895508
143.818466186523
142.101806640625
135.330505371094
125.507369995117
122.360145568848
129.036071777344
130.37126159668
123.313850402832
119.68977355957
125.602737426758
127.605514526367
129.131439208984
143.436996459961
156.121246337891
152.306427001953
137.619400024414
127.128662109375
130.561996459961
134.472183227539
133.041625976563
138.096252441406
138.668472290039
128.36848449707
120.548110961914
118.831443786621
116.637924194336
104.716636657715
88.7897872924805
86.2147903442383
85.7379379272461
76.296272277832
68.5712738037109
66.1870193481445
65.137939453125
55.6962776184082
42.3444290161133
34.1425819396973
24.9870281219482
12.302773475647
2.1935179233551
-6.00833129882813
-13.8286991119385
-21.5536975860596
-30.0416564941406
-38.148136138916
-45.6823921203613
-56.0777587890625
-70.3833084106445
-81.0647888183594
-81.7323837280273
-79.729606628418
-83.925895690918
-87.4546051025391
-85.5471954345703
-87.0731201171875
-101.092559814453
-111.774040222168
-108.531448364258
-105.574966430664
-105.956443786621
-110.534225463867
-115.684219360352
-114.921257019043
-115.207366943359
-115.588851928711
-123.313850402832
-132.660140991211
-131.420333862305
-127.224029541016
-122.83699798584
-126.937919616699
-139.431442260742
-144.295318603516
-148.300872802734
-158.219390869141
-155.167541503906
-139.049957275391
-138.85920715332
-145.725875854492
-135.616622924805
-131.515701293945
-137.619400024414
-135.425888061523
-132.087921142578
-130.561996459961
-128.273101806641
-127.510147094727
-128.463851928711
-134.281433105469
-137.237915039063
-133.232360839844
-133.709213256836
-139.145324707031
-143.532363891602
-146.679580688477
-143.436996459961
-134.853652954102
-128.36848449707
-128.082366943359
-130.085144042969
-125.984222412109
-119.403663635254
-114.921257019043
-116.828666687012
-121.501815795898
-109.389778137207
-94.9888610839844
-100.52033996582
-102.904594421387
-92.8907089233398
-88.8851547241211
-88.5990447998047
-84.1166381835938
-77.8221969604492
-78.394416809082
-84.9749755859375
-79.2527542114258
-66.4731292724609
-62.3722038269043
-59.8925743103027
-60.5601654052734
-69.0481262207031
-68.6666412353516
-55.6962776184082
-42.630542755127
-35.8592491149902
-39.197208404541
-47.3036880493164
-51.1185035705566
-49.9740562438965
-42.9166526794434
-38.7203598022461
-41.1999855041504
-37.2898025512695
-31.6629524230957
-34.2379531860352
-32.8073959350586
-29.5648059844971
-31.6629524230957
-32.5212860107422
-29.8509159088135
-31.6629524230957
-33.6657295227051
-23.8425846099854
-11.2537002563477
-7.43888664245605
-7.91573810577393
-6.96203470230103
-5.1499981880188
-5.53147983551025
-8.10647869110107
-6.38981294631958
-4.67314672470093
-3.5287024974823
4.67314672470093
6.96203470230103
3.91018390655518
11.635181427002
24.891658782959
35.2870254516602
41.6768379211426
40.5323944091797
32.04443359375
26.3222141265869
27.2759170532227
31.3768424987793
37.099063873291
36.6222114562988
27.3712882995605
31.5675830841064
47.7805404663086
44.7286911010742
36.2407302856445
40.7231369018555
35.7638778686523
29.8509159088135
37.099063873291
40.5323944091797
36.7175827026367
37.5759124755859
42.2490615844727
42.2490615844727
44.3472061157227
50.832389831543
45.8731346130371
39.197208404541
39.0064697265625
34.3333206176758
34.5240631103516
36.6222114562988
32.4259147644043
34.9055442810059
41.1999855041504
43.679615020752
44.251838684082
42.5351715087891
43.2027626037598
49.3064651489258
54.6472053527832
54.170352935791
52.8351669311523
59.3203506469727
59.2249794006348
49.4018363952637
51.0231323242188
54.0749816894531
52.3583183288574
59.4157218933105
61.0370178222656
56.1731300354004
56.0777587890625
54.5518341064453
51.5953521728516
52.9305381774902
52.0722045898438
46.6360969543457
44.4425773620605
50.4509086608887
55.0286865234375
49.9740562438965
50.2601699829102
61.2277565002441
61.1323890686035
49.5925750732422
46.3499870300293
47.1129493713379
45.0148010253906
43.5842437744141
41.6768379211426
37.4805450439453
33.6657295227051
39.3879508972168
51.2138710021973
53.9796104431152
49.9740562438965
49.4972076416016
44.3472061157227
32.5212860107422
32.1398048400879
37.5759124755859
34.4286918640137
33.0935096740723
32.3305435180664
27.7527694702148
23.6518440246582
18.2157344818115
18.0249938964844
19.6462898254395
13.8286991119385
7.24814605712891
4.00555419921875
4.00555419921875
8.67870044708252
17.4527721405029
22.4120292663574
18.5972156524658
14.5916624069214
16.8805503845215
20.0277709960938
21.1722145080566
29.5648059844971
33.2842483520508
18.5018463134766
13.7333288192749
21.5536975860596
19.6462898254395
19.4555492401123
28.5157318115234
33.761100769043
25.7499923706055
13.9240694046021
9.9185152053833
7.0574049949646
8.58333015441895
13.256477355957
7.43888664245605
1.23981440067291
0.762962698936462
-0.0953703373670578
1.9074068069458
0.47685170173645
0
2.95648050308228
-4.38703584671021
-2.8611102104187
6.19907188415527
2.67036962509155
-0.572222054004669
2.28888821601868
3.62407302856445
-0.286111027002335
-2.95648050308228
-2.28888821601868
-6.29444265365601
-7.53425693511963
-1.9074068069458
2.1935179233551
5.1499981880188
2.5749990940094
-4.48240613937378
-0.286111027002335
1.43055510520935
-4.1962947845459
0
2.00277709960938
-4.67314672470093
-12.588885307312
-19.5509204864502
-19.9324016571045
-16.022216796875
-13.256477355957
-8.96481227874756
-4.10092449188232
-0.572222054004669
6.00833129882813
16.7851791381836
15.0685138702393
1.43055510520935
-0.47685170173645
6.38981294631958
4.86388731002808
0.762962698936462
3.43333220481873
1.9074068069458
-6.6759238243103
-13.6379585266113
-18.8833274841309
-24.3194370269775
-24.4148063659668
-16.2129573822021
-14.7824029922485
-24.891658782959
-30.70924949646
-30.8046188354492
-32.9981384277344
-33.3796195983887
-31.4722118377686
-32.3305435180664
-31.4722118377686
-26.7990646362305
-30.1370277404785
-39.6740608215332
-45.1101722717285
-43.9657249450684
-32.7120246887207
-26.4175834655762
-30.2323970794678
-29.1833248138428
-32.9981384277344
-33.8564720153809
-22.0305480957031
-28.6111011505127
-41.1999855041504
-38.6249885559082
-41.7722091674805
-52.9305381774902
-57.2222023010254
-54.170352935791
-49.9740562438965
-41.2953567504883
-34.810173034668
-31.8536930084229
-24.6055469512939
-18.5972156524658
-22.2212886810303
-35.9546165466309
-52.453685760498
-78.8712692260742
-113.586074829102
-128.845321655273
-124.076812744141
-121.597183227539
-118.831443786621
-93.0814514160156
-57.2222023010254
-33.9518394470215
-14.3055505752563
58.5573883056641
248.058258056641
458.063751220703
593.203491210938
710.413635253906
862.624694824219
1009.01818847656
1111.73205566406
1285.11535644531
1433.98840332031
1332.41906738281
1137.19592285156
944.738586425781
703.260864257813
488.582244873047
219.542526245117
-139.526809692383
-396.073028564453
-521.580383300781
-625.629455566406
-715.849792480469
-773.071960449219
-798.059020996094
-784.134948730469
-744.079406738281
-716.231262207031
-706.217346191406
-700.78125
-700.113647460938
-699.159973144531
-692.865539550781
-673.123840332031
-644.703491210938
-620.097961425781
-587.86279296875
-549.905395507813
-522.915588378906
-503.460021972656
-485.244293212891
-477.042449951172
-472.369293212891
-457.205413818359
-433.172088623047
-404.847106933594
-366.985076904297
-323.782318115234
-290.7841796875
-269.707305908203
-256.450836181641
-246.055480957031
-236.136962890625
-226.981414794922
-211.054565429688
-183.301788330078
-144.867553710938
-114.730522155762
-100.424964904785
-80.4925689697266
-61.6092376708984
-56.1731300354004
-51.7860946655273
-36.8129501342773
-20.7907333374023
-10.7768487930298
7.82036781311035
33.2842483520508
53.121280670166
75.4379425048828
92.1277465820313
88.3129348754883
85.5471954345703
98.4221878051758
105.002746582031
99.948112487793
108.245338439941
128.940704345703
145.43977355957
159.554580688477
166.516616821289
166.61198425293
169.854568481445
176.244384765625
181.489761352539
187.116607666016
194.174011230469
201.899002075195
202.757339477539
198.179565429688
199.133270263672
202.471237182617
205.618453979492
208.861038208008
205.523086547852
206.667526245117
212.485122680664
207.23974609375
202.85270690918
203.806411743164
197.702713012695
193.029571533203
194.746231079102
195.127716064453
196.844375610352
194.078643798828
185.018463134766
182.443466186523
181.58512878418
183.969390869141
195.890670776367
199.800857543945
190.740676879883
185.686050415039
186.162902832031
178.247161865234
169.282348632813
167.184204101563
170.331420898438
165.944396972656
167.279571533203
171.094390869141
170.9990234375
164.51383972168
163.274017333984
163.369384765625
160.699020385742
156.02587890625
145.821243286133
136.093475341797
132.087921142578
137.619400024414
145.916625976563
147.251800537109
147.44255065918
146.870330810547
141.720321655273
136.093475341797
131.992553710938
123.599960327148
114.158294677734
110.438850402832
112.537002563477
116.161071777344
120.166625976563
127.986999511719
129.989776611328
121.69255065918
119.68977355957
124.839775085449
121.024963378906
112.346260070801
115.207366943359
118.640701293945
117.686996459961
120.643478393555
118.640701293945
106.910148620605
90.7925643920898
80.2064590454102
71.6231231689453
60.5601654052734
57.7944259643555
62.5629425048828
60.8462753295898
48.066650390625
36.431468963623
20.5999927520752
0
-8.0111083984375
-13.4472179412842
-25.0823993682861
-34.1425819396973
-43.5842437744141
-51.7860946655273
-50.7370223999023
-52.9305381774902
-68.0944213867188
-80.6833038330078
-89.6481170654297
-102.141632080078
-104.525894165039
-103.76293182373
-96.5147857666016
-94.1305236816406
-99.7573776245117
-98.6129302978516
-100.043487548828
-109.00830078125
-111.678665161133
-114.539779663086
-121.215698242188
-119.880516052246
-115.398109436035
-118.831443786621
-122.83699798584
-118.068481445313
-113.013854980469
-118.259223937988
-127.128662109375
-124.649032592773
-116.637924194336
-121.024963378906
-129.512924194336
-129.703659057617
-127.319404602051
-123.790702819824
-120.071258544922
-117.114776611328
-119.975891113281
-124.267555236816
-124.744407653809
-132.183288574219
-134.66291809082
-119.499038696289
-113.013854980469
-118.259223937988
-111.201812744141
-106.242561340332
-116.256446838379
-122.83699798584
-119.68977355957
-116.065704345703
-115.588851928711
-114.158294677734
-115.970336914063
-119.403663635254
-116.44718170166
-110.534225463867
-103.286079406738
-101.187927246094
-101.092559814453
-92.4138565063477
-91.5555267333984
-94.5120086669922
-89.4573822021484
-87.7407150268555
-90.6971969604492
-98.0407104492188
-105.384223937988
-105.384223937988
-103.572189331055
-95.8471908569336
-87.4546051025391
-92.0323791503906
-94.702751159668
-89.2666397094727
-87.7407150268555
-83.3536758422852
-72.0999755859375
-62.7536849975586
-59.6064605712891
-61.323127746582
-58.3666496276855
-50.6416511535645
-46.0638732910156
-45.6823921203613
-47.1129493713379
-43.0120239257813
-36.9083213806152
-35.6685066223145
-30.3277683258057
-28.5157318115234
-34.2379531860352
-30.70924949646
-24.3194370269775
-24.9870281219482
-23.7472152709961
-23.6518440246582
-24.3194370269775
-9.537034034729
1.52592539787292
-2.95648050308228
-1.71666610240936
-0.762962698936462
2.47962880134583
12.8749961853027
15.5453653335571
14.9731435775757
13.1611070632935
13.256477355957
17.8342533111572
17.6435127258301
19.074068069458
24.7962875366211
20.0277709960938
10.6814785003662
13.6379585266113
18.4064750671387
18.0249938964844
21.9351787567139
21.5536975860596
19.7416610717773
29.8509159088135
36.3360977172852
33.761100769043
28.3249912261963
24.0333251953125
29.6601753234863
36.1453590393066
33.2842483520508
36.2407302856445
45.3962821960449
48.8296127319336
49.0203552246094
43.8703575134277
39.1018409729004
39.9601707458496
39.7694320678711
39.0064697265625
41.0092468261719
43.8703575134277
43.9657249450684
40.913875579834
43.9657249450684
49.3064651489258
44.8240585327148
38.7203598022461
40.3416519165039
39.0064697265625
33.5703582763672
33.9518394470215
38.5296173095703
40.5323944091797
40.6277656555176
38.3388748168945
32.5212860107422
32.3305435180664
39.197208404541
44.7286911010742
48.4481315612793
51.0231323242188
51.4999847412109
52.5490570068359
52.1675758361816
39.7694320678711
35.8592491149902
40.5323944091797
37.099063873291
30.0416564941406
31.6629524230957
32.7120246887207
28.4203605651855
36.1453590393066
43.2981338500977
38.6249885559082
40.5323944091797
41.8675804138184
33.9518394470215
37.3851737976074
37.7666549682617
20.9814739227295
22.8888816833496
39.6740608215332
40.4370231628418
34.9055442810059
31.6629524230957
24.0333251953125
14.3055505752563
12.0166625976563
16.022216796875
21.1722145080566
30.4231376647949
35.9546165466309
30.5185089111328
27.8481388092041
30.0416564941406
29.3740653991699
29.4694347381592
30.8046188354492
30.70924949646
23.9379558563232
21.5536975860596
34.2379531860352
36.431468963623
30.1370277404785
38.7203598022461
48.3527641296387
49.8786888122559
49.4972076416016
48.2573928833008
47.9712791442871
46.3499870300293
45.7777633666992
44.7286911010742
37.099063873291
30.1370277404785
26.226842880249
23.8425846099854
25.4638805389404
21.7444381713867
12.302773475647
5.91296100616455
-1.71666610240936
-6.38981294631958
-5.34073925018311
-9.72777462005615
-21.0768451690674
-30.2323970794678
-32.4259147644043
-27.3712882995605
-21.3629570007324
-22.2212886810303
-25.7499923706055
-24.3194370269775
-24.5101776123047
-23.3657341003418
-14.1148099899292
-8.67870044708252
-9.34629344940186
-9.9185152053833
-12.4935140609741
-13.256477355957
-14.7824029922485
-18.0249938964844
-15.4499950408936
-20.2185115814209
-28.7064723968506
-21.3629570007324
-13.6379585266113
-13.6379585266113
-12.3981437683105
-10.4907369613647
-9.44166374206543
-6.19907188415527
-2.8611102104187
-5.62685012817383
-7.0574049949646
-13.0657367706299
-33.5703582763672
-62.9444236755371
-105.384223937988
-140.957366943359
-144.104583740234
-134.56755065918
-129.131439208984
-108.245338439941
-69.0481262207031
-33.5703582763672
-13.4472179412842
22.7935104370117
175.004577636719
403.416534423828
564.020202636719
680.372009277344
825.048828125
986.892272949219
1099.14318847656
1226.55798339844
1416.53564453125
1416.15417480469
1217.02087402344
1027.04321289063
805.211791992188
573.652587890625
337.038787841797
-8.20184898376465
-331.888793945313
-505.081329345703
-613.231262207031
-702.87939453125
-762.962707519531
-804.258056640625
-816.942321777344
-796.819213867188
-762.104370117188
-730.822937011719
-716.994201660156
-717.947937011719
-719.378479003906
-718.138671875
-709.650695800781
-687.047912597656
-654.335876464844
-617.999816894531
-581.091491699219
-547.997985839844
-519.768371582031
-502.22021484375
-496.593353271484
-487.914672851563
-470.938751220703
-447.572998046875
-418.389678955078
-383.960998535156
-347.815643310547
-320.635070800781
-299.939727783203
-283.631378173828
-268.276763916016
-251.586959838867
-240.428619384766
-226.218444824219
-202.757339477539
-175.1953125
-142.006439208984
-111.487930297852
-91.269416809082
-75.9147872924805
-65.137939453125
-58.1759071350098
-49.3064651489258
-30.70924949646
-11.7305517196655
-3.05185079574585
14.0194396972656
43.2981338500977
64.3749771118164
74.4842376708984
82.876823425293
84.2120132446289
78.2036819458008
81.9231185913086
91.7462692260742
102.61848449707
114.25366973877
114.158294677734
123.123107910156
145.916625976563
156.407363891602
162.41569519043
167.279571533203
165.658279418945
165.562911987305
168.90087890625
171.761978149414
179.58235168457
192.075866699219
193.029571533203
191.312896728516
197.416610717773
197.130493164063
192.361968994141
192.648086547852
199.800857543945
199.610122680664
188.451797485352
187.116607666016
186.735122680664
185.78141784668
194.746231079102
194.46012878418
194.650863647461
201.803634643555
199.800857543945
199.800857543945
199.800857543945
188.928649902344
180.917541503906
183.68327331543
187.87956237793
189.500869750977
190.359191894531
184.446243286133
174.527725219727
166.802719116211
157.837905883789
158.410140991211
161.652725219727
150.494400024414
145.821243286133
148.586990356445
144.486068725586
147.824020385742
152.592544555664
145.535140991211
135.235137939453
128.177734375
128.940704345703
131.801803588867
129.417556762695
124.267555236816
125.888847351074
131.801803588867
134.376815795898
133.232360839844
127.414772033691
115.302742004395
107.673110961914
115.207366943359
126.747184753418
133.899963378906
134.56755065918
133.423110961914
133.804580688477
124.744407653809
118.259223937988
119.022186279297
117.114776611328
117.782371520996
119.880516052246
121.597183227539
124.172180175781
119.68977355957
109.00830078125
100.138854980469
98.7083053588867
95.8471908569336
75.8194198608398
52.0722045898438
43.5842437744141
35.5731353759766
24.7962875366211
24.7009181976318
25.8453617095947
21.5536975860596
17.2620315551758
10.0138854980469
0.0953703373670578
-5.24536848068237
-9.34629344940186
-14.3055505752563
-20.7907333374023
-32.5212860107422
-36.3360977172852
-39.5786895751953
-56.3638725280762
-62.5629425048828
-64.6610870361328
-74.7703475952148
-72.0046081542969
-67.9990539550781
-67.903678894043
-66.9499816894531
-81.2555313110352
-90.5064544677734
-85.4518280029297
-87.7407150268555
-93.5583038330078
-100.711082458496
-109.103668212891
-105.574966430664
-97.849967956543
-98.1360778808594
-94.8934860229492
-94.3212661743164
-106.337928771973
-111.678665161133
-111.1064453125
-117.59162902832
-119.403663635254
-114.730522155762
-117.59162902832
-117.686996459961
-105.098114013672
-99.8527450561523
-111.297187805176
-119.68977355957
-118.354591369629
-120.83422088623
-126.651809692383
-126.556442260742
-120.929588317871
-117.019409179688
-118.354591369629
-120.452735900879
-122.169403076172
-120.357368469238
-108.626815795898
-102.809226989746
-108.626815795898
-111.964782714844
-116.44718170166
-117.59162902832
-116.924034118652
-122.169403076172
-119.022186279297
-112.823112487793
-111.201812744141
-107.768486022949
-103.190704345703
-94.3212661743164
-90.4110794067383
-98.6129302978516
-100.52033996582
-95.3703384399414
-94.1305236816406
-89.0758972167969
-83.2583084106445
-82.5907135009766
-77.345344543457
-70.7647933959961
-71.9092330932617
-77.9175643920898
-81.6370086669922
-72.3860855102539
-61.99072265625
-61.323127746582
-54.7425765991211
-50.0694274902344
-53.4073905944824
-51.5953521728516
-51.9768333435059
-61.2277565002441
-60.274055480957
-49.3064651489258
-46.0638732910156
-48.066650390625
-49.3064651489258
-47.8759117126465
-41.7722091674805
-32.4259147644043
-31.3768424987793
-39.197208404541
-36.7175827026367
-29.0879535675049
-28.6111011505127
-22.0305480957031
-15.0685138702393
-19.5509204864502
-21.0768451690674
-14.7824029922485
-17.0712909698486
-15.2592544555664
-2.76573991775513
-1.04907369613647
-4.48240613937378
-0.762962698936462
5.1499981880188
7.53425693511963
7.53425693511963
11.7305517196655
16.4036979675293
17.357400894165
21.2675857543945
23.1749935150146
17.0712909698486
8.96481227874756
5.53147983551025
12.588885307312
19.360179901123
12.4935140609741
10.4907369613647
20.2185115814209
24.1286964416504
26.4175834655762
25.2731399536133
20.409252166748
26.226842880249
31.5675830841064
26.6083240509033
20.2185115814209
18.787956237793
23.7472152709961
24.1286964416504
20.3138828277588
23.5564746856689
28.8972129821777
32.6166572570801
40.1509132385254
44.1564674377441
40.2462844848633
41.4860992431641
49.4018363952637
46.8268356323242
37.0036926269531
36.5268402099609
39.5786895751953
37.9573936462402
41.6768379211426
49.0203552246094
47.8759117126465
49.8786888122559
52.8351669311523
46.4453544616699
44.6333198547363
41.1999855041504
33.3796195983887
35.1916542053223
36.431468963623
36.431468963623
39.2925796508789
36.3360977172852
31.9490642547607
27.0851764678955
20.6953639984131
21.6490669250488
22.2212886810303
22.9842510223389
36.1453590393066
43.1073951721191
41.2953567504883
46.6360969543457
43.679615020752
34.810173034668
37.1944313049316
40.6277656555176
39.9601707458496
29.7555465698242
24.6055469512939
34.7148017883301
36.0499877929688
33.1888771057129
36.2407302856445
32.2351760864258
27.8481388092041
28.2296199798584
26.3222141265869
25.5592517852783
23.6518440246582
14.4009208679199
10.6814785003662
14.1148099899292
12.2074031829834
12.3981437683105
21.9351787567139
24.9870281219482
18.6925868988037
15.4499950408936
20.0277709960938
22.2212886810303
16.1175880432129
12.588885307312
10.9675893783569
13.4472179412842
22.9842510223389
30.1370277404785
32.7120246887207
30.0416564941406
27.0851764678955
26.6083240509033
22.5074005126953
18.3111057281494
20.2185115814209
19.8370304107666
20.9814739227295
22.2212886810303
10.2999963760376
3.24259161949158
9.9185152053833
12.302773475647
11.8259220123291
13.9240694046021
17.6435127258301
21.2675857543945
20.2185115814209
18.8833274841309
18.787956237793
18.787956237793
17.9296245574951
14.4962921142578
15.0685138702393
16.8805503845215
15.5453653335571
13.4472179412842
13.1611070632935
13.256477355957
12.7796258926392
11.1583299636841
13.8286991119385
14.9731435775757
8.96481227874756
11.4444408416748
12.1120328903198
4.00555419921875
7.53425693511963
15.7361059188843
17.4527721405029
12.4935140609741
3.62407302856445
3.8148136138916
12.3981437683105
20.5046234130859
20.7907333374023
15.7361059188843
14.3055505752563
11.8259220123291
7.15277528762817
6.19907188415527
4.1962947845459
3.8148136138916
7.91573810577393
13.0657367706299
14.687032699585
14.7824029922485
20.8861045837402
22.7935104370117
12.9703664779663
9.72777462005615
13.3518476486206
8.0111083984375
-0.190740674734116
-9.15555286407471
-17.9296245574951
-16.022216796875
-12.2074031829834
-12.4935140609741
-8.48795986175537
-8.29721927642822
-11.9212923049927
-15.5453653335571
-23.5564746856689
-31.7583236694336
-30.8046188354492
-31.3768424987793
-39.9601707458496
-40.1509132385254
-31.4722118377686
-27.0851764678955
-26.7036952972412
-26.5129547119141
-29.4694347381592
-34.3333206176758
-37.099063873291
-39.7694320678711
-38.5296173095703
-35.6685066223145
-37.3851737976074
-33.9518394470215
-23.8425846099854
-23.6518440246582
-36.0499877929688
-43.0120239257813
-41.5814666748047
-39.6740608215332
-34.5240631103516
-35.382396697998
-41.5814666748047
-34.0472106933594
-23.3657341003418
-21.5536975860596
-16.30832862854
-20.8861045837402
-48.4481315612793
-69.8110885620117
-96.13330078125
-137.905517578125
-145.535140991211
-130.561996459961
-122.93236541748
-92.4138565063477
-46.5407257080078
-23.1749935150146
-17.8342533111572
24.2240657806396
164.036987304688
367.748016357422
538.1748046875
663.491455078125
796.723815917969
948.267272949219
1054.03295898438
1176.86999511719
1410.71801757813
1488.54028320313
1286.5458984375
1058.70617675781
868.728454589844
659.867370605469
394.928588867188
71.6231231689453
-215.155487060547
-428.689666748047
-589.6748046875
-707.838684082031
-790.047912597656
-831.05712890625
-831.724731445313
-806.070129394531
-769.829406738281
-736.449768066406
-721.190490722656
-723.384033203125
-727.484924316406
-721.858093261719
-711.55810546875
-700.399780273438
-673.791442871094
-628.013671875
-590.819274902344
-567.072021484375
-540.177612304688
-523.48779296875
-515.762817382813
-503.364654541016
-488.772979736328
-461.973937988281
-429.643371582031
-395.596160888672
-354.110076904297
-322.637847900391
-304.994354248047
-283.154541015625
-250.728622436523
-232.703628540039
-225.932342529297
-210.768447875977
-197.607345581055
-172.811050415039
-135.044403076172
-113.586074829102
-98.9944152832031
-77.6314544677734
-57.2222023010254
-48.3527641296387
-39.7694320678711
-14.8777732849121
1.81203651428223
4.95925760269165
20.5999927520752
42.8212814331055
53.5981292724609
62.6583137512207
79.4434967041016
90.6971969604492
91.269416809082
92.318489074707
96.4194107055664
103.667556762695
115.016632080078
127.796257019043
137.428665161133
146.107360839844
156.693466186523
164.990692138672
172.620315551758
183.015686035156
186.353637695313
179.773086547852
179.105499267578
179.773086547852
175.958282470703
178.914764404297
185.304565429688
191.312896728516
196.367523193359
205.427719116211
216.872146606445
212.485122680664
199.133270263672
196.65364074707
196.176788330078
186.735122680664
183.68327331543
193.220306396484
197.511978149414
197.225860595703
198.274932861328
193.792526245117
185.87678527832
180.154571533203
173.09716796875
166.70735168457
173.860122680664
183.111053466797
179.58235168457
178.533279418945
181.58512878418
175.386047363281
166.993469238281
165.562911987305
170.331420898438
172.715682983398
169.949951171875
168.80549621582
169.854568481445
170.903656005859
167.661056518555
156.693466186523
147.824020385742
149.254577636719
147.44255065918
137.142547607422
132.660140991211
131.706436157227
127.128662109375
127.700881958008
132.46940612793
133.136993408203
126.747184753418
123.504592895508
131.706436157227
136.284210205078
132.183288574219
135.998107910156
143.818466186523
143.246246337891
147.53791809082
152.783279418945
140.957366943359
131.706436157227
133.327728271484
132.374038696289
129.894409179688
126.461067199707
125.793479919434
133.232360839844
134.186065673828
131.611068725586
130.37126159668
118.640701293945
107.100891113281
103.76293182373
93.367561340332
78.2036819458008
73.6259002685547
70.0971984863281
55.5055389404297
45.1101722717285
37.5759124755859
22.2212886810303
18.1203651428223
8.96481227874756
4.48240613937378
-2.8611102104187
-10.3953666687012
-20.1231422424316
-26.0361022949219
-27.943510055542
-33.2842483520508
-45.5870208740234
-58.3666496276855
-62.6583137512207
-66.6638641357422
-67.4268264770508
-63.8027572631836
-66.5684967041016
-75.8194198608398
-89.2666397094727
-94.5120086669922
-88.7897872924805
-88.7897872924805
-97.5638580322266
-105.76570892334
-115.49348449707
-125.411994934082
-125.411994934082
-121.406440734863
-122.455513000488
-123.9814453125
-127.700881958008
-133.041625976563
-132.660140991211
-131.038848876953
-133.804580688477
-134.090698242188
-132.087921142578
-128.177734375
-121.883293151855
-120.929588317871
-123.790702819824
-119.022186279297
-110.820335388184
-114.635147094727
-123.695327758789
-129.131439208984
-130.180511474609
-127.986999511719
-131.801803588867
-135.235137939453
-136.284210205078
-135.998107910156
-125.602737426758
-119.880516052246
-123.886070251465
-117.686996459961
-112.537002563477
-121.215698242188
-123.313850402832
-115.970336914063
-115.874961853027
-115.684219360352
-106.719413757324
-99.7573776245117
-96.6101531982422
-94.8934860229492
-95.2749710083008
-94.3212661743164
-96.6101531982422
-104.62126159668
-103.953666687012
-98.5175628662109
-99.1851501464844
-96.2286758422852
-93.4629364013672
-101.187927246094
-107.005523681641
-100.52033996582
-91.5555267333984
-88.3129348754883
-87.1684875488281
-81.6370086669922
-72.4814605712891
-67.0453491210938
-63.4212760925293
-62.2768325805664
-67.2360916137695
-64.5657196044922
-60.4647941589355
-67.4268264770508
-63.9934997558594
-52.3583183288574
-47.7805404663086
-39.5786895751953
-35.382396697998
-38.6249885559082
-37.9573936462402
-35.5731353759766
-36.8129501342773
-41.0092468261719
-37.2898025512695
-28.4203605651855
-24.1286964416504
-19.7416610717773
-14.9731435775757
-11.5398111343384
-12.9703664779663
-13.6379585266113
-9.34629344940186
-7.6296272277832
-2.1935179233551
1.23981440067291
-7.6296272277832
-14.4009208679199
-8.29721927642822
2.76573991775513
5.1499981880188
2.1935179233551
6.1037015914917
10.8722190856934
8.0111083984375
5.24536848068237
5.43610954284668
6.96203470230103
16.4036979675293
27.0851764678955
28.0388793945313
23.5564746856689
16.8805503845215
18.4064750671387
28.8972129821777
34.1425819396973
35.8592491149902
34.4286918640137
30.70924949646
30.4231376647949
27.2759170532227
27.4666576385498
28.9925842285156
27.3712882995605
35.0009155273438
38.9110984802246
39.4833221435547
43.679615020752
37.4805450439453
36.6222114562988
42.9166526794434
42.3444290161133
43.2027626037598
45.3962821960449
45.0148010253906
44.4425773620605
46.8268356323242
45.0148010253906
37.9573936462402
36.1453590393066
37.9573936462402
42.1536903381348
47.3036880493164
47.9712791442871
45.5870208740234
41.1046180725098
36.0499877929688
33.6657295227051
36.431468963623
44.3472061157227
48.5435028076172
41.6768379211426
30.2323970794678
27.657398223877
34.4286918640137
35.0009155273438
30.1370277404785
29.278694152832
30.6138782501221
29.6601753234863
30.8999900817871
35.8592491149902
37.0036926269531
37.7666549682617
45.0148010253906
48.8296127319336
46.9222068786621
45.3962821960449
38.2435073852539
32.6166572570801
36.5268402099609
39.3879508972168
42.5351715087891
47.7805404663086
48.2573928833008
44.7286911010742
42.7259140014648
41.0092468261719
33.3796195983887
28.8018417358398
35.0009155273438
42.3444290161133
39.7694320678711
28.4203605651855
25.0823993682861
30.3277683258057
28.1342506408691
28.4203605651855
33.3796195983887
28.4203605651855
22.6027698516846
25.3685111999512
28.8018417358398
28.4203605651855
33.9518394470215
34.3333206176758
20.5999927520752
16.022216796875
22.5074005126953
27.0851764678955
30.0416564941406
24.6055469512939
19.1694374084473
21.7444381713867
17.2620315551758
15.6407356262207
22.7935104370117
23.5564746856689
21.2675857543945
14.9731435775757
15.0685138702393
22.4120292663574
20.7907333374023
13.3518476486206
11.4444408416748
14.4962921142578
13.3518476486206
15.2592544555664
22.3166599273682
18.9786968231201
11.2537002563477
8.58333015441895
9.06018257141113
13.3518476486206
17.8342533111572
11.7305517196655
-2.76573991775513
-5.7222204208374
-0.667592406272888
1.71666610240936
8.96481227874756
5.62685012817383
-6.29444265365601
-0.667592406272888
7.24814605712891
4.1962947845459
2.09814739227295
0.762962698936462
0
1.14444410800934
0.0953703373670578
-5.53147983551025
-10.7768487930298
-10.3953666687012
-7.53425693511963
-8.3925895690918
-12.0166625976563
-12.7796258926392
-11.3490705490112
-7.6296272277832
-1.52592539787292
-4.48240613937378
-10.1092557907104
-5.05462789535522
-0.286111027002335
-1.33518481254578
-4.57777643203735
-7.82036781311035
-5.81759071350098
-2.76573991775513
-3.147221326828
-8.96481227874756
-13.5425882339478
-6.6759238243103
-5.62685012817383
-14.3055505752563
-8.29721927642822
3.147221326828
4.00555419921875
3.5287024974823
-2.5749990940094
-9.44166374206543
-9.15555286407471
-12.588885307312
-11.9212923049927
-6.58055353164673
-8.67870044708252
-6.96203470230103
-2.76573991775513
-9.15555286407471
-15.6407356262207
-11.635181427002
-10.9675893783569
-16.4990692138672
-15.1638841629028
-13.5425882339478
-17.357400894165
-20.2185115814209
-21.0768451690674
-23.6518440246582
-26.7036952972412
-20.1231422424316
-6.00833129882813
-1.04907369613647
-6.86666440963745
-12.2074031829834
-16.2129573822021
-16.30832862854
-7.53425693511963
-4.48240613937378
-7.6296272277832
-6.1037015914917
-7.53425693511963
-10.9675893783569
-13.5425882339478
-14.5916624069214
-11.9212923049927
-15.0685138702393
-17.4527721405029
-11.4444408416748
-9.25092315673828
-12.6842555999756
-18.3111057281494
-22.125919342041
-14.687032699585
-6.1037015914917
-9.25092315673828
-15.0685138702393
-17.5481433868408
-11.8259220123291
-5.43610954284668
-7.0574049949646
-6.29444265365601
-8.67870044708252
-10.4907369613647
-4.38703584671021
-6.48518323898315
-5.81759071350098
-0.381481349468231
-8.0111083984375
-10.7768487930298
-6.6759238243103
-11.5398111343384
-22.125919342041
-30.5185089111328
-25.2731399536133
-10.7768487930298
-5.05462789535522
-6.00833129882813
-3.43333220481873
-2.67036962509155
-6.86666440963745
-9.63240432739258
-8.48795986175537
-7.0574049949646
-11.2537002563477
-12.0166625976563
-10.3953666687012
-18.5972156524658
-22.125919342041
-19.360179901123
-21.0768451690674
-23.4611034393311
-22.4120292663574
-12.4935140609741
-4.57777643203735
-11.0629596710205
-16.30832862854
-12.6842555999756
-11.1583299636841
-11.2537002563477
-9.9185152053833
-0.858333051204681
16.4036979675293
22.2212886810303
23.6518440246582
30.70924949646
25.6546211242676
18.787956237793
17.0712909698486
17.0712909698486
18.4064750671387
12.8749961853027
10.0138854980469
14.4962921142578
14.8777732849121
8.48795986175537
6.77129411697388
10.9675893783569
10.5861072540283
11.0629596710205
11.5398111343384
11.635181427002
15.6407356262207
13.4472179412842
5.34073925018311
1.62129580974579
6.77129411697388
5.62685012817383
-7.72499752044678
-10.0138854980469
-2.00277709960938
0.47685170173645
1.52592539787292
-3.8148136138916
-11.2537002563477
-12.302773475647
-13.7333288192749
-13.256477355957
-12.8749961853027
-13.7333288192749
-12.1120328903198
-11.3490705490112
-10.204626083374
-10.9675893783569
-13.256477355957
-14.5916624069214
-15.6407356262207
-14.8777732849121
-20.2185115814209
-32.8073959350586
-57.6036834716797
-93.367561340332
-111.201812744141
-113.395332336426
-115.49348449707
-95.751823425293
-48.6388740539551
-10.2999963760376
-4.7685170173645
7.82036781311035
87.1684875488281
247.104553222656
443.185974121094
603.789611816406
721.762756347656
861.28955078125
1007.58764648438
1095.51904296875
1256.3134765625
1473.18566894531
1415.86804199219
1156.46069335938
960.474670410156
766.682189941406
524.155395507813
248.630477905273
-50.5462799072266
-315.198974609375
-512.138732910156
-648.422912597656
-739.883117675781
-795.197875976563
-814.653442382813
-800.061767578125
-772.881225585938
-745.223815917969
-720.141418457031
-713.65625
-719.473815917969
-720.141418457031
-711.939575195313
-690.671997070313
-664.063659667969
-635.643310546875
-604.838684082031
-573.175720214844
-539.700744628906
-519.768371582031
-516.335021972656
-508.896118164063
-488.486877441406
-468.745208740234
-449.385040283203
-415.147094726563
-372.325805664063
-334.845275878906
-305.280456542969
-280.961029052734
-262.363800048828
-250.537887573242
-238.711959838867
-222.499008178711
-205.236968994141
-184.923095703125
-157.647171020508
-129.894409179688
-109.580520629883
-92.5092315673828
-79.06201171875
-66.6638641357422
-53.3120193481445
-46.9222068786621
-33.5703582763672
-11.635181427002
0
14.4962921142578
39.197208404541
63.8027572631836
79.5388641357422
80.8740463256836
80.778678894043
84.6888580322266
90.6971969604492
104.525894165039
117.973114013672
123.218475341797
130.848098754883
141.434219360352
146.870330810547
154.499954223633
167.184204101563
170.80827331543
171.380493164063
177.198089599609
174.718460083008
173.001800537109
183.301788330078
192.934204101563
196.367523193359
201.994384765625
212.389739990234
214.678634643555
203.901779174805
196.367523193359
196.844375610352
196.081420898438
195.413833618164
195.986053466797
193.506423950195
190.645309448242
193.220306396484
198.274932861328
195.127716064453
186.544387817383
180.536056518555
175.481430053711
170.903656005859
172.334197998047
181.203643798828
184.923095703125
181.966613769531
175.386047363281
172.715682983398
180.440689086914
183.015686035156
175.767532348633
164.895324707031
158.982360839844
161.461990356445
160.794387817383
159.173095703125
161.080505371094
163.560134887695
168.519393920898
165.753646850586
153.164764404297
145.2490234375
141.529586791992
140.671249389648
141.148101806641
145.43977355957
147.919403076172
142.387924194336
144.962921142578
143.055511474609
127.510147094727
127.414772033691
129.512924194336
122.264778137207
120.643478393555
121.120330810547
127.033294677734
134.472183227539
134.472183227539
135.711990356445
133.041625976563
119.68977355957
114.25366973877
123.027740478516
124.839775085449
118.545333862305
115.874961853027
115.684219360352
112.727745056152
107.387001037598
108.436073303223
111.011077880859
105.76570892334
97.9453353881836
85.0703430175781
70.8601608276367
71.4323883056641
75.1518249511719
65.2333145141602
52.2629470825195
40.8185043334961
25.2731399536133
8.29721927642822
-5.81759071350098
-11.4444408416748
-12.4935140609741
-18.5972156524658
-25.3685111999512
-26.7990646362305
-31.0907306671143
-39.5786895751953
-46.6360969543457
-47.3990592956543
-46.8268356323242
-55.9823913574219
-67.6175689697266
-77.345344543457
-82.3999710083008
-78.6805267333984
-79.5388641357422
-87.9314498901367
-94.8934860229492
-102.427742004395
-110.057373046875
-115.016632080078
-117.019409179688
-119.68977355957
-119.117553710938
-116.542556762695
-116.44718170166
-111.1064453125
-109.199035644531
-116.733299255371
-116.44718170166
-112.060150146484
-120.452735900879
-129.131439208984
-123.695327758789
-120.071258544922
-121.120330810547
-120.357368469238
-122.264778137207
-126.07958984375
-131.324951171875
-135.616622924805
-135.807357788086
-134.758285522461
-133.804580688477
-138.573104858398
-139.622177124023
-135.902740478516
-143.913848876953
-138.096252441406
-120.071258544922
-125.793479919434
-132.850875854492
-129.989776611328
-140.861999511719
-146.393478393555
-135.235137939453
-128.36848449707
-124.93514251709
-118.354591369629
-114.635147094727
-111.964782714844
-106.624038696289
-104.335151672363
-104.239784240723
-102.809226989746
-103.76293182373
-105.670333862305
-100.52033996582
-87.9314498901367
-84.2120132446289
-88.4083023071289
-83.6397857666016
-82.6860809326172
-89.6481170654297
-91.3647842407227
-95.3703384399414
-93.1768188476563
-81.6370086669922
-77.345344543457
-78.9666442871094
-78.4897918701172
-70.1925735473633
-55.4101676940918
-48.4481315612793
-55.0286865234375
-58.7481307983398
-53.3120193481445
-51.9768333435059
-52.3583183288574
-53.2166481018066
-59.0342407226563
-56.936092376709
-49.783317565918
-42.8212814331055
-33.4749908447266
-26.226842880249
-21.839807510376
-25.3685111999512
-24.4148063659668
-10.7768487930298
-7.0574049949646
-6.6759238243103
3.147221326828
8.0111083984375
9.34629344940186
10.0138854980469
4.10092449188232
0
3.62407302856445
8.77407169342041
9.25092315673828
10.2999963760376
14.4962921142578
16.7851791381836
14.1148099899292
9.44166374206543
9.06018257141113
13.0657367706299
22.2212886810303
28.8018417358398
24.3194370269775
21.4583263397217
22.9842510223389
24.6055469512939
23.8425846099854
18.2157344818115
22.9842510223389
34.1425819396973
32.4259147644043
27.4666576385498
24.3194370269775
21.839807510376
23.8425846099854
31.3768424987793
39.197208404541
36.9083213806152
31.0907306671143
31.0907306671143
31.8536930084229
29.0879535675049
26.5129547119141
36.2407302856445
49.6879463195801
46.8268356323242
40.7231369018555
44.4425773620605
47.7805404663086
49.9740562438965
49.3064651489258
44.3472061157227
44.4425773620605
47.1129493713379
41.5814666748047
35.1916542053223
34.810173034668
38.4342460632324
42.2490615844727
38.5296173095703
38.8157272338867
43.2027626037598
39.0064697265625
39.4833221435547
43.5842437744141
42.8212814331055
46.7314682006836
51.7860946655273
51.9768333435059
49.2110939025879
44.7286911010742
44.4425773620605
44.251838684082
41.6768379211426
41.0092468261719
44.5379486083984
51.6907234191895
51.404613494873
44.0610961914063
42.2490615844727
39.6740608215332
34.1425819396973
31.7583236694336
31.7583236694336
32.6166572570801
27.657398223877
22.4120292663574
23.3657341003418
19.5509204864502
21.7444381713867
33.2842483520508
34.3333206176758
28.2296199798584
27.1805477142334
26.226842880249
22.8888816833496
22.9842510223389
27.8481388092041
34.9055442810059
39.4833221435547
37.8620262145996
35.1916542053223
35.0962867736816
36.3360977172852
36.7175827026367
31.4722118377686
28.4203605651855
29.9462871551514
22.6981410980225
15.1638841629028
20.9814739227295
22.5074005126953
19.074068069458
28.1342506408691
36.6222114562988
32.9027671813965
28.9925842285156
26.6083240509033
22.5074005126953
16.5944385528564
8.48795986175537
2.38425850868225
2.38425850868225
12.0166625976563
22.2212886810303
18.8833274841309
10.204626083374
14.9731435775757
14.9731435775757
12.7796258926392
7.82036781311035
13.0657367706299
17.0712909698486
10.4907369613647
7.43888664245605
2.95648050308228
-0.286111027002335
1.81203651428223
-0.9537034034729
-2.28888821601868
-1.23981440067291
8.77407169342041
17.2620315551758
6.1037015914917
0.47685170173645
6.86666440963745
9.537034034729
6.86666440963745
7.24814605712891
12.4935140609741
9.06018257141113
2.38425850868225
-2.28888821601868
-10.1092557907104
-10.5861072540283
-1.43055510520935
-1.33518481254578
-9.25092315673828
-7.72499752044678
-2.67036962509155
-5.24536848068237
-6.86666440963745
-3.147221326828
2.00277709960938
1.71666610240936
-3.33796191215515
-11.3490705490112
-17.2620315551758
-12.6842555999756
-9.72777462005615
-9.537034034729
-3.8148136138916
-5.1499981880188
-12.7796258926392
-16.4036979675293
-16.2129573822021
-16.022216796875
-12.6842555999756
-6.1037015914917
-9.72777462005615
-15.6407356262207
-7.53425693511963
-0.47685170173645
-1.52592539787292
-1.71666610240936
-6.6759238243103
-13.6379585266113
-15.5453653335571
-8.86944198608398
-1.52592539787292
-6.48518323898315
-15.6407356262207
-19.6462898254395
-20.6953639984131
-23.9379558563232
-24.891658782959
-16.4036979675293
-10.8722190856934
-10.0138854980469
-8.0111083984375
-12.2074031829834
-22.125919342041
-30.2323970794678
-27.7527694702148
-17.6435127258301
-15.1638841629028
-19.1694374084473
-13.8286991119385
-7.82036781311035
-6.77129411697388
-2.67036962509155
-3.71944332122803
-11.8259220123291
-16.6898097991943
-20.409252166748
-18.6925868988037
-9.06018257141113
-3.8148136138916
-0.381481349468231
0.286111027002335
-2.28888821601868
3.05185079574585
9.15555286407471
7.15277528762817
0.381481349468231
-6.19907188415527
-6.86666440963745
-8.3925895690918
-13.5425882339478
-12.7796258926392
-11.3490705490112
-20.3138828277588
-23.4611034393311
-5.53147983551025
2.8611102104187
-9.63240432739258
-14.687032699585
-21.6490669250488
-33.761100769043
-31.8536930084229
-30.0416564941406
-30.4231376647949
-18.4064750671387
-10.204626083374
-13.9240694046021
-9.44166374206543
-0.667592406272888
-2.28888821601868
-9.06018257141113
-15.9268465042114
-14.4962921142578
-12.302773475647
-23.9379558563232
-21.839807510376
-6.00833129882813
-4.48240613937378
-4.95925760269165
-5.81759071350098
-12.9703664779663
-13.3518476486206
-6.00833129882813
-4.38703584671021
-18.9786968231201
-40.5323944091797
-61.8953514099121
-96.3240432739258
-126.07958984375
-123.504592895508
-112.060150146484
-112.155517578125
-86.5009002685547
-38.6249885559082
-18.6925868988037
-8.48795986175537
42.8212814331055
190.645309448242
399.887847900391
561.445190429688
682.374755859375
816.3701171875
1148.25891113281
1072.1533203125
1221.12182617188
1422.5439453125
1415.10510253906
1200.99865722656
996.810791015625
754.283996582031
507.370208740234
273.140655517578
-55.5055389404297
-359.927673339844
-519.386840820313
-615.043334960938
-696.298828125
-749.801635742188
-781.846069335938
-785.565490722656
-760.673828125
-736.545104980469
-718.997009277344
-706.980346679688
-714.991455078125
-724.337707519531
-713.9423828125
-692.579406738281
-663.109985351563
-628.013671875
-597.018310546875
-568.4072265625
-541.703552246094
-527.302612304688
-516.621154785156
-501.075775146484
-491.347991943359
-476.660949707031
-444.235046386719
-407.040618896484
-375.186920166016
-341.425811767578
-302.228607177734
-275.906402587891
-261.219360351563
-246.436950683594
-236.423065185547
-224.787887573242
-207.049011230469
-184.255493164063
-152.687911987305
-122.264778137207
-100.234230041504
-79.06201171875
-57.7944259643555
-44.3472061157227
-40.7231369018555
-42.8212814331055
-37.8620262145996
-18.3111057281494
6.00833129882813
24.7009181976318
42.4398002624512
63.8027572631836
78.9666442871094
86.2147903442383
86.4055252075195
88.2175674438477
103.095336914063
117.49626159668
121.501815795898
128.463851928711
142.387924194336
151.066619873047
161.557357788086
176.816604614258
172.811050415039
164.990692138672
177.29345703125
181.966613769531
177.388824462891
189.596237182617
207.716598510742
211.245300292969
205.427719116211
207.049011230469
210.196228027344
207.049011230469
204.474014282227
200.373077392578
198.084197998047
200.182342529297
199.228637695313
199.228637695313
204.474014282227
205.713821411133
200.75456237793
204.283264160156
211.436050415039
205.999938964844
197.798080444336
190.263824462891
180.726791381836
182.920318603516
190.740676879883
192.45735168457
191.599014282227
189.500869750977
188.356414794922
185.686050415039
177.102722167969
167.184204101563
163.655502319336
164.799942016602
158.410140991211
149.063842773438
158.028656005859
167.947174072266
156.598098754883
144.772171020508
137.142547607422
130.27587890625
131.229583740234
129.036071777344
129.322174072266
140.194396972656
142.101806640625
135.330505371094
135.998107910156
141.052734375
142.864776611328
146.107360839844
141.624954223633
129.226806640625
121.597183227539
119.403663635254
124.744407653809
126.747184753418
120.643478393555
116.924034118652
115.207366943359
114.730522155762
115.970336914063
117.400886535645
113.013854980469
108.531448364258
112.346260070801
117.114776611328
117.114776611328
112.060150146484
112.155517578125
115.207366943359
103.76293182373
86.8823776245117
80.3018264770508
75.0564575195313
62.5629425048828
49.6879463195801
43.7749862670898
40.913875579834
35.0962867736816
26.9898052215576
16.8805503845215
0.190740674734116
-15.6407356262207
-25.4638805389404
-34.9055442810059
-36.3360977172852
-37.099063873291
-46.5407257080078
-50.832389831543
-52.0722045898438
-57.0314636230469
-63.8981285095215
-71.8138656616211
-79.3481216430664
-84.4981231689453
-82.1138610839844
-80.8740463256836
-87.6453399658203
-92.0323791503906
-94.702751159668
-99.948112487793
-110.057373046875
-119.308296203613
-121.501815795898
-127.128662109375
-126.556442260742
-118.831443786621
-122.550888061523
-120.166625976563
-110.724967956543
-110.724967956543
-111.964782714844
-114.825889587402
-119.68977355957
-122.074035644531
-124.172180175781
-121.597183227539
-117.400886535645
-119.975891113281
-128.940704345703
-132.278656005859
-123.886070251465
-118.44995880127
-123.599960327148
-125.698104858398
-117.877738952637
-114.825889587402
-121.787925720215
-122.169403076172
-114.825889587402
-111.011077880859
-110.915702819824
-111.011077880859
-112.060150146484
-121.787925720215
-130.27587890625
-122.741630554199
-115.398109436035
-117.114776611328
-115.779594421387
-111.1064453125
-108.245338439941
-111.964782714844
-113.776817321777
-104.049041748047
-96.2286758422852
-92.318489074707
-88.7897872924805
-88.9805297851563
-85.1657104492188
-79.2527542114258
-79.2527542114258
-73.1490478515625
-68.7620162963867
-77.6314544677734
-82.2092361450195
-80.111083984375
-81.3508987426758
-81.9231185913086
-76.5823822021484
-68.0944213867188
-63.9934997558594
-66.6638641357422
-67.6175689697266
-65.4240493774414
-67.1407165527344
-66.5684967041016
-61.5138702392578
-59.9879455566406
-64.3749771118164
-63.039794921875
-50.4509086608887
-47.1129493713379
-50.5462799072266
-42.2490615844727
-31.1861019134521
-19.4555492401123
-11.0629596710205
-16.8805503845215
-22.9842510223389
-16.30832862854
-6.48518323898315
-6.38981294631958
-8.48795986175537
-8.58333015441895
-13.5425882339478
-13.4472179412842
-4.00555419921875
-2.5749990940094
-5.81759071350098
-1.71666610240936
-1.71666610240936
-2.67036962509155
5.34073925018311
6.96203470230103
2.1935179233551
6.48518323898315
16.4990692138672
27.8481388092041
29.1833248138428
21.5536975860596
20.5999927520752
17.9296245574951
13.1611070632935
17.4527721405029
23.2703628540039
22.8888816833496
22.6027698516846
24.6055469512939
23.8425846099854
25.7499923706055
26.4175834655762
21.1722145080566
26.0361022949219
32.1398048400879
26.0361022949219
26.4175834655762
26.7036952972412
22.8888816833496
25.4638805389404
23.5564746856689
22.6027698516846
24.1286964416504
18.1203651428223
19.8370304107666
33.2842483520508
42.3444290161133
45.4916534423828
44.4425773620605
37.2898025512695
30.6138782501221
28.6111011505127
34.2379531860352
43.9657249450684
46.6360969543457
50.5462799072266
57.4129447937012
58.0805358886719
56.1731300354004
50.2601699829102
47.5897979736328
50.7370223999023
52.7397994995117
57.4129447937012
58.2712783813477
48.066650390625
43.1073951721191
45.5870208740234
42.630542755127
45.0148010253906
49.9740562438965
41.1046180725098
36.1453590393066
41.5814666748047
42.8212814331055
46.2546157836914
51.1185035705566
43.679615020752
30.8046188354492
29.8509159088135
40.0555419921875
44.6333198547363
38.0527648925781
30.995361328125
35.6685066223145
45.3962821960449
47.8759117126465
42.3444290161133
33.2842483520508
28.9925842285156
26.0361022949219
22.0305480957031
19.1694374084473
17.1666603088379
22.9842510223389
36.7175827026367
39.0064697265625
26.7036952972412
24.1286964416504
26.8944358825684
21.1722145080566
15.4499950408936
16.30832862854
22.2212886810303
20.0277709960938
14.1148099899292
11.8259220123291
10.3953666687012
13.8286991119385
19.5509204864502
20.9814739227295
17.0712909698486
13.8286991119385
15.7361059188843
16.6898097991943
14.5916624069214
9.82314491271973
7.0574049949646
10.6814785003662
14.8777732849121
16.4036979675293
15.4499950408936
14.8777732849121
13.7333288192749
10.2999963760376
12.3981437683105
13.8286991119385
7.24814605712891
6.6759238243103
13.6379585266113
12.588885307312
7.43888664245605
9.72777462005615
12.3981437683105
5.91296100616455
-2.28888821601868
1.04907369613647
9.9185152053833
4.48240613937378
1.33518481254578
10.204626083374
6.96203470230103
-4.00555419921875
-3.24259161949158
5.7222204208374
8.48795986175537
7.15277528762817
4.95925760269165
2.76573991775513
9.15555286407471
10.3953666687012
1.52592539787292
2.67036962509155
5.24536848068237
3.33796191215515
8.48795986175537
9.82314491271973
8.3925895690918
10.9675893783569
6.1037015914917
8.96481227874756
19.5509204864502
18.0249938964844
12.9703664779663
6.00833129882813
-4.86388731002808
-10.2999963760376
-9.72777462005615
-6.48518323898315
-4.00555419921875
0.47685170173645
4.29166507720947
-0.667592406272888
-2.8611102104187
1.71666610240936
-3.33796191215515
-10.0138854980469
-10.7768487930298
-14.4962921142578
-16.6898097991943
-16.5944385528564
-15.2592544555664
-11.7305517196655
-8.29721927642822
0
4.86388731002808
-5.43610954284668
-5.24536848068237
9.25092315673828
4.29166507720947
-9.44166374206543
-11.4444408416748
-10.5861072540283
-11.2537002563477
-12.7796258926392
-14.687032699585
-15.4499950408936
-13.6379585266113
-10.6814785003662
-8.48795986175537
-3.8148136138916
0.190740674734116
-0.572222054004669
-2.5749990940094
-6.77129411697388
-13.7333288192749
-9.25092315673828
-2.28888821601868
-12.6842555999756
-27.657398223877
-33.0935096740723
-31.8536930084229
-27.7527694702148
-29.0879535675049
-24.3194370269775
-12.2074031829834
-19.2648086547852
-31.9490642547607
-30.2323970794678
-29.8509159088135
-26.226842880249
-22.7935104370117
-28.1342506408691
-23.5564746856689
-11.0629596710205
-6.48518323898315
-5.91296100616455
-4.67314672470093
-9.44166374206543
-15.7361059188843
-16.1175880432129
-21.5536975860596
-22.2212886810303
-0.858333051204681
12.6842555999756
7.82036781311035
6.29444265365601
2.47962880134583
-2.1935179233551
0.286111027002335
1.43055510520935
-0.572222054004669
-6.86666440963745
-11.5398111343384
-12.1120328903198
-17.5481433868408
-22.9842510223389
-19.4555492401123
-13.7333288192749
-8.96481227874756
-3.62407302856445
-3.24259161949158
-7.34351634979248
-9.9185152053833
-13.0657367706299
-18.6925868988037
-20.7907333374023
-18.1203651428223
-11.7305517196655
-0.0953703373670578
5.05462789535522
-3.91018390655518
-13.9240694046021
-15.6407356262207
-15.2592544555664
-17.8342533111572
-24.0333251953125
-28.1342506408691
-27.0851764678955
-22.9842510223389
-15.35462474823
-7.82036781311035
-4.95925760269165
-4.00555419921875
-2.5749990940094
-1.23981440067291
-3.33796191215515
-2.00277709960938
4.95925760269165
-7.82036781311035
-37.5759124755859
-57.5083160400391
-85.2610855102539
-119.403663635254
-126.365699768066
-122.83699798584
-112.632369995117
-65.805534362793
-18.4064750671387
-12.7796258926392
-16.8805503845215
40.1509132385254
193.887893676758
600.547058105469
534.169250488281
679.036804199219
835.158081054688
998.622802734375
1098.85705566406
1226.0810546875
1454.11157226563
1488.25415039063
1246.01354980469
1001.86541748047
794.434936523438
566.59521484375
309.66748046875
13.0657367706299
-267.418426513672
-484.195220947266
-632.7822265625
-739.978454589844
-812.555297851563
-839.545104980469
-833.918273925781
-801.39697265625
-760.101623535156
-740.741455078125
-731.967346191406
-723.288635253906
-725.672912597656
-729.392333984375
-722.907165527344
-706.122009277344
-672.93310546875
-628.109069824219
-586.813720703125
-545.613708496094
-511.566497802734
-496.784088134766
-486.579467773438
-478.091522216797
-468.07763671875
-447.000793457031
-416.673004150391
-376.045257568359
-340.472106933594
-312.433227539063
-287.350830078125
-272.473052978516
-257.881408691406
-249.965667724609
-246.532333374023
-227.076782226563
-198.274932861328
-168.80549621582
-139.526809692383
-116.161071777344
-95.751823425293
-77.8221969604492
-66.7592391967773
-60.8462753295898
-51.6907234191895
-36.9083213806152
-18.0249938964844
4.48240613937378
25.7499923706055
49.6879463195801
74.5796051025391
81.16015625
78.5851593017578
88.5036773681641
99.8527450561523
106.719413757324
117.305519104004
121.69255065918
128.940704345703
149.159210205078
160.889770507813
158.219390869141
159.077728271484
162.3203125
165.562911987305
173.860122680664
176.911987304688
177.29345703125
185.97216796875
191.122161865234
188.0703125
192.934204101563
201.040679931641
202.280487060547
207.049011230469
206.762893676758
197.035125732422
199.324005126953
206.286041259766
203.901779174805
206.286041259766
207.716598510742
205.1416015625
212.485122680664
214.678634643555
208.384185791016
207.811965942383
207.335113525391
203.901779174805
201.231414794922
201.994384765625
202.185119628906
195.890670776367
188.928649902344
186.353637695313
187.688827514648
186.449020385742
179.200866699219
167.756423950195
158.791610717773
156.216613769531
149.922180175781
146.011993408203
151.829574584961
152.020324707031
155.072174072266
162.129577636719
152.974029541016
146.011993408203
148.205505371094
141.815689086914
142.769393920898
147.728652954102
140.766616821289
140.671249389648
145.725875854492
145.916625976563
143.818466186523
134.472183227539
128.559219360352
128.463851928711
121.69255065918
118.068481445313
119.785148620605
123.027740478516
131.611068725586
134.56755065918
132.183288574219
132.46940612793
133.995330810547
131.706436157227
127.605514526367
130.561996459961
130.27587890625
125.602737426758
125.030517578125
122.455513000488
118.44995880127
120.452735900879
120.357368469238
110.534225463867
99.8527450561523
83.925895690918
68.7620162963867
72.0046081542969
74.2934951782227
70.2879409790039
71.8138656616211
61.7046089172363
40.2462844848633
28.4203605651855
18.8833274841309
5.81759071350098
-2.76573991775513
-10.1092557907104
-16.7851791381836
-20.6953639984131
-24.6055469512939
-25.4638805389404
-31.1861019134521
-51.1185035705566
-72.0046081542969
-84.1166381835938
-84.0212707519531
-81.5416412353516
-90.9833068847656
-97.4684906005859
-93.4629364013672
-93.4629364013672
-98.0407104492188
-104.62126159668
-113.681442260742
-120.83422088623
-120.548110961914
-114.921257019043
-116.924034118652
-126.842552185059
-131.229583740234
-131.992553710938
-134.56755065918
-135.902740478516
-135.330505371094
-134.66291809082
-138.096252441406
-139.049957275391
-133.613845825195
-129.322174072266
-125.602737426758
-128.273101806641
-137.142547607422
-138.573104858398
-138.191619873047
-139.717544555664
-137.047180175781
-138.382369995117
-140.766616821289
-131.611068725586
-124.839775085449
-131.038848876953
-135.807357788086
-129.226806640625
-129.703659057617
-130.561996459961
-134.376815795898
-131.038848876953
-129.417556762695
-132.183288574219
-128.749954223633
-119.785148620605
-112.918479919434
-116.35181427002
-115.49348449707
-106.242561340332
-111.583297729492
-116.637924194336
-107.673110961914
-107.387001037598
-106.719413757324
-98.8036727905273
-94.2258987426758
-91.9370040893555
-97.6592254638672
-99.3758926391602
-89.1712646484375
-87.0731201171875
-90.6971969604492
-91.7462692260742
-94.416633605957
-88.0268249511719
-71.8138656616211
-71.7184982299805
-83.6397857666016
-83.1629333496094
-76.9638671875
-71.4323883056641
-64.756462097168
-63.5166473388672
-63.2305335998535
-60.3694267272949
-58.2712783813477
-52.3583183288574
-44.8240585327148
-44.7286911010742
-44.6333198547363
-38.7203598022461
-34.7148017883301
-34.4286918640137
-30.5185089111328
-23.1749935150146
-20.409252166748
-15.35462474823
-12.588885307312
-16.6898097991943
-9.06018257141113
7.91573810577393
11.0629596710205
4.86388731002808
4.67314672470093
0.190740674734116
-14.4962921142578
-19.8370304107666
-16.2129573822021
-13.7333288192749
-10.1092557907104
-10.204626083374
-6.1037015914917
2.5749990940094
0.572222054004669
0.0953703373670578
7.53425693511963
8.10647869110107
12.3981437683105
21.839807510376
23.1749935150146
24.0333251953125
26.0361022949219
23.6518440246582
17.9296245574951
11.635181427002
10.9675893783569
20.1231422424316
28.6111011505127
26.226842880249
23.4611034393311
35.6685066223145
48.4481315612793
46.6360969543457
37.8620262145996
24.4148063659668
18.3111057281494
27.657398223877
32.9981384277344
34.9055442810059
40.0555419921875
39.2925796508789
38.148136138916
43.3935050964355
49.2110939025879
50.7370223999023
47.2083168029785
43.0120239257813
41.1999855041504
43.4888763427734
47.017578125
44.251838684082
44.251838684082
47.2083168029785
45.4916534423828
49.4972076416016
52.8351669311523
47.3036880493164
44.7286911010742
42.9166526794434
42.1536903381348
48.3527641296387
53.121280670166
45.9685020446777
35.7638778686523
39.0064697265625
50.9277610778809
54.6472053527832
48.5435028076172
45.2055397033691
48.734245300293
48.066650390625
43.7749862670898
41.5814666748047
42.7259140014648
45.5870208740234
43.2027626037598
39.7694320678711
43.4888763427734
42.5351715087891
33.761100769043
30.995361328125
37.099063873291
41.1046180725098
41.962947845459
47.8759117126465
50.7370223999023
40.7231369018555
30.4231376647949
32.8073959350586
39.0064697265625
41.8675804138184
47.2083168029785
54.0749816894531
54.5518341064453
47.5897979736328
45.8731346130371
48.734245300293
46.8268356323242
45.7777633666992
43.3935050964355
36.6222114562988
32.04443359375
29.7555465698242
28.0388793945313
22.2212886810303
13.7333288192749
10.4907369613647
11.4444408416748
13.256477355957
16.4990692138672
16.7851791381836
14.5916624069214
13.7333288192749
14.7824029922485
16.2129573822021
14.4962921142578
13.256477355957
12.2074031829834
7.15277528762817
4.57777643203735
10.1092557907104
20.2185115814209
23.5564746856689
16.30832862854
14.4962921142578
17.357400894165
20.5046234130859
24.2240657806396
24.1286964416504
25.6546211242676
24.9870281219482
17.738883972168
15.2592544555664
14.5916624069214
7.82036781311035
5.43610954284668
9.537034034729
8.77407169342041
1.04907369613647
-6.86666440963745
-7.15277528762817
-5.34073925018311
-8.10647869110107
-6.1037015914917
1.14444410800934
8.77407169342041
12.6842555999756
6.77129411697388
-0.286111027002335
-1.04907369613647
-0.667592406272888
2.95648050308228
9.72777462005615
10.2999963760376
2.95648050308228
1.71666610240936
0.858333051204681
-10.2999963760376
-13.7333288192749
-5.24536848068237
-1.04907369613647
-4.29166507720947
-8.3925895690918
-10.5861072540283
-9.537034034729
-5.7222204208374
-5.53147983551025
-11.3490705490112
-16.7851791381836
-16.30832862854
-14.8777732849121
-15.9268465042114
-14.0194396972656
-8.20184898376465
-8.86944198608398
-16.4990692138672
-17.5481433868408
-11.5398111343384
-8.29721927642822
-5.05462789535522
-2.1935179233551
-10.0138854980469
-17.738883972168
-18.8833274841309
-20.2185115814209
-15.5453653335571
-8.29721927642822
-9.9185152053833
-15.0685138702393
-10.0138854980469
-6.1037015914917
-15.0685138702393
-21.0768451690674
-21.3629570007324
-25.6546211242676
-27.7527694702148
-25.8453617095947
-23.6518440246582
-21.2675857543945
-24.7962875366211
-27.2759170532227
-23.7472152709961
-23.4611034393311
-25.0823993682861
-28.0388793945313
-28.6111011505127
-28.6111011505127
-30.4231376647949
-24.4148063659668
-15.7361059188843
-4.95925760269165
0.47685170173645
-10.5861072540283
-16.8805503845215
-19.9324016571045
-28.0388793945313
-26.7990646362305
-20.7907333374023
-19.4555492401123
-19.5509204864502
-17.8342533111572
-15.4499950408936
-17.357400894165
-22.0305480957031
-20.9814739227295
-15.2592544555664
-15.1638841629028
-16.022216796875
-9.82314491271973
-9.44166374206543
-14.0194396972656
-12.588885307312
-4.95925760269165
5.05462789535522
10.8722190856934
7.34351634979248
-0.572222054004669
0.0953703373670578
4.57777643203735
-3.147221326828
-11.7305517196655
-12.302773475647
-10.3953666687012
-5.24536848068237
-2.76573991775513
-8.67870044708252
-17.4527721405029
-22.8888816833496
-24.891658782959
-20.409252166748
-3.24259161949158
13.256477355957
6.38981294631958
-12.588885307312
-19.4555492401123
-20.8861045837402
-17.357400894165
-8.67870044708252
-4.1962947845459
5.53147983551025
18.2157344818115
18.6925868988037
12.8749961853027
14.1148099899292
20.2185115814209
23.0796222686768
20.5999927520752
12.588885307312
5.7222204208374
6.38981294631958
9.25092315673828
12.302773475647
11.0629596710205
4.86388731002808
3.43333220481873
5.53147983551025
7.24814605712891
7.72499752044678
2.5749990940094
-7.34351634979248
-12.9703664779663
-15.7361059188843
-19.7416610717773
-16.4036979675293
-12.7796258926392
-15.35462474823
-8.48795986175537
3.43333220481873
7.82036781311035
6.86666440963745
0.667592406272888
-5.53147983551025
-5.05462789535522
-2.1935179233551
2.5749990940094
11.9212923049927
16.2129573822021
14.1148099899292
9.537034034729
4.29166507720947
3.5287024974823
-1.9074068069458
-9.72777462005615
-6.29444265365601
-6.19907188415527
-23.3657341003418
-43.9657249450684
-68.9527587890625
-102.427742004395
-119.59440612793
-122.264778137207
-127.414772033691
-113.299964904785
-71.4323883056641
-39.0064697265625
-38.9110984802246
-19.8370304107666
82.876823425293
263.603607177734
460.829467773438
613.32666015625
740.264587402344
895.908996582031
1034.86352539063
1125.08386230469
1305.42919921875
1510.47546386719
1426.83569335938
1156.55615234375
951.223754882813
759.434020996094
522.057250976563
236.995300292969
-66.7592391967773
-327.501739501953
-517.574829101563
-645.275695800781
-739.787719726563
-802.159912109375
-824.285827636719
-808.263610839844
-778.03125
-758.098815917969
-741.21826171875
-729.487731933594
-731.490478515625
-733.11181640625
-724.051635742188
-707.07568359375
-680.658142089844
-642.796081542969
-607.318298339844
-575.750732421875
-544.278503417969
-527.111877441406
-519.386840820313
-508.991516113281
-491.634094238281
-469.603546142578
-448.335968017578
-409.424865722656
-364.886932373047
-339.995269775391
-318.34619140625
-294.217498779297
-276.573974609375
-264.080474853516
-252.540664672852
-239.47492980957
-225.169372558594
-201.994384765625
-167.279571533203
-132.087921142578
-109.580520629883
-97.0870056152344
-75.1518249511719
-52.2629470825195
-42.630542755127
-33.6657295227051
-20.3138828277588
-7.43888664245605
9.34629344940186
31.8536930084229
47.4944305419922
56.4592399597168
68.5712738037109
80.3971939086914
87.7407150268555
95.6564483642578
105.193481445313
115.398109436035
127.796257019043
141.148101806641
152.401809692383
160.41291809082
164.132354736328
163.941619873047
167.661056518555
179.200866699219
183.015686035156
180.917541503906
182.824935913086
186.353637695313
188.547164916992
189.310119628906
198.274932861328
208.956420898438
211.149932861328
216.299926757813
218.207336425781
212.961975097656
211.245300292969
204.092529296875
195.986053466797
201.326782226563
207.335113525391
204.187896728516
204.187896728516
203.138824462891
196.081420898438
193.124938964844
197.225860595703
202.661972045898
197.321228027344
190.836044311523
194.36474609375
192.743453979492
188.547164916992
186.830490112305
178.151794433594
168.90087890625
165.753646850586
162.987915039063
163.369384765625
167.088836669922
164.418472290039
163.560134887695
164.60920715332
156.693466186523
148.205505371094
145.058288574219
144.295318603516
143.627731323242
138.096252441406
128.940704345703
123.218475341797
122.264778137207
129.417556762695
139.240692138672
134.66291809082
123.599960327148
120.548110961914
124.172180175781
127.986999511719
129.799026489258
132.946258544922
131.038848876953
127.414772033691
132.183288574219
134.758285522461
135.711990356445
141.434219360352
139.526809692383
129.894409179688
127.700881958008
130.943481445313
132.56477355957
130.943481445313
128.845321655273
133.136993408203
140.861999511719
138.76383972168
127.986999511719
122.455513000488
116.161071777344
106.147186279297
100.615707397461
89.9342269897461
81.827751159668
82.3046035766602
78.7759017944336
74.0073852539063
63.4212760925293
41.2953567504883
25.3685111999512
19.4555492401123
9.06018257141113
-1.04907369613647
-9.44166374206543
-19.4555492401123
-24.7009181976318
-27.657398223877
-30.0416564941406
-38.7203598022461
-55.887020111084
-68.5712738037109
-79.9203414916992
-90.0296020507813
-87.3592300415039
-95.8471908569336
-96.8962631225586
-95.084228515625
-88.3129348754883
-97.9453353881836
-112.155517578125
-118.354591369629
-122.83699798584
-125.602737426758
-118.163848876953
-108.245338439941
-110.724967956543
-118.163848876953
-117.877738952637
-119.499038696289
-126.365699768066
-129.703659057617
-133.804580688477
-140.003662109375
-143.341613769531
-141.624954223633
-136.66569519043
-135.902740478516
-138.096252441406
-141.243469238281
-147.728652954102
-152.974029541016
-152.115692138672
-145.725875854492
-137.714767456055
-137.905517578125
-143.627731323242
-143.627731323242
-144.199951171875
-144.009216308594
-140.003662109375
-143.15087890625
-145.630508422852
-135.711990356445
-128.36848449707
-129.131439208984
-126.651809692383
-122.360145568848
-124.076812744141
-129.703659057617
-130.657363891602
-119.975891113281
-111.201812744141
-112.727745056152
-118.640701293945
-124.458290100098
-123.027740478516
-115.874961853027
-107.577743530273
-107.482376098633
-114.921257019043
-113.109222412109
-102.61848449707
-97.7546005249023
-100.615707397461
-101.187927246094
-92.7953414916992
-83.7351608276367
-86.5962677001953
-92.5092315673828
-86.7870101928711
-77.9175643920898
-73.7212753295898
-66.6638641357422
-58.4620170593262
-54.3610954284668
-55.1240577697754
-52.5490570068359
-49.6879463195801
-50.6416511535645
-46.2546157836914
-39.7694320678711
-38.148136138916
-35.8592491149902
-33.761100769043
-35.6685066223145
-38.8157272338867
-39.1018409729004
-37.4805450439453
-37.8620262145996
-35.382396697998
-28.5157318115234
-21.839807510376
-17.4527721405029
-17.0712909698486
-13.8286991119385
-10.8722190856934
-14.4009208679199
-13.7333288192749
-9.34629344940186
-4.67314672470093
-1.62129580974579
-4.1962947845459
-3.147221326828
2.1935179233551
2.09814739227295
2.09814739227295
6.86666440963745
10.8722190856934
12.0166625976563
9.9185152053833
11.0629596710205
20.6953639984131
31.8536930084229
36.431468963623
30.995361328125
25.6546211242676
26.226842880249
27.5620288848877
27.7527694702148
25.3685111999512
25.0823993682861
30.1370277404785
32.6166572570801
33.4749908447266
34.9055442810059
34.1425819396973
35.1916542053223
38.4342460632324
41.2953567504883
45.0148010253906
45.6823921203613
40.4370231628418
39.864803314209
50.7370223999023
58.7481307983398
55.4101676940918
52.453685760498
54.170352935791
49.6879463195801
40.4370231628418
38.6249885559082
44.8240585327148
49.0203552246094
47.4944305419922
49.4018363952637
51.2138710021973
49.5925750732422
52.0722045898438
56.6499824523926
59.7972030639648
59.9879455566406
57.6990547180176
53.5027618408203
50.9277610778809
52.8351669311523
51.8814659118652
44.8240585327148
36.1453590393066
34.2379531860352
33.2842483520508
31.0907306671143
34.6194343566895
35.4777679443359
37.3851737976074
43.9657249450684
44.0610961914063
39.864803314209
41.4860992431641
51.3092422485352
53.0259094238281
45.3962821960449
45.2055397033691
48.066650390625
46.7314682006836
45.300910949707
45.8731346130371
46.5407257080078
43.5842437744141
36.0499877929688
33.761100769043
36.9083213806152
37.099063873291
40.3416519165039
41.3907279968262
34.6194343566895
32.5212860107422
31.6629524230957
27.8481388092041
29.4694347381592
33.4749908447266
34.7148017883301
43.2027626037598
51.404613494873
46.6360969543457
37.0036926269531
31.4722118377686
27.3712882995605
26.3222141265869
30.70924949646
31.6629524230957
27.0851764678955
21.839807510376
20.5999927520752
21.1722145080566
20.2185115814209
20.409252166748
16.8805503845215
12.9703664779663
14.7824029922485
17.4527721405029
18.4064750671387
20.1231422424316
22.3166599273682
18.1203651428223
16.2129573822021
20.5999927520752
18.787956237793
20.3138828277588
24.891658782959
11.9212923049927
12.0166625976563
18.1203651428223
22.6981410980225
14.7824029922485
8.3925895690918
11.9212923049927
15.4499950408936
16.8805503845215
18.5018463134766
15.8314762115479
12.4935140609741
10.4907369613647
0.667592406272888
-6.6759238243103
-5.05462789535522
-6.58055353164673
-4.57777643203735
-1.14444410800934
-4.95925760269165
-2.5749990940094
6.86666440963745
11.0629596710205
10.3953666687012
4.48240613937378
-3.8148136138916
-4.86388731002808
-5.05462789535522
-11.2537002563477
-12.3981437683105
-5.7222204208374
-7.15277528762817
-14.8777732849121
-13.7333288192749
-6.19907188415527
-6.00833129882813
-7.43888664245605
-4.29166507720947
-9.82314491271973
-18.5018463134766
-15.8314762115479
-13.1611070632935
-19.1694374084473
-17.4527721405029
-12.9703664779663
-14.2101802825928
-10.0138854980469
-6.38981294631958
-3.43333220481873
-5.7222204208374
-12.8749961853027
-6.86666440963745
-2.09814739227295
-10.5861072540283
-13.9240694046021
-7.34351634979248
-7.53425693511963
-13.8286991119385
-8.48795986175537
-0.190740674734116
-6.38981294631958
-14.7824029922485
-17.6435127258301
-21.3629570007324
-21.839807510376
-23.5564746856689
-27.1805477142334
-23.6518440246582
-22.3166599273682
-19.360179901123
-11.3490705490112
-10.6814785003662
-11.0629596710205
-14.1148099899292
-19.7416610717773
-13.5425882339478
-6.48518323898315
-7.72499752044678
-9.15555286407471
-14.2101802825928
-22.6981410980225
-22.4120292663574
-18.787956237793
-20.7907333374023
-21.5536975860596
-16.8805503845215
-15.4499950408936
-21.2675857543945
-21.9351787567139
-14.0194396972656
-11.9212923049927
-16.2129573822021
-17.1666603088379
-8.20184898376465
-1.33518481254578
-9.82314491271973
-8.58333015441895
-4.57777643203735
-19.7416610717773
-23.9379558563232
-16.022216796875
-15.5453653335571
-23.0796222686768
-31.5675830841064
-25.0823993682861
-16.8805503845215
-26.226842880249
-32.8073959350586
-25.9407329559326
-22.125919342041
-23.1749935150146
-31.6629524230957
-34.0472106933594
-15.9268465042114
-13.4472179412842
-28.5157318115234
-30.6138782501221
-27.0851764678955
-26.226842880249
-20.5999927520752
-15.0685138702393
-11.7305517196655
-3.71944332122803
3.8148136138916
12.302773475647
17.738883972168
11.8259220123291
8.86944198608398
7.34351634979248
4.86388731002808
7.82036781311035
8.67870044708252
10.4907369613647
6.58055353164673
-3.62407302856445
0.190740674734116
6.29444265365601
6.19907188415527
6.86666440963745
5.05462789535522
2.00277709960938
-3.24259161949158
