Value(bpm)
53.9894551845343
53.7780327440169
53.5706086433041
53.3694409426487
53.176721408712
52.9945823022997
52.8251047736047
52.6703287688261
52.532264383943
52.4129046372819
52.3142396723167
52.2382724461797
52.187036008298
52.1626125284536
52.1671542959042
52.2029069830699
52.2722355514166
52.3776532771781
52.5218544951505
52.7077518061614
52.9385186760771
53.2176385821082
53.5489621500268
53.9367740929238
54.3845634205248
54.8885406318288
55.441976232921
56.0377187521615
56.6680491086223
57.3245438250272
57.9979544613347
58.6781087198259
59.3538404471488
60.0129573478354
60.6422564244375
61.2275977003294
61.7540463388409
62.2060915069882
62.5679469482462
62.8245896269469
62.9730694618189
63.0213113474815
62.9786228049272
62.855103283244
62.6613723404709
62.408321521924
62.1068980045913
61.7679249735703
61.4019609154041
61.0191977273495
60.6293958327446
60.2418533673699
59.8654059138175
59.5084531339149
59.1790088959166
58.884731497863
58.62941649264
58.4104034103804
58.2245673621219
58.0689667826304
57.9408125479799
57.8374410671454
57.7562908076714
57.6948818264948
57.6507979681858
57.6216714681987
57.6051697611674
57.5989843460873
57.6008216030168
57.6083954908873
57.6194220839446
57.6316159257589
57.6429505826519
57.6549599857912
57.6717503457567
57.6974958253788
57.7363918380308
57.7926711302266
57.8706261592977
57.9746380499519
58.1092125758917
58.2790238239632
58.4889664676526
58.7442179177082
59.0503120497988
59.4132267601416
59.8394883090242
60.3362963341047
60.9103702724127
61.5577258630562
62.2682289735037
63.0309052340331
63.8337276074696
64.6633845276389
65.5050861877912
66.342423504118
67.1572982737218
67.9299461575964
68.6390755934856
69.2621446514416
69.7757932025598
70.1564398243497
70.3863221069743
70.4667145447625
70.4044937973235
70.2082728542366
69.888071992383
69.4549738472986
68.9207807870135
68.2976900856773
67.5979989583481
66.8338477968105
66.0170063331006
65.158704245985
64.2695050974868
63.3592205190103
62.4368602526125
61.5106816012021
60.5891408316305
59.6805519384593
58.7922915494172
57.9308533549494
57.1019367922291
56.31054259937
55.5610716486455
54.8574244992507
54.203100021563
53.6012922326264
53.0549851575488
52.5670461140132
52.1403183337817
51.7777143170856
51.4823117984242
51.2574547258797
51.1068622682714
51.0347496242676
51.044868508893
51.1331028939336
51.2919169969828
51.5141824733411
51.7930055701964
52.1215535969587
52.4929003807507
52.8998882660387
53.3350059230456
53.7902827721664
54.257202252915
54.7266374636583
55.1888138271924
55.633304309318
56.0490632057708
56.4245044587789
56.7476296951335
57.007851639011
57.2042842073721
57.3399960658121
57.4185427545301
57.4438852189102
57.4203118566549
57.3523618941684
57.2447523039619
57.102310072964
56.929911206333
56.7324274320352
56.5146811816748
56.2814090799274
56.0372338891568
55.7866446323547
55.5339844566844
55.283445698363
55.0390081279407
54.8028290944906
54.5751832647207
54.356248949562
54.146202127434
53.9452173029944
53.7534683662395
53.5711294541162
53.3983758170708
53.2353846932285
53.082336193176
52.9394141986103
52.8068072784247
52.6847096261327
52.5733220228858
52.4728528307287
52.3835190211581
52.3055472445198
52.2391749265871
52.1846203026065
52.1420208741702
52.1115114135993
52.0932425058808
52.0873813032299
52.0941123475604
52.1136384669841
52.1461817531179
52.1919846267251
52.251311000052
52.3244475451639
52.411705078654
52.5134200742988
52.6299563166019
52.7617067097137
52.9090952579766
53.0725792363451
53.2526515584997
53.4497805123864
53.664263109942
53.8963869160058
54.1464738357211
54.4148814414659
54.7020044805819
55.0082765765609
55.3341721382681
55.6802084939064
56.0469482688004
56.4350020287302
56.8450312135373
57.2777513890927
57.7339358495501
58.2144196061503
58.7201038038138
59.2516015768528
59.8063914183969
60.380083762236
60.9679178918391
61.5647378835319
62.1649622192929
62.7625619362708
63.3510493907151
63.9234799250115
64.4724688454923
64.9902261080969
65.4686109284988
65.8992081437836
66.2734275214038
66.5826902067151
66.8230214919301
66.9982215545972
67.11328634886
67.173636661042
67.1850233796131
67.153437946506
67.0850303814459
66.9860367001187
66.8627169929227
66.7213049261642
66.5679689949144
66.4087855103849
66.249723050826
66.0966379437564
65.9551109413899
65.8293105224244
65.7227351443058
65.6388622671968
65.5811747766504
65.5531873923853
65.5584770065698
65.6007172924691
65.6837180785597
65.811470166927
65.9881964961459
66.2184108191031
66.5069854006178
66.859229658896
67.280656767953
67.7685609598431
68.3106409823295
68.8934915368611
69.5028573605622
70.1234677587267
70.7389286757593
71.3316843993591
71.8830628130465
72.3734184581317
72.7823860029125
73.0892525294545
73.273449982286
73.3153835223854
73.2070301968417
72.9561991798492
72.5732403779509
72.069648147528
71.4577023224514
70.7501255685442
69.9597701428031
69.0993433101366
68.1811768921339
67.2170430124858
66.2180152696153
65.1943724069645
64.155540072345
63.1100654009728
62.0656188233286
61.0295697670893
60.0115189585141
59.0209201414945
58.0659641507624
57.1537251174287
56.2903171437839
55.4810537636509
54.7306062238888
54.0431583817514
53.4225574911977
52.8724613934972
52.3964836968237
51.998339501341
51.6819951859188
51.4518268175219
51.3127929904124
51.2706294955038
51.332075354961
51.5051056553436
51.7929670241401
52.1869000135838
52.6770856399383
53.2538771781912
53.9073929499991
54.6271353569581
55.4016315565005
56.2180976445037
57.0621348776135
57.9174734655969
58.7657865999239
59.586604078893
60.3573601028229
61.0536120331383
61.6494642574742
62.1199537231434
62.4591626986678
62.6743709568246
62.7748801130402
62.7714803831207
62.6760681757748
62.5012767766302
62.26013824147
61.9657895977297
61.6312314286427
61.2691424011713
60.8917496270975
60.5107520684258
60.1372925221754
59.7819729567491
59.4549079817678
59.1655482200325
58.9170561134828
58.7066482565794
58.5314941550901
58.3889490057584
58.2765244095917
58.1918626082772
58.1327137265429
58.096915601949
58.0823758650264
58.0870560004473
58.1089571768205
58.1461076808463
58.196551832594
58.2583402937927
58.3295217111589
58.4081357912809
58.4928410953051
58.5843940452437
58.6840030566864
58.79289839242
58.9123358055736
59.0436007689651
59.1880133319753
59.3469336550095
59.5217682819178
59.7139772229017
59.9250819347487
60.1566743021143
60.410426743512
60.6881035892975
60.9915739070257
61.3227583301924
61.6806094546565
62.0597182958325
62.4541064065947
62.8574946587248
63.2632731796675
63.6644838926804
64.0538175230425
64.4236270718118
64.7659597536674
65.0726092111043
65.3351894197006
65.5452310614753
65.6943002525043
65.7741383752096
65.7778287967183
65.7068516278822
65.5669039331319
65.3640701284027
65.1046826290124
64.7952125990504
64.4421711431086
64.0520226403481
63.6311111944315
63.1856005305546
62.7214271350177
62.2442660134375
61.7595081404925
61.2722484791163
60.787283347382
60.309115891408
59.8419547239342
59.3896595855582
58.9558224208915
58.5438293080372
58.1568894940946
57.7980669386529
57.470314144692
57.1765081281569
56.9194885395058
56.7020981163221
56.5272258195958
56.3978531933362
56.3171046956643
56.2883029899056
56.3150304701559
56.4011986454184
56.5511274437673
56.7682874472808
57.0487416128648
57.385885681803
57.7731072089531
58.2036513527878
58.6704960157305
59.1662399991824
59.6830051811925
60.2123548996469
60.745231818071
61.2719195250756
61.7820328999482
62.264542762488
62.7078403853676
63.0998469375719
63.4288941853998
63.6910918263665
63.8877102113267
64.0205678483132
64.091922044671
64.104421290814
64.0610538374469
63.9650940604089
63.8200481339952
63.6296004056036
63.3975616951038
63.1278205453604
62.8242982393901
62.490908186915
62.1315200788955
61.7499297556174
61.3501235115495
60.9366753467286
60.5140761505175
60.0866037799151
59.6583169959592
59.2330553987745
58.8144446035744
58.4059059333177
58.0106699621014
57.6317933199209
57.272178258436
56.9345945744222
56.6217035894823
56.3360839894066
56.0802594335263
55.8567279538332
55.6679932769372
55.5160495888656
55.4000752635813
55.3184401931155
55.2696598493595
55.2523786931974
55.2653548474163
55.3074463543753
55.3775987728776
55.4748339052138
55.5982394756183
55.7469596066178
55.9201859609032
56.1171494342088
56.337112299883
56.5793607188875
56.843197540329
57.1279349041415
57.4322098370227
57.7525501012936
58.0849454371767
58.4252035082372
58.7689323353057
59.1115286723564
59.4481731277736
59.7738329066874
60.0832730761833
60.3710772239017
60.6316782802834
60.8594000949445
61.0485100903777
61.1932829577966
61.2880749131844
61.3275554545086
61.3113042104578
61.2446704663202
61.1335362981847
60.9839129672405
60.8018614013654
60.5934240287224
60.3645686729005
60.1211447122389
59.868851298453
59.6132171269175
59.3595910507046
59.11314272514
58.8788724485856
58.6616294166448
58.4661377197828
58.2970295790176
58.1576925247408
58.0463049903867
57.9597227973633
57.8949052635013
57.8488910818041
57.8187777192088
57.8017040777622
57.7948362040568
57.7953559005375
57.8004521461705
57.8073152752891
57.8131338929917
57.8150945236827
57.8103839963621
57.796194566117
57.7697317559392
57.7282709735788
57.6716882141332
57.6037405855071
57.5284857310228
57.4499476396388
57.3721093816449
57.2989114490884
57.2342555533691
57.1820137392395
57.1460427120369
57.1302033421576
57.1383854071626
57.1745377582802
57.2427042569392
57.3470660229893
57.4919907769278
57.682090354914
57.9215653826808
58.2079176012234
58.5347510666567
58.8954841622343
59.2832998990927
59.6910664439743
60.1112719159725
60.5359753342788
60.9567762563608
61.3648061549197
61.7507448880239
62.1048656517386
62.4171114925785
62.6772057248951
62.8747973888051
62.9999448104192
63.0511634861454
63.0363054154348
62.9640998538425
62.8435430905878
62.6837495690003
62.4938275012932
62.28278078443
62.0594376932305
61.8324058116576
61.6100519782667
61.4005056551392
61.2116840531388
61.0513375254799
60.9271141438677
60.8466429731121
60.8169891614208
60.8384335868805
60.9072419358698
61.019818171417
61.1727101691505
61.3625601493123
61.5860598246048
61.8399095886079
62.1207812793965
62.4252842379074
62.7499345471962
63.0911274914275
63.4451134147898
63.8079772913265
64.1756224360482
64.544148402817
64.9129016860663
65.2829853933927
65.6555692353333
66.031876708609
66.4131870113765
66.8008374824296
67.1962266230785
67.6008177662558
68.0161434645443
68.443810677556
68.8855068496874
69.3430069820948
69.8181818181818
70.3112679840964
70.8154582128408
71.3217542843295
71.8206328787201
72.3020437349181
72.7554354788614
73.1698127136954
73.5338275406114
73.835907810771
74.0644230426111
74.2078870590261
74.2551940445682
74.1958827632196
74.0241278976457
73.7474200151602
73.3764924674461
72.9224835897207
72.3966892429918
71.8103456232897
71.174446334594
70.4995952962693
69.7958950385238
69.0728683924351
68.3394105081054
67.6037674969641
66.8735377275996
66.1556918324638
65.4565946665744
64.7817237769245
64.1357302966221
63.5228706153859
62.9470826069155
62.4120447656246
61.9212371037239
61.478003582146
61.0856161753097
60.7473409857347
60.4665071413267
60.2465795405125
60.0912368769922
60.0044568004059
59.9906105821156
60.0545702965469
60.2015358815285
60.4305955199468
60.7345260218261
61.106056444821
61.5379744475846
62.0229552628048
62.5534055980682
63.1213214716723
63.7181605915348
64.3347314156654
64.9611025026129
65.5865371379493
66.1994594316752
66.787458998889
67.3373608204326
67.8385735581163
68.2871577126125
68.6801996577393
69.0149962845666
69.2890912602751
69.5003095742237
69.6467895515854
69.7270115331264
69.7398224679547
69.6844557442843
69.5605456897277
69.3681363039759
69.1076839380029
68.7800851597766
68.3894415328216
67.945028988961
67.4565063585074
66.9332615582418
66.384314882418
65.818249768614
65.243168918618
64.6666730928455
64.0958596283615
63.5373377023543
62.9972575194304
62.4813508905342
61.9949810492609
61.5431999828092
61.1308120148189
60.7622590315466
60.4382584758339
60.1563257491009
59.9140871851728
59.7093789438022
59.5402217196926
59.4047985131411
59.3014349920711
59.2285820526318
59.1848002488707
59.1687458140811
59.1791580395066
59.2148478119
59.2746871414036
59.3575995364408
59.4625511037043
59.5885027495225
59.7329528587337
59.8914736164378
60.0594386997966
60.2321271314897
60.4047113507102
60.5722527545539
60.7297051614098
60.8719266558892
60.9937002258784
61.0897634909554
61.1548476436187
61.1837254791365
61.1712680789464
61.1125093441982
61.0027171642329
60.8379387450204
60.620221351698
60.355551444198
60.0500357150001
59.7097507919252
59.34067305073
58.94862112551
58.5392109829714
58.1178230186228
57.6895803360138
57.2593371774231
56.8316763740109
56.4109146608114
56.0011147416847
55.6061030767126
55.2294924864034
54.8747088125397
54.5450208989033
54.2429075495805
53.9685973192934
53.7219170407292
53.5027613773287
53.3110939487062
53.1469488967869
53.0104329235767
52.9017278380156
52.8210936568109
52.7688723126926
52.7454920334172
52.7514724663235
52.7874306366797
52.8540878438356
52.9522776178361
53.082954881266
53.2472064874611
53.4462625160051
53.6801978838398
53.945194928023
54.2366136421783
54.5496740397245
54.8794088381733
55.220623731389
55.5678660643638
55.9154030288742
56.2572107461943
56.5869757772762
56.8981106786121
57.1837851769705
57.4369743407565
57.6505247547406
57.8172391400602
57.929979096773
57.9821180343386
57.9739875644138
57.9124094595557
57.8046971818108
57.658303409297
57.4807131565587
57.2793557229668
57.0615362509063
56.8343868387447
56.6048365320163
56.379599110713
56.1651773875545
55.9678827099706
55.7938684929254
55.6491768781751
55.5397980010183
55.4717418392601
55.4511067897943
55.48141610745
55.5605752491717
55.6859760031991
55.8551989984969
56.065971670306
56.3161298699715
56.6035823371
56.9262774051551
57.2821714416487
57.6691986380422
58.0852418678372
58.5281044285565
58.9954825779467
59.484938869601
59.993876390413
60.5195290159518
61.0599882577045
61.614970805862
62.1843276477786
62.7678853161304
63.3654430393459
63.97676974749
64.601600931953
65.239635358942
65.8905316387018
66.5539046546453
67.2293218591698
67.9162994459177
68.6142984116187
69.3226392370262
70.0374626042603
70.7505216866241
71.4526274469352
72.1338970842026
72.7837811007475
73.391122212329
73.9442503195522
74.4311168969597
74.8394707413856
75.1570750147479
75.3719629391903
75.4727264548188
75.4500513254315
75.3089357721821
75.0634124260492
74.7282283601518
74.3183655613327
73.8487298474765
73.3338995694853
72.7879357765328
72.2242519581901
71.6555389720694
71.093739274697
70.5500639675116
70.0350462810348
69.5586257756485
69.1288824060223
68.7456566051251
68.4060767749203
68.1075074422191
67.8475239027206
67.6238863960871
67.4345173312314
67.2774811093722
67.1509661665743
67.0532689185843
66.9827793413807
66.9379679630175
66.9173740776789
66.9195950226668
66.9432940078923
66.9875255976299
67.0517032772428
67.1352842063095
67.2377537527826
67.3586223288778
67.4974224044406
67.6537056743119
67.8270403586815
68.0170086176077
68.2232040628263
68.4452293517287
68.6826938499697
68.9352113506196
69.2020571240564
69.4778325683027
69.7535833499169
70.0199937537915
70.2674695734269
70.486174137784
70.6660922033249
70.797122848265
70.8692015906365
70.8724506819051
70.7973549345892
70.6349586001295
70.3770768459035
70.0165134598402
69.5497409008221
68.9873438719132
68.3444282081067
67.6358530976132
66.8759519634935
66.0783232198417
65.2556849188381
64.4197872163522
63.5813748998143
62.7501915322872
61.9350168485705
61.1437296665519
60.3833895471222
59.6603315838769
58.9802699071104
58.348406663467
57.7694939650385
57.2452455705782
56.7732992390831
56.3512652353671
55.9770522656298
55.648840680068
55.3650598173822
55.1243689464111
54.9256413612381
54.7679512701569
54.6505631895561
54.5729236140309
54.5346547862585
54.5355504363301
54.5755734020074
54.6548550801766
54.773696696939
54.9325724204903
55.1314053535945
55.3659843078144
55.63051693081
55.9190748295397
56.2255332058601
56.5435201390576
56.8663786426936
57.187142958091
57.4985308826
57.7929541294398
58.0625487417553
58.2992273968776
58.494754999349
58.640848243299
58.7292988135748
58.7521186043796
58.7020550240811
58.5793871122831
58.3913189147959
58.1455906364217
57.8500820437275
57.5126759380931
57.1411424827634
56.7430454804503
56.3256705512328
55.8959742671307
55.4605526653874
55.0256271708051
54.5970457779008
54.1802973386456
53.780536932259
53.4026205239576
53.0511474191967
52.730509365232
52.4449264127861
52.1962362176314
51.9819099161785
51.7991135263344
51.6451956091749
51.5176576887576
51.4141284651562
51.3323412737312
51.2701143527991
51.2253335712391
51.1959373412706
51.1799035027877
51.1752380165877
51.1799653463501
51.1921204446111
51.2097422871666
51.2308689239573
51.2535340329579
51.2757649771259
51.2956660317428
51.3130057918756
51.3290929441011
51.3452974260296
51.362992701572
51.3835561944413
51.4083704604725
51.4388251061231
51.4763194640259
51.522266041709
51.5780947666509
51.6452580598088
51.7252367808087
51.819547101331
51.92974837918
52.0574521244781
52.204332171907
52.3721361996057
52.5626865374207
52.7764148707988
53.0108930763112
53.2633068981424
53.5307609581707
53.8102585837076
54.0986844423306
54.3927902527238
54.68918392368
54.9843225446242
55.2745097068893
55.5558976712878
55.8244949092707
56.0761795266819
56.3067190252246
56.5117967621575
56.6870453294083
56.828131077012
56.9332295793321
57.0043642873922
57.0440190268643
57.0548029607431
57.0394227181682
57.00065624986
56.9413288197277
56.8642914478865
56.772402030394
56.668509278669
56.5554395491242
56.4359865725521
56.3129040440487
56.1889009979545
56.066639868162
55.9487371216034
55.8377658687136
55.7360689971737
55.6454768799628
55.5677317405637
55.5045716151904
55.4577391434745
55.4289914677713
55.4201113010813
55.4329192521834
55.4692875293489
55.5311551818394
55.6205450824374
55.7395829060466
55.890518420868
56.0757494823733
56.2978492094927
56.5595969313659
56.8639910317167
57.2115435451189
57.5974927955888
58.01629554842
58.4621512026145
58.9289311582718
59.4101180058444
59.8987562391954
60.3874167665962
60.8681779862811
61.3326265636445
61.7718812401569
62.1766429539857
62.5372741890915
62.8439097276193
63.0865998853443
63.2581837902683
63.3616854442477
63.4028842968272
63.3879857331314
63.3235044824434
63.2161565988624
63.0727627997477
62.9001651136135
62.7051580135039
62.4944345363899
62.274547339594
62.0518842333393
61.8326574545881
61.6229058037456
61.4285087401764
61.2551520066777
61.105737274339
60.979442954074
60.8752375141318
60.7921497961227
60.729262469302
60.6857060528455
60.6606534367502
60.6533148411986
60.6629331621575
60.6887796578562
60.730149936765
60.7863602129348
60.8567437991637
60.9406478125413
61.0374300705701
61.1464492242546
61.2669847317745
61.3982608227132
61.5394976559171
61.6899094849444
61.8487020131259
62.0150699299887
62.1881946304583
62.3672421209231
62.5513611187577
62.7396813542542
62.9313120861016
63.1253408435587
63.3208324102743
63.5168280662809
63.7122859037163
63.9051000244877
64.0922272353158
64.2705280684649
64.4368010200597
64.5877923620176
64.7202093317524
64.8307367719729
64.9160572302474
64.9728744501842
64.9979400940101
64.9880834318493
64.9402436190271
64.851504063254
64.7191282636773
64.5409740992113
64.3187707915067
64.0564167499007
63.7578855780484
63.4271598937635
63.06819260518
62.6848731841787
62.2809990548008
61.8602520599795
61.4261798428401
60.9821818795339
60.5314998280532
60.0772118096295
59.6222302132839
59.1693026066747
58.721015344206
58.2798081135857
57.8487425438416
57.4320505991045
57.0338596393576
56.658075561372
56.3084166522074
55.9884513304867
55.7016394013309
55.4513766793225
55.24104307092
55.0740544574107
54.9539189890368
54.8842987011951
54.8690777097079
54.9124386545623
55.0189495679259
55.1936639802556
55.442237899544
55.7686885735
56.1671922962649
56.6291211946214
57.145616636357
57.7073734483991
58.3044457662357
58.9260770129377
59.5605592452069
60.1951297735563
60.8159153483674
61.4079360537138
61.9551820076882
62.440775586187
62.8472296875341
63.1568081155926
63.3539242988686
63.4390215650322
63.4209658058771
63.3097129457075
63.1159612061135
62.8508625397606
62.5257623345571
62.1519752148326
61.740601378407
61.3023849441888
60.8476134091883
60.386055590216
59.9269343383892
59.4789297951663
59.0502089101804
58.6484772595407
58.2810009623908
57.9520537645654
57.6617972293766
57.4101705596041
57.1972382759535
57.0231949044582
56.8883708373444
56.7932395003096
56.7384259860381
56.7247173458278
56.7530747696362
56.8246479311955
56.9407918310239
57.1030865386237
57.3133603190309
57.5737167322078
57.8865664217465
58.2539805437212
58.6729301960758
59.1378025764767
59.6427527812552
60.1816163836064
60.7478156477439
61.334275477502
61.9333512642618
62.536771664064
63.1356001384186
63.7202197795754
64.2803464266639
64.8050752600163
65.2829658175406
65.7021777367876
66.0539409701628
66.3379951723453
66.5558690636764
66.7095750826555
66.8015644906721
66.8346774636284
66.8120898173368
66.737257982682
66.6138637517608
66.4457601699624
66.2369197651744
65.9913860982087
65.7132294015946
65.4065068589655
65.0752353963362
64.72358844758
64.3558992727885
63.9763708304802
63.5890442989582
63.1977894396065
62.8063001478102
62.4180946617052
62.0365198998376
61.6647594216296
61.3058445446187
60.9626682055888
60.638001215453
60.334510627341
60.0547800118326
59.801331511488
59.5766328672403
59.382212068899
59.2182414165374
59.0848572902542
58.9822804626569
58.91081953767
58.8708750786684
58.8629444958912
58.8876277760771
58.945634152385
59.0377898304144
59.1650469070619
59.3284936437469
59.5293662850644
59.7690626492492
60.0491577592886
60.3713193693721
60.7335396188144
61.1288037872976
61.5494734453249
61.9875199057826
62.4344587777413
62.8813047570898
63.3185500069477
63.7361699744321
64.123660689299
64.4701114020016
64.7643157485809
64.9949233953026
65.1506322685123
65.2204190236965
65.1948119511948
65.076002372375
64.8735397028823
64.5975380039925
64.2583476083118
63.866349219063
63.4317800792421
62.9645942663581
62.4743571342678
61.9701723537118
61.460638910473
60.9538347720217
60.4573236692297
59.978181485282
59.5230390243298
59.0981383800897
58.7093319109265
58.3591535075789
58.0458846136011
57.7676713191125
57.5228271852556
57.3098158553437
57.1272357341236
56.9738064433024
56.8483568064847
56.7498141539111
56.6771947683305
56.6295953191374
56.6061851534832
56.6061993311801
56.6289323054617
56.6737321645296
56.739995359713
56.8271797140073
56.935262105397
57.0647862112624
57.2163767400546
57.390717755776
57.5885573966112
57.8107131300944
58.0580776133063
58.3316252369498
58.6324194442939
58.9616209302567
59.3204968427395
59.71043112826
60.1329361875834
60.589666035236
61.0824311904581
61.6126429609791
62.1772832812847
62.7709359647134
63.3877558946476
64.0214170598535
64.6650572362017
65.3112342266594
65.9518967735194
66.5783737332522
67.1813854433199
67.7510813406129
68.2771077319336
68.7487090845767
69.1548652244746
69.4869827180064
69.7501167995471
69.9544382311593
70.1107261204628
70.2301993799279
70.3243807383929
70.4049950588571
70.4839049199779
70.5730852923188
70.6846385216983
70.8308507674069
71.024291567014
71.2779593555399
71.6050837319762
72.009092751435
72.4822702909279
73.0162380081899
73.6023520420778
74.231547540023
74.8941996102374
75.5800027195972
76.2778720772045
76.9758719559922
77.6611771394436
78.320074622247
78.9380893539802
79.5070129268713
80.0310663788843
80.5162716164483
80.9691395426021
81.3966155281932
81.8060333162729
82.2050795782198
82.6017710979778
83.004446382313
83.4217734092779
83.8627752615788
84.3348694425013
84.8327807521058
85.3457706571889
85.8625656150513
86.3713365706757
86.8596967953939
87.3147346452729
87.7230851189225
88.0710435219282
88.3447234231696
88.5302593659942
88.6185040588466
88.6186545088709
88.5449172958866
88.4118254875555
88.2340218817906
88.0260889291699
87.8024271895003
87.5771821713778
87.3642180715631
87.1771362672329
87.0293363779756
86.9311249035209
86.8797233242307
86.8689165764235
86.8926216613754
86.9448351428446
87.019589455434
87.1109176583742
87.2128263999038
87.3192770380441
87.4241749965997
87.5213675213675
87.6032347601129
87.6564440372535
87.6662239138926
87.6178947435626
87.4970383144156
87.2897129171012
86.9827080688801
86.5638301044546
86.0222066733167
85.3485952071655
84.5356780431171
83.5794910828267
82.4957636398515
81.3138079515613
80.0616014428149
78.7649437161821
77.4471947183696
76.1291808105993
74.8292341899122
73.5633320701991
72.3453056844714
71.1870942464189
70.0990245586508
69.0901023490753
68.168306306186
67.3406909396694
66.6069468259664
65.9584484513626
65.3870312028208
64.8854174937438
64.4470691914686
64.0660649397999
63.7369974766701
63.4548871490756
63.2151086674911
63.0133287886218
62.8454531179351
62.7075806176736
62.595964718067
62.5069801783276
62.4370950501293
62.3830750875053
62.3425643347042
62.3134269563618
62.2935490789286
62.280831802546
62.2731856720882
62.268526573888
62.264773038353
62.2598449382741
62.2516635782614
62.238153172444
62.2172437053773
62.186875165034
62.1450031268672
62.0896056543483
62.0188058046348
61.9327531073939
61.8333018411565
61.7223559518154
61.6018076855649
61.4735313367426
61.3393781834709
61.2011725906433
61.0607092486484
60.9197515081585
60.7800307661658
60.6432468560521
60.5110693946176
60.385140041452
60.267075630606
60.158472141034
60.060839185788
59.9746014601753
59.8993511336852
59.8346737091999
59.7801691828839
59.7354507077134
59.7001433417731
59.6738828740126
59.6563147209277
59.6470928883345
59.6458789930334
59.6523413397359
59.6661540491453
59.6869962335567
59.7145512167781
59.7485057955706
59.7885457671237
59.8342836421849
59.8852632790299
59.9410256209172
60.0011104979821
60.065055909851
60.1323973771553
60.2026673621294
60.2753947588805
60.3501044542806
60.4263169607426
60.5035481224222
60.5813088966105
60.6591052122669
60.7364379077705
60.8128027500525
60.8877407270882
60.9612264174171
61.033460442514
61.1046474474701
61.1749941748285
61.2447094060427
61.3140039166366
61.3830904454372
61.4521836782485
61.5215002463217
61.5912587399849
61.6616797377903
61.7329858515524
61.8054017876578
61.8791544250479
61.9544856173996
62.0331811549147
62.1200477003088
62.2202962618066
62.3392181935963
62.4822126044853
62.6548234538874
62.8627871102
63.1120914717582
63.4090481781025
63.7603799946874
64.1733261742176
64.6557695354766
65.2163902315847
65.8648528127431
66.6106864028902
67.4513928188231
68.3768909131579
69.3760788388277
70.4365557111624
71.5442798033673
72.6832530476374
73.8352491082026
74.9796091381265
76.0931359438287
77.1501226953168
78.1225551399985
78.9813526627
79.7156474876951
80.3350730146639
80.8521566876686
81.2811598181671
81.6377362566955
81.9386220615514
82.2013742780804
82.4441727512383
82.6856951711698
82.9450727763196
83.2419326603118
83.5922658598734
83.9938251655079
84.4391846597701
84.9207147210614
85.4305018847111
85.9602809548747
86.5013807297113
87.0446850895537
87.5806116358989
88.0991103880604
88.5896894983585
89.0446011525566
89.4646534091041
89.8523165948071
90.2102488023807
90.5412774352257
90.8483815194273
91.1346751587804
91.4033924717042
91.6578743112935
91.9015570334587
92.1379025393767
92.3697901211558
92.5997552451608
92.8303796951904
93.0642972504996
93.30419513858
93.5528170418809
93.8129677439302
94.0875195106326
94.3794203173818
94.6907168289288
95.0037000824655
95.2818143207623
95.4870116274528
95.5808490653324
95.5252215868624
95.2833928028041
94.8212830049338
94.1089379241768
93.1220640852643
91.843495616719
90.2808895909595
88.4963036608261
86.5577409817753
84.5268326271667
82.4575828164308
80.3959796142598
78.3802466348262
76.4415209111114
74.6047769433176
72.8898612200895
71.3125449393924
69.8855399421463
68.6194523041434
67.5236700926332
66.6040689554045
65.847537985732
65.2360120516946
64.7541718491486
64.3888847356608
64.128747422996
63.9637196115385
63.8848259337291
63.8839096951672
63.9534262849375
64.0862673274271
64.2756090379654
64.5147800757472
64.7971456319176
65.1160055042748
65.4642457099542
65.8337153753033
66.215769240602
66.6013620917593
66.9810206812171
67.3448412351685
67.682515717435
67.9833899364582
68.2365560998052
68.4309814771162
68.5556733876709
68.5998787840263
68.5533143189175
68.4064209693307
68.1549024589575
67.8095706789995
67.3845625742971
66.8940316378238
66.3518677105733
65.7714774741206
65.1656250223371
64.5463287862385
63.9248090570154
63.3114792994957
62.7159742012158
62.1472077693967
61.6134555872473
61.1224564183843
60.681529587879
60.2976969599522
59.9742888766901
59.7058901299991
59.4861769973299
59.3092363299499
59.1694770598985
59.0615562594772
58.9803176122741
58.9207407241629
58.8779001471391
58.8469333349617
58.8230170154908
58.8013516622298
58.7771538842884
58.7456566340047
58.7021171570631
58.6418325823962
58.5608636767585
58.460837110179
58.3459777731987
58.2204888791404
58.0885186740257
57.9541486867517
57.8213879011813
57.6941726059543
57.5763716623236
57.4717969470708
57.3842187738918
57.3173861703491
57.2750519872823
57.261002943396
57.2790948612315
57.3332935354896
57.4277215442647
57.5649735206537
57.7420650024075
57.9548905577395
58.1993530145477
58.4713122521279
58.7665394329827
59.0806765639634
59.4092015445934
59.7473991030904
60.0903382371524
60.4328569630804
60.7695553258312
61.0947977235191
61.4027256394874
61.6872818384143
61.9424172959223
62.1653973995139
62.3566949375273
62.5170258215417
62.6472246380907
62.7482355199243
62.8211024502018
62.8669591675024
62.8870188356656
62.8825636352455
62.8549344232665
62.805520595578
62.73575027197
62.6470809089147
62.5409904288673
62.4189694462991
62.2827157716566
62.1344302421377
61.9763688275011
61.810754896139
61.6397733621854
61.4655664669464
61.2902311283798
61.1158177829473
60.9443306394671
60.7777292641599
60.6179314195015
60.4668170863375
60.3262336086233
60.1980019128027
60.0839237690198
59.9857902471488
59.9054581788549
59.8449623134585
59.8063831033108
59.7918349133432
59.8034824653431
59.8435591216858
59.9143872445293
60.0184009321017
60.1581715114273
60.3364362599156
60.5561309409103
60.8204268760876
61.1327734477225
61.4969471357984
61.9171084612551
62.3971551834913
62.9336342585886
63.5181792254885
64.1418344499969
64.7949708477418
65.4671561761701
66.1470510130091
66.8223373857927
67.4796885823901
68.104789794878
68.682419671483
69.1966022717671
69.6308370287105
69.9684108581284
70.1964626008443
70.31900306202
70.3455546848678
70.2865160196647
70.1528929211444
69.9560510678968
69.7074980189851
69.4187002652908
69.1009380999669
68.765198921475
68.4221078875819
68.0818936841271
67.7543865325344
67.4490453782599
67.1741287369233
66.9292015398955
66.7091829255538
66.509124507856
66.3242301412021
66.1498301657313
65.9813628257992
65.8143623747623
65.6444534735505
65.4673515448273
65.2788687630251
65.074925346806
64.8515657780282
64.6049795039479
64.3315255916488
64.0284732515465
63.698827290229
63.3481516228623
62.9818564813765
62.6051550860156
62.22304568143
61.8403023526965
61.4614737513273
61.0908888456667
60.7326688438003
60.3907445098848
60.0688781974667
59.7706900483543
59.4996879472508
59.2593009770184
59.0529162855219
58.8837681599323
58.751671764326
58.6531232903232
58.5846336360116
58.5428433761574
58.5244905718892
58.5263830002671
58.5453743720834
58.5783442308543
58.622181328542
58.6737703574296
58.7299819849141
58.7876661900442
58.8436489379516
58.8947322509215
58.9376977423915
58.9693240479323
58.9881410540655
58.9964051344336
58.9968614362023
58.9922631888561
58.9853657036675
58.9789229402848
58.9756866458032
58.9784080632686
58.9898422082216
59.0127547236248
59.0499313453917
59.1041900429869
59.1783959427126
59.2754791962571
59.3984560252917
59.5504527517721
59.7339303007351
59.9490458324373
60.195584197533
60.4734072516783
60.7824500947727
61.1227177786753
61.4942824274138
61.8972807198648
62.3319116897676
62.7984348018812
63.2971682661925
63.8284875544417
64.3928240848863
64.9906640422448
65.6224742869737
66.2859763550242
66.975058027545
67.6828262429141
68.4017662590537
69.1236901010737
69.8397016187812
70.540182493487
71.2148039664641
71.8525692441566
72.4418913647035
72.9707106791614
73.4266549116861
73.7973691427315
74.0763985892093
74.2658494359261
74.3691653511994
74.3904605390158
74.3344232205501
74.2062147973701
74.0113681292256
73.7556880173283
73.4451565365343
73.0858453491137
72.6838365986785
72.2451534598298
71.7757009345794
71.2812619905875
70.7675886163645
70.2402288257629
69.7044603864231
69.1652796964097
68.6273986515923
68.0952484817383
67.5729895626062
67.06452627719
66.5735260916148
66.1034421214735
65.6575385857548
65.238918672803
64.8505544724923
64.4953170632319
64.1747945026055
63.8872540435559
63.6305357077493
63.4026204322909
63.2016124107748
63.0257234151424
62.8732588314691
62.7426051860584
62.6322189743775
62.5406166357554
62.466365542427
62.4080758933119
62.3643934215217
62.3339928405544
62.3155719678844
62.3078412354594
62.3094735636817
62.319122447017
62.3354463377421
62.3571057915728
62.3827608797711
62.411069176876
62.4406843232601
62.4702551648324
62.4984254742959
62.5238342594101
62.5451166636865
62.5609054638532
62.5698331662285
62.5705347008556
62.5616790800524
62.5432291937139
62.5169374766883
62.4846884086833
62.4483629822355
62.4098356984313
62.370972696909
62.3336310102651
62.2996589297169
62.2708974684281
62.2491829112054
62.236350444284
62.2342388665944
62.2446963942579
62.2695875831604
62.3108014104477
62.3696996370728
62.4452122161231
62.5356056710054
62.6391485434012
62.7541034301854
62.8787199443578
63.0112286108826
63.1498357050923
63.2927190547985
63.4380248386521
63.5838654225574
63.7283182828966
63.8694260697977
64.0051978654232
64.133611691023
64.2526070565441
64.3600560371028
64.4538031528205
64.5316847642844
64.5915387692791
64.6312157400399
64.6485914424174
64.6415806459649
64.6081520987592
64.5463445036355
64.4542832945744
64.330197974559
64.1724397408294
63.9794990917481
63.7500230831558
63.483825731159
63.1856236423666
62.8615044968455
62.5174075794066
62.1590841778015
61.7920699522194
61.4216681754341
61.0529428884371
60.6907209496924
60.3396019609539
60.0039751153621
59.6880421217375
59.3958455018994
59.1313017271192
58.8982388498039
58.7004384943828
58.5414639709671
58.4211425042335
58.3362381074855
58.2835825589824
58.2601426221151
58.2629884071834
58.2892655728946
58.3361709223092
58.4009310639036
58.4807839057998
58.5729628334574
58.6746834906131
58.7831331415265
58.8954626405205
59.0087810726789
59.120153157256
59.2266188098628
59.3262559580812
59.4187522857064
59.5039327451078
59.581626218265
59.6516658986852
59.7138896741298
59.7681405088216
59.814266823752
59.8521228736664
59.8815691192673
59.9024725931461
59.914707257934
59.9181543551492
59.9127027432141
59.8982492231226
59.8747186160575
59.8434280742929
59.8079614644156
59.7720986575209
59.7396020306773
59.7142183566505
59.6996853995778
59.6997431877961
59.7181499821182
59.7587030297384
59.8252642916112
59.9217914567563
60.0523747142546
60.2212799485879
60.4329992650643
60.692310051615
61.0040547096371
61.3676543365805
61.7772599679029
62.2266624752276
62.7093900554611
63.2186190716631
63.7470960439553
64.287072592876
64.8302558967888
65.3677778999655
65.8901870502323
66.3874666872155
66.8490842611308
67.2640752451939
67.6212460820111
67.9150014521092
68.1494246821997
68.3299610700585
68.4624681685508
68.5531265036425
68.6083573725111
68.6347499521865
68.6389993936771
68.627857062449
68.608093642814
68.5864754714293
68.5697542157971
68.5646698730758
68.5779187446989
68.6128429363175
68.6672733463089
68.7385461609099
68.824002583246
68.9209766554758
69.0267851235304
69.138719339094
69.2540392234495
69.3699693412986
69.4836971495263
69.5923734958104
69.6931154445545
69.7830115023635
69.8591978028127
69.9199965228365
69.9647550632047
69.9928717039119
70.0037661763403
69.9968824182691
69.9716913315641
69.9276935211804
69.8644219930547
69.7814447876393
69.6783675252608
69.5548358392048
69.4105376724537
69.2452054143548
69.0588291779027
68.8537083444649
68.6335003854434
68.4018181665285
68.1621969462553
67.9180852329286
67.6728393509564
67.4297214926086
67.1919010186743
66.9624587733077
66.7443941926878
66.5406350122869
66.3540494120583
66.1874604815772
66.0436573004063
65.9231661098548
65.8208772775602
65.7308993910487
65.6474232885105
65.5647052399724
65.4770603869674
65.3788661419246
65.2645752619983
65.1287382545622
64.9660346477375
64.7713124753244
64.5396350903296
64.266334147433
63.9470672987325
63.5778793562064
63.1577181079319
62.6939189825035
62.1953098347131
61.6703835190764
61.1272267943374
60.57347354034
60.0162798187671
59.4623179964668
58.9177870754702
58.3884364842888
57.8796008299808
57.3962434454485
56.9430069557114
56.5242695040128
56.1442057062285
55.8068518313075
55.5161751351837
55.2755612206668
55.0834258616227
54.9358628928756
54.829239375946
54.7601631353915
54.7254355434324
54.7220102578743
54.7469569690188
54.797429422981
54.8706371623544
54.9638205693277
55.0742289176778
55.199101243291
55.3356499313129
55.4810469939076
55.6324130771849
55.7868092896073
55.9413341957207
56.0948133232001
56.2475766620513
56.4000106989328
56.5525105799521
56.7054801517419
56.8593320592981
57.0144879038693
57.1713784643048
57.3304439854211
57.492134537145
57.6569104484408
57.8252428203284
57.9976141226642
58.1745188797809
58.3564644505843
58.5439719683539
58.7376011283176
58.9379887415392
59.1458005780882
59.3617237684687
59.5864686389648
59.8207707553637
60.0653931933953
60.3211290566867
60.5888042658634
60.8692806456853
61.1634593408537
61.4722845954476
61.7967479359361
62.1378928034831
62.4968196879471
62.8744334994384
63.2698375434363
63.6812840515774
64.1069341690011
64.5448496925952
64.9929824247346
65.4491644257359
65.9110993439172
66.3763550338382
66.842357703509
67.3063878589801
67.7655783383703
68.2169147453937
68.657238602911
69.0833832572379
69.4929043781268
69.8836240618242
70.2533187334905
70.5997291571254
70.9205727811613
71.2135575872496
71.4763973901809
71.7068285002653
71.9026276201485
72.0616308069027
72.181753288491
72.2610098827304
72.2976107415524
72.291214479057
72.2427417195657
72.1532922826134
72.024097793335
71.8565087995502
71.6519813504768
71.4120632469933
71.1383801652476
70.8326218433881
70.4965285059415
70.131877682597
69.7404715586026
69.3241249733428
68.8847231654537
68.4248731499353
67.9475602723042
67.4556753076097
66.9519971199743
66.4391845378951
65.9197706819017
65.3961595256075
64.8706244613035
64.3453086389915
63.822226851833
63.3032687500992
62.7902031786612
62.2846834487815
61.7882533725256
61.3023539292624
60.8291280328336
60.3734442819346
59.9405243401889
59.5353034190222
59.1624799322128
58.8265710946004
58.5319739707271
58.283031881737
58.0841065015357
57.939656426552
57.8543235051789
57.8330287891803
57.881080656603
58.0042985045513
58.2091564906044
58.5029532116839
58.8930403841055
59.3760126649658
59.9408915302907
60.5762286594625
61.2698966792542
62.008774015258
62.7784665702969
63.5630764680687
64.3450336746679
65.1050113691212
65.8219498359011
66.4732154565779
67.0349199103028
67.4824187161715
67.7915571158606
67.9540474033697
67.9797148101473
67.8809823521175
67.6715850902595
67.3661064637313
66.9795519837351
66.5269772622664
66.0231806763373
65.4824649396939
64.9184669286313
64.3440514929823
63.7712626808193
63.2113246798259
62.6746846185971
62.1710898863701
61.7076314578172
61.2836357341355
60.8968811826966
60.5453387709423
60.227151342968
59.9406154816364
59.6841655027825
59.456359283561
59.2558656728179
59.0814532693921
58.9319803859006
58.8063860420223
58.7036818534808
58.6229447016089
58.5633100841558
58.5239660613747
58.504186998047
58.5038223952422
58.5231451051606
58.5624766144446
58.6221806720561
58.7026656629886
58.8043872644319
58.9278514138193
59.0736176223338
59.2423026722153
59.4345847417055
59.6512080078161
59.892987784471
60.1608162621327
60.4556689250055
60.7786117335824
61.1302391640676
61.5075114442563
61.9057856772869
62.3201916605852
62.7456006215618
63.1765974143389
63.6074608799151
64.0321536967006
64.4443231966506
64.8373146965213
65.2041988717562
65.5378145586192
65.8308280860957
66.0758097949097
66.2653968067644
66.3961970703315
66.4709152420347
66.493064019128
66.4664279620087
66.3950055567795
66.2829534571814
66.1345341014587
65.9540676549489
65.7458889831947
65.5143101256287
65.263588526027
64.9979010897038
64.7213239827945
64.4378179675268
64.1511859365719
63.8638753202565
63.5766945928485
63.2903237914602
63.0054189633829
62.7226126683593
62.4425146039497
62.1657123418541
61.8927721638352
61.6242399867381
61.3606423669861
61.1024875758539
60.8502667377522
60.6044550247038
60.3655129011397
60.1338874140848
59.9100397681365
59.69539617129
59.492585328243
59.3042529217881
59.132991702043
58.9813562260511
58.8518796567822
58.747092634169
58.6695442966286
58.6218256053656
58.6065952073096
58.6266081683028
58.6847480195523
58.7840626920322
58.9278050716372
59.1194791005955
59.3628739858278
59.6589686187918
60.002225814479
60.3861706120234
60.804124991059
61.2491141848404
61.7137857398723
62.190342836414
62.6704941824943
63.1454234864519
63.6057820538987
64.0417083795906
64.4428786326757
64.7985915765183
65.0978906359803
65.3300425280913
65.4917747361623
65.5875912635668
65.6227991611298
65.6030881780737
65.534430065738
65.4229846408081
65.275014891546
65.0968127688358
64.8946366989187
64.6746613179878
64.4429394808517
64.2053762471322
63.9677143010887
63.7355301111184
63.5141638692171
63.3059756895604
63.1096705800104
62.923761819438
62.7468052163517
62.5773945763868
62.4141578938024
62.2557542181063
62.1008711538811
61.9482229574218
61.7965491980748
61.6446139553148
61.4912055247184
61.3351366071877
61.1752449561228
61.0103944568317
60.8397008952558
60.6649970437151
60.4898533606322
60.3177912218372
60.1522526034386
59.9966061297723
59.8541568498908
59.7281595612885
59.6218355551285
59.5383927276048
59.4810490869369
59.4530597854818
59.4577479232852
59.4985395061383
59.5790031025075
59.7028949362382
59.8738815197488
60.0908361622874
60.3487891078949
60.6426516021192
60.9672502489148
61.3172644975561
61.6871720005334
62.0712022880459
62.4632996030239
62.8570960914635
63.2458968348205
63.6226784258679
63.9801029022509
64.3105488339301
64.6061611808075
64.8597962446603
65.0719246285459
65.2471804596691
65.390482104161
65.5069475293786
65.6018480137991
65.6805691237054
65.7485797640871
65.8114098804208
65.8746372073274
65.943883337387
66.0248193238223
66.1231810378998
66.2447945788433
66.3955703809135
66.5777851547447
66.7870147103085
67.0180776102772
67.2656898392374
67.5244326211609
67.7887282873684
68.0528247462259
68.3107892512307
68.5565122514978
68.783722128362
68.9860115630501
69.1568761325766
69.2897654854858
69.378326035832
69.4219368328663
69.4267875131216
69.3995967948483
69.347164699276
69.2763166506761
69.1938607716543
69.1065586177945
69.0211092999385
68.9441467574384
68.8822498706156
68.841965131559
68.8298417249898
68.8524791026549
68.916262175839
69.0202515530052
69.1561034382333
69.3151157859589
69.4884823720892
69.6672438690938
69.8422612497532
70.0042125688346
70.1436143440818
70.2508686659087
70.3163367852612
70.3304392442325
70.2837816229794
70.1673037031195
69.9736541847561
69.7046257836268
69.3661150696177
68.9642866496486
68.5054519844346
67.9959716461642
67.4421678605889
66.8502484432537
66.2262426586572
65.575949027556
64.9048946944244
64.2183056484999
63.5210868650908
62.8178112909974
62.1127165278497
61.4097113773982
60.71292914069
60.0272777827582
59.3573655452016
58.7073804093776
58.0811290322865
57.4820790002995
56.9134032843387
56.3780260691347
55.8786693977728
55.4179003194004
54.9981784542529
54.6219040999897
54.291467202565
54.0092977110307
53.777918038
53.5999985671138
53.4784173993378
53.4163060621638
53.4147506816929
53.4705882813744
53.5804772098603
53.7413602710512
53.9504010730023
54.2049267014241
54.5023752667287
54.8402471737083
55.2160592118149
55.6273007776761
56.0713917324336
56.5456415746053
57.0472097823003
57.5730673528484
58.1199597477345
58.6843716389609
59.2624099273665
59.8493961901507
60.440106602433
61.028892425699
61.6096683203538
62.1759121808022
62.7206788054266
63.2366296329394
63.7160806390548
64.1510701661113
64.5334479222216
64.8549856154326
65.1075086793032
65.2830473203816
65.3740293455169
65.3777616554504
65.3013791285704
65.1537333354024
64.9440276054709
64.6816348136338
64.3759388763007
64.0362028263665
63.6714646380754
63.2904605797897
62.90157482246
62.5128133250719
62.1317996290364
61.7657900789502
61.4217060985375
61.1061814402983
60.8254781970276
60.5818706655709
60.3735304638741
60.198581229236
60.0552913915779
59.9420567872947
59.8573851666984
59.7998823200359
59.7682395898581
59.7612225731234
59.7776608462071
59.8164385710624
59.876485862018
59.9567708108155
60.0562920830752
60.1740720128943
60.3091659354843
60.4609573889269
60.629136305918
60.8134198712632
61.013539749216
61.2292401873228
61.460276177874
61.706411665305
61.967417788812
62.2430711502766
62.533152098348
62.837443020221
63.1557266333011
63.4877842695605
63.833394145983
64.1922317830087
64.5619875073538
64.9384039655589
65.3169512145195
65.6928839584383
66.0612388550351
66.4168391695049
66.7543076091148
67.0680881305604
67.352477409803
67.6016664913828
67.809792884828
67.9710030472501
68.0795247864319
68.1298721200248
68.1206952295135
68.0555179517069
67.9383859652244
67.7735420443911
67.5653660898289
67.3183191084935
67.0368920800978
66.7255603777964
66.3887441575254
66.0307749021574
65.6558681100639
65.2681019562085
64.8714016284017
64.4695289506697
64.0660964778471
63.6649915787418
63.2703515783213
62.8861287309428
62.5160842119462
62.1638062120877
61.8327317201448
61.5261715689415
61.2473384414411
60.9993776630071
60.7854007428251
60.6085217727243
60.4718969477474
60.3787676439801
60.3325076815045
60.3366756223084
60.3946717236334
60.5040175905948
60.6576056057654
60.8482632922742
61.0687822445759
61.3118354538082
61.5699111418781
61.8352636239861
62.0998823236263
62.3554805042368
62.5935055345316
62.8051725369563
62.9815230428111
63.1135097577533
63.1921077029281
63.2086224846389
63.1610997890097
63.056157323186
62.9011954723265
62.7037386176864
62.4713280747712
62.211432725249
61.9313780587383
61.6382935507044
61.339077700954
61.0403796448927
60.7485960150203
60.469881653322
60.2101728330314
59.9752218177098
59.7706418468175
59.6019105544627
59.4708984320478
59.3737101401904
59.3060781893755
59.263868581421
59.2430427713315
59.2396258919793
59.2496807574164
59.2692873289659
59.2945274606459
59.3214748408637
59.3461901178327
59.3647212377144
59.3731090371463
59.3673981152721
59.3436529643536
59.2979822051669
59.2286901138849
59.1400130278371
59.0371823846892
58.9253846989592
58.8097416649954
58.6952993944518
58.587026495819
58.4898206595455
58.4085234310337
58.3479429309918
58.3128844148714
58.3081887489603
58.3387791215595
58.409716608918
58.526265587616
58.6939704449081
58.9178549002275
59.1963228540539
59.5246243877285
59.898001841381
60.3116229666137
60.7605012110124
61.2394221652387
61.7428763549101
62.2649990945152
62.7995186395673
63.339714370868
63.8783872055511
64.4078448270697
64.9199046230347
65.4059182716825
65.8582690609758
66.2735128999757
66.6490580852334
66.9823864316138
67.2710793199207
67.5128443390505
67.70554208255
67.8472126155637
67.9361010953689
67.9706820095192
67.9496814921625
67.8720971929108
67.7372152045566
67.5446236059496
67.295241152553
66.9961639270734
66.6566205583394
66.285676373268
65.8921398191731
65.4844974182776
65.07087278158
64.6590076566284
64.2562627104924
63.8696357071832
63.5057948838743
63.1711256209664
62.8717889023803
62.6137905486793
62.403060761613
62.2453609269734
62.1416832040229
62.0879807535685
62.0802200090112
62.1145871999824
62.1874342510154
62.2952308815599
62.4345219673753
62.6018894651292
62.7939184056485
63.0071666358368
63.2381381412825
63.4832599153743
63.7388624589176
64.0011640978499
64.2662961164862
64.53111164962
64.7932177638307
65.0501826621562
65.2995014473271
65.5386002680482
65.7648425626641
65.9755375179643
66.1679508377128
66.339317883907
66.4868592134508
66.6077984838771
66.6993826443849
66.7589042636636
66.7837274437286
66.7725212826274
66.7274067201729
66.6511710014878
66.5466690239448
66.416798463234
66.2644770938107
66.0926225170804
65.9041344347144
65.7018795361155
65.4886790096604
65.2672986377114
65.0404413958021
64.8107424466813
64.5807663995805
64.3530030985275
64.129269559979
63.9100642834073
63.6957119500143
63.4865289522668
63.2828240212725
63.0848988740991
62.8930488798206
62.7075637433676
62.5287282065503
62.3568227659153
62.1921244073873
62.0349073579392
61.8854438548307
61.7440049332484
61.6108612334906
61.4863063235959
61.3709389558735
61.2655740785624
61.1710284065139
61.0881184619119
61.0176637092491
60.9604899162027
60.9174327543375
60.8893416576797
60.8770839617302
60.8815493504939
60.903654644682
60.9443489705133
61.0046193556381
61.0854968067897
61.1880629330469
61.3133100335392
61.461579574062
61.6330511276802
61.8279554884614
62.0465757026776
62.2892483487252
62.556365120963
62.848374732482
63.1657851553037
63.5091662202845
63.8791526031466
64.2764472276584
64.7018251221077
65.1561377709888
65.6402788800506
66.1516279982084
66.6808975836927
67.217510367765
67.7501887974692
68.2669357337318
68.7550561100023
69.2012259206876
69.5916143688697
69.912063598253
70.1483280324227
70.2863718929358
70.312719041895
70.2148441399615
69.9825831484646
69.6226109371737
69.1544888094552
68.5983018550549
67.9738136380436
67.3000591624701
66.5950557588627
65.875624271748
65.1573079227336
64.4543738314734
63.7798818827728
63.1458068597844
62.5632019960732
62.0423949159194
61.5932100465248
61.225214844955
60.9454654342042
60.7480752283119
60.6235726338907
60.5631861602146
60.5586525297264
60.6020541514701
60.6856831732497
60.8019283261444
60.9431821965553
61.1017676854577
61.2698833027338
61.4395676277976
61.6026837555979
61.7509248325535
61.8758418521382
61.9690642915041
62.0285738265009
62.0605892708317
62.0719726007728
62.0696478439468
62.0605627898191
62.0516660928261
62.0498999157055
62.0622081186154
62.0955600035517
62.1569897739369
62.2536521685074
62.3928951848352
62.5823514385678
62.8300505416012
63.1445348203217
63.5296903457157
63.9774348481609
64.4777426539692
65.0201452326766
65.5935540768808
66.1861132506334
66.7850868633635
67.3767888971134
67.9465645478719
68.4788333046589
68.9572040794908
69.3646714756645
69.6838994163055
69.8979372777796
70.001181992858
70.0017787052092
69.9095598098114
69.7350456005472
69.4891864730308
69.1831301009031
68.8280200908074
68.4348299091251
68.0142334889695
67.5765119942305
67.1314947909254
66.6885317490104
66.2564935244589
65.843796383803
65.4573918172558
65.0972090189462
64.7605784455877
64.4449636224904
64.1479506553465
63.8672333903862
63.6006007342709
63.3459259029922
63.10115740732
62.8643116133891
62.6334667420059
62.4067581901089
62.1823750732696
61.9585578997786
61.7335972952112
61.5058497421215
61.2756479707866
61.04703022783
60.8243393954011
60.611793224175
60.4134966891861
60.2334597606289
60.0756202715556
59.9438716827825
59.8420956883467
59.7741997725329
59.744160024093
59.7560697396593
59.8141946145406
59.9230356370036
60.0874011887226
60.3124212382619
60.5988216237389
60.9395910375911
61.3269100964018
61.7527387575606
62.2086913267999
62.6859300052288
63.1750790474058
63.6661628229829
64.1485721043132
64.6110636631396
65.0417986400234
65.4284250151124
65.7582087136726
66.0182162945009
66.1969790919623
66.2946178578065
66.3171886479739
66.2713376052032
66.1641256292293
66.0028919056384
65.7951290831727
65.5483730277795
65.2701090433283
64.9676955092756
64.6483050892728
64.3188830356888
63.9861216596621
63.6564497476145
63.3360355672787
63.0305707069616
62.7420187632067
62.4695564780311
62.2123308657054
61.9695301090135
61.7403799694266
61.5241405125075
61.3201031173766
61.127587742812
60.9459404258246
60.7745309914063
60.6127509546599
60.4600115987235
60.3157422138436
60.1793884846655
60.0504110143184
59.9282672866316
59.8121723731199
59.7011577306422
59.5942660915037
59.4905553117628
59.38909716992
59.2889764702387
59.1892904391026
59.0891484038685
58.9876717443383
58.8839941072774
58.7772618743697
58.6666348736476
58.5512873237915
58.4304089997782
58.3032066072091
58.1689061178247
58.0279620101143
57.8844644877551
57.7431084624827
57.6084981381752
57.4851546258239
57.377530630141
57.2900319336003
57.2270455241001
57.1929743746126
57.192279087686
57.2295268681216
57.309448591146
57.4370051034717
57.6174643497877
57.8564914849374
58.1602548514467
58.5349395541409
58.9790345885308
59.4851436802422
60.0455033387921
60.6519311399235
61.2956580726537
61.96717726311
62.6561129583047
63.3511157106419
64.0397916512352
64.708675425271
65.3432575555711
65.9280773986138
66.4468921076299
66.8829889040002
67.2266989255282
67.4829389510439
67.659198231851
67.76376806594
67.8055511417009
67.7938827338187
67.7383702325783
67.648755747737
67.534804869561
67.4062232175964
67.2726012440023
67.1433869251941
67.0278854844336
66.9352851293273
66.8727032027042
66.8366434845908
66.8201831665458
66.816454693223
66.8186147465237
66.8198251651333
66.8132478886234
66.792053895872
66.7494460909297
66.6786959531454
66.57319351501
66.4265098677654
66.2324709350638
65.9852407211817
65.6795076269749
65.3171298280203
64.9109961306751
64.4746181821731
64.0209583438844
63.5623463239379
63.1104478102269
62.6762788580897
62.2702598040965
61.9023031427207
61.5819309520495
61.318418963309
61.1209661633693
60.9988908846042
60.9618567226129
61.0201344546496
61.183927129814
61.4494777953265
61.8018743643275
62.2259495439077
62.7061742754997
63.2263078424406
63.7691193141918
64.3161890106539
64.8478044246571
65.3429691413449
65.7795450480377
66.1345466306434
66.3846004592772
66.5065723726939
66.478372522856
66.2891078238377
65.953537335171
65.4914998705919
64.9234866194893
64.2699768908277
63.5508969457457
62.7852105641305
61.9906382137487
61.183493401503
60.3786199134308
59.5894116989831
58.8278974355783
58.1048736098959
57.4300726513951
56.8123557738561
56.2599234020351
55.7805392076893
55.37949945531
55.051437412643
54.7884886492578
54.5835079786085
54.4299167612153
54.321575491535
54.2526773536572
54.2176590614129
54.2111263029006
54.2277918888159
54.2624253148147
54.3098129284504
54.3647282656619
54.4219124051715
54.4760643890776
54.5218418768107
54.5538722364805
54.5668352168587
54.55883205101
54.5331291624669
54.4934429551722
54.4434941822863
54.3869914970096
54.3276200935893
54.2690354061051
54.2148617824865
54.1686960298891
54.1341157341161
54.114692289195
54.1140086327625
54.1356817685259
54.1833902697635
54.2609071000493
54.3721382635433
54.5211680141508
54.7115878842411
54.9409042091563
55.2033918412725
55.4931894685871
55.8042565174888
56.1303148870031
56.4648029685063
56.8008433010681
57.1312256279485
57.4484074108073
57.7445339898874
58.011480509089
58.2409174107573
58.4244007071938
58.5534873286896
58.6198746287811
58.6156941536003
58.5395432464192
58.3988228278107
58.2018629672163
57.9571428910896
57.6731463211713
57.3582411170894
57.0205842658483
56.6680519801979
56.3081937038772
55.9482081741729
55.5949393359938
55.2548897968744
54.9342496132981
54.638938460941
54.3746596264789
54.1469647373789
53.9613287007614
53.822944187207
53.7320601232145
53.6848794800897
53.6777182913668
53.7070863978143
53.7696376779649
53.8621261313235
53.9813669539361
54.1242019785015
54.2874690467821
54.4679750493832
54.6624725129836
54.8676397416797
55.0800646293019
55.2962323539115
55.5125172433636
55.7251791598551
55.930436633838
56.1276807257618
56.320874217061
56.5144356677734
56.7129074587288
56.9209611549286
57.1434105548816
57.3852330399141
57.6515999687389
57.947917063313
58.2798760155707
58.6535189295729
59.0753177260899
59.5522713136494
60.0920242241411
60.7030115969925
61.3938723659327
62.1637106635885
63.0039115804554
63.9048466240609
64.8557562247365
65.8444847738147
66.8572388576212
67.8783826685709
68.8902895069128
69.8732729375118
70.8056248260942
71.6637891578028
72.4226990233602
73.0567196820671
73.5534100555004
73.9174257879681
74.1562060488491
74.2788069624494
74.2955914520992
74.2179132481593
74.0578111526928
73.8277267329798
73.5402552596142
73.2079363119134
72.8430873595986
72.4576810094765
72.0632614697185
71.6686668447735
71.2762383791448
70.8871796213958
70.5026413977472
70.1237238453105
69.7514787531118
69.3869121712737
69.0309872528385
68.6846272969482
68.3487189663787
68.0241156567127
67.7116409986884
67.4120924794575
67.1262451726205
66.8550523384277
66.6008332000804
66.3664477722785
66.1547017703084
65.9683636111859
65.8101859802288
65.6829295885008
65.5893892661411
65.5324226275325
65.5149816469469
65.5401476012925
65.6111699746156
65.7315100833919
65.9048903806635
66.135286371631
66.421183120604
66.7506984769627
67.1105438023488
67.4869320269642
67.8654721303839
68.2311206799299
68.5681973153239
68.8604715015744
69.0913270192505
69.2440082866871
69.301948555538
69.2491742992773
69.0707729884115
68.7535934105758
68.2970127354843
67.7177214033989
67.034219776946
66.2649350405872
65.4277677758449
64.5397412410747
63.6167514185562
62.6734096926177
61.7229661482936
60.777299644622
59.8469605885369
58.941253246295
58.068346048926
57.2354003237252
56.4487099546298
55.7138464680832
55.0358058605022
54.4183185940238
53.8601136343159
53.3584753735299
52.9110567018237
52.515849861655
52.17116032863
51.8755855393327
51.6279979358534
51.4275319183854
51.2735744025147
51.1657587712911
51.1039620977886
51.0883055951239
51.1191583310598
51.197144326596
51.3231532457147
51.4983549804117
51.7242185456346
52.0024655094503
52.3319401496981
52.7071384117882
53.122086249697
53.5705492499796
54.0459309387951
54.5411828322412
55.0487282704384
55.5604030766943
56.0674169934658
56.5603406015437
57.0291229334536
57.4631451263917
57.8513150875344
58.1822071284511
58.4442487530507
58.6259541984733
58.7189938242527
58.726883030908
58.6566930951467
58.51608820124
58.313135767584
58.0561303424227
57.753436364745
57.4133533032124
57.0440050299403
56.6532538600583
56.2486385503863
55.8373347202979
55.4261356236484
55.0214509308558
54.629321132173
54.2554453008388
53.9052202146643
53.5837885563442
53.2951047424338
53.0400553783
52.8190308467373
52.632512823632
52.4810837688873
52.3654373975136
52.2863903366602
52.2448952057129
52.2420553954134
52.279141870005
52.3576123758966
52.4791335141045
52.6456062254601
52.8591953520237
53.1223640815359
53.4379142622509
53.8090338039309
54.2392806089675
54.7286263405519
55.271001763098
55.8594881067666
56.4866543405662
57.1444121325116
57.8238848297606
58.5152951653491
59.2078782548361
59.889828196262
60.5482880566189
61.1693939701896
61.7383841760861
62.239782732544
62.6576650233697
62.9760106904662
63.1837979445875
63.2850494482537
63.2876470773134
63.2004530273386
63.03304693667
62.7954743611304
62.4980164373336
62.1509878311008
61.7645673638239
61.3486632701657
60.9128130128494
60.4661160360261
60.0171967865083
59.5741947353314
59.1447779265869
58.7361766906359
58.3549105266453
58.0040961142899
57.6850336619091
57.3990122824533
57.1473485176809
56.931405847075
56.7526150931456
56.6124960169347
56.5126804534643
56.4549374030215
56.4412005738584
56.4735989692493
56.5544912321528
56.6865046107665
56.8725795968919
57.1160215278947
57.4205607476636
57.7886137296376
58.215720042431
58.6955737797807
59.2216484312454
59.7870643735413
60.3844667833917
61.0059153832361
61.6427887334019
62.2857070630302
62.9244788409724
63.5480773413434
64.1446542295976
64.7015975185508
65.2056409260666
65.6431482227946
66.006861430371
66.2998612200734
66.5267234543849
66.6926099095022
66.8031651603574
66.8644153817317
66.8826724827463
66.8644463869544
66.8163676299947
66.7451218214198
66.6573969470044
66.5598440015346
66.4590510580399
66.361530606602
66.2725358272444
66.1903702868884
66.11086837046
66.0299025501246
65.9433859622565
65.8472766122836
65.7375865230293
65.6103956475573
65.4618703101063
65.2882858596433
65.0860531230213
64.8517481329343
64.582144485224
64.274247557202
63.9253297011519
63.5342490483585
63.1082777525792
62.6576706258601
62.1922398448248
61.7212950707263
61.2536226781736
60.7974920075933
60.3606848196929
59.9505444401498
59.5740416123865
59.2378547608875
58.9484631614231
58.7122523928941
58.5356324049597
58.4251695951696
58.3877354923139
58.4304629831647
58.5531310899497
58.7458552274592
58.9983519443071
59.3003655237636
59.641466692889
60.0108853797011
60.3973779840194
60.7891319519608
61.1737123110834
61.5380561514123
61.8685216767937
62.1509982038218
62.3710821405179
62.5143213562138
62.5665272617761
62.5184904934982
62.3763158877029
62.149839221282
61.8493695844763
61.4854412141635
61.0685953922464
60.6091971884086
60.1172891145504
59.6024814997876
59.0738776713608
58.5400308472292
58.0089289673215
57.4880034375854
56.9841578457216
56.5038130417182
56.0529654815834
55.6372563456053
55.2613894205372
54.9247871717845
54.6246169840886
54.3582608969626
54.1232994368751
53.917484745475
53.7387170762581
53.5850241524932
53.454542969155
53.3455036951505
53.2562153926292
53.1850533202976
53.1304476294338
53.0908732963532
53.0648411646531
53.0508899956641
53.0475794469175
53.0534839167152
53.0673713824729
53.0900037636126
53.1233685432095
53.1694920593471
53.2304311559655
53.3082838030841
53.4052015147713
53.5234037201137
53.6651942897884
53.8329804778651
54.0292946072905
54.2568189109797
54.518414042277
54.8171518936545
55.1563535173293
55.5396331345236
55.9709494626496
56.4542780738058
56.9879776378662
57.5655801772713
58.1800313478549
58.8236862594832
59.4881957170855
60.1644088600525
60.842297540939
61.5109091609693
62.1583558369368
62.7718485309405
63.3377849035874
63.8418988963946
64.2694781578533
64.6056522023691
64.8372344465277
64.9646489522231
64.9960580446717
64.9406207397522
64.8081797196432
64.6090167468707
64.3536311179714
64.052547655497
63.7161581251363
63.3545976547269
62.9776558521339
62.5947209259263
62.2147542055427
61.8462919953954
61.4974716168206
61.1760782341381
60.8872378462415
60.628140225505
60.3945340365019
60.1823531659561
59.987685110534
59.8067454341963
59.6358577000252
59.4714384120876
59.3099866003628
59.1480777509025
58.9823618278358
58.8095651563795
58.6264959389909
58.4300531623285
58.2172386229191
57.9851717567446
57.7312622332915
57.4571852139383
57.1690351088564
56.8729258841418
56.5747425286884
56.2801336769511
55.9945160592515
55.7230895663244
55.470861817701
55.2426813013182
55.043278389984
54.8773138290862
54.749434624584
54.6643376422313
54.6268416662388
54.6419691740744
54.7150396892117
54.8517773128948
55.0561141043958
55.3222637681289
55.6417633764333
56.0060491017719
56.4062906124759
56.8332491226646
57.2771605053819
57.7276466510146
58.1736598390076
58.6034661290308
59.0046745274327
59.3643187597856
59.6689976701787
59.9050783729836
60.0589631633858
60.1174168297456
60.0716012343518
59.9283061858087
59.6987978999427
59.3948324537675
59.0283561554567
58.611248314321
58.155111716688
57.6711123602945
57.1698670201342
56.6613750911733
56.1549898471602
55.6594236678502
55.1827817815677
54.7326195013626
54.3160186693126
53.9396799580496
53.6100287353919
53.3333333333333
53.1138390674374
52.9480180604004
52.8307644852186
52.7573337831256
52.7232618083142
52.7242955110436
52.7563332257796
52.8153731314823
52.8974688528175
52.9986914982023
53.1150977000659
53.2427034458077
53.3774636716259
53.5152577392185
53.6518810281192
53.7830429527766
53.9043717504584
54.0114397247701
54.1020313811764
54.1787338902649
54.2448027986941
54.3035418204325
54.3582919543013
54.412424590697
54.4693387308157
54.5324624172003
54.6052584713989
54.6912346539676
54.7939584050862
54.9170763922759
55.0643391874706
55.2396315226062
55.4470087362601
55.6907402313303
55.9753605665343
56.3034483020541
56.6701831381015
57.0690007902541
57.4930353783254
57.9350396359891
58.3873199563316
58.841688751189
59.2894373077525
59.721332860971
60.1276438923666
60.4981976267832
60.8224732328897
61.0897332516797
61.2891942150936
61.4102352565387
61.4428908140002
61.3857208852632
61.2472765513062
61.0371748337006
60.7653360936262
60.441777548296
60.076437283508
59.6790314465703
59.2589451835596
58.8251562167984
58.3861887705975
57.9500948235092
57.524459338791
57.1164261304012
56.7327412854491
56.3798115178623
56.0637754168932
55.790563216768
55.5632511691178
55.3796670597012
55.2372754496609
55.1337693221851
55.0670386190663
55.0351425898985
55.0362853147135
55.0687938723282
55.1310987170955
55.2217159006685
55.3392308363524
55.4822833543998
55.6495538394054
55.8397502775102
56.0515960728378
56.2838185205865
56.5351433013417
56.804944774016
57.0939036122622
57.4029029166102
57.7328875463621
58.0848699025802
58.4599363379276
58.8592542763032
59.2840801378926
59.7357681801519
60.215780382811
60.7256975257579
61.2672316333141
61.842239987749
62.4527409499325
63.1009318030064
63.7868579980354
64.5018139856367
65.2342339524385
65.9714436933231
66.6995851317203
67.4035937191236
68.0672417260115
68.6732607257888
69.2035553568668
69.6395172788624
69.9624427774931
70.1540496175758
70.1970787728747
70.0761471963664
69.7888360162812
69.3509509267373
68.7809924389415
68.0981323953118
67.3216070303018
66.470208792088
65.561886837244
64.6134562472626
63.6404086313052
62.6568119718901
61.6752850867942
60.7070314720566
59.7619180422918
58.8485859064153
57.9745823995676
57.1465058264083
56.370082578571
55.6476999906901
54.9781444846937
54.3601379017865
53.7925742525132
53.2745200320252
52.8052155730994
52.3840775822932
52.0107030198847
51.6848745057641
51.4065674620241
51.1759592397798
50.9934405243211
50.8596293711385
50.7753882984519
50.7418449532442
50.7604169822601
50.8328418832831
50.9612127936308
51.147678850017
51.3895209737535
51.6800607250178
52.0124619213129
52.3797074122487
52.7744830339529
53.1890781151524
53.6153042944173
54.0444355841953
54.4671736240497
54.8736428319855
55.2534205845679
55.5956075035741
55.8889422573981
56.1219638683564
56.2832222631562
56.3615347030325
56.3468160066317
56.2391352775386
56.0473032204245
55.7809606182434
55.4500686533871
55.064677650842
54.6347290936498
54.1698941977691
53.6794497451513
53.1721898270859
52.6563706849083
52.1396849250855
51.6292609597316
51.1316834888079
50.6530310988101
50.1989275142369
49.7746036268432
49.3849680860509
49.0346849230639
48.72825738019
48.4693561181514
48.2568448327806
48.0879436379841
47.9601637816221
47.8712721658367
47.8192564820002
47.8022948726022
47.8187293231677
47.867042130022
47.945834903726
48.0538096597285
48.1897516221133
48.3525134270826
48.5410004629792
48.7541571255736
48.9909538028913
49.250374434561
49.5314045177649
49.8330194563955
50.1541141221127
50.4927349654238
50.8462413573158
51.2118348727233
51.5865531157037
51.967253602773
52.3506007938205
52.7330568580145
53.1108768395959
53.4801089472895
53.8366007240283
54.1760118525874
54.4938343088635
54.7854204793277
55.0460197050707
55.2708234964225
55.4550193773117
55.5939029929041
55.6856953522847
55.733059918824
55.7392531133544
55.7077272998008
55.6420819327446
55.5460176509003
55.4232941965277
55.2776928177952
55.1129835979584
54.9328979610931
54.7411064354522
54.5412016161461
54.3366861603478
54.130965570339
53.9273454708109
53.729033064405
53.5391424505289
53.360684698026
53.1957522832658
53.0452314669674
52.909920879515
52.7906241890977
52.6881553287208
52.6033440080077
52.5370415488163
52.4901270920173
52.4635142320626
52.4581581464748
52.4750632993799
52.5152918120566
52.5799726096081
52.6703114718042
52.7876021385376
52.9332386469932
53.1087291095299
53.3156708962314
53.5535415493777
53.8184421226061
54.1060988068129
54.4120973315693
54.7318453159579
55.0605411779711
55.3931503500731
55.7243897689813
56.0487217812704
56.3603587188063
56.6532794317114
56.9212590018773
57.157912677177
57.3567547481028
57.5112726229065
57.6150157422216
57.6623127566239
57.6543972465494
57.5968592765805
57.49557796967
57.3565700767191
57.1859067885034
56.9896426142852
56.7737571138421
56.5441097073658
56.3064073380901
56.0661844317552
55.8287943823414
55.5994116859797
55.3830438322267
55.1845521305401
55.0086807871968
54.8600937437834
54.7434149312352
54.6616423343959
54.6137204147964
54.5980843058449
54.6132904434762
54.6580000028467
54.7309639369272
54.8310093585087
54.9570270470153
55.1079598948221
55.2827921358396
55.4805392230346
55.7002382421804
55.940938767195
56.2016940785238
56.4815526806555
56.7795500684382
57.0947011206389
57.42602135547
57.7725401252275
58.1332514238131
58.507102643322
58.8929878669322
59.2897413482105
59.6961312186157
60.1108534774737
60.532526331605
60.9596849649696
61.3907768320017
61.8241575814715
62.2580877304227
62.6907302195602
63.1201489544929
63.5442485044858
63.960647873572
64.3668228861527
64.7601446513243
65.1378869694561
65.4972362132528
65.8353038357806
66.1491416207553
66.4357597422329
66.6921476414957
66.915297658676
67.1022312764273
67.2500277443836
67.3558547586337
67.4171457893545
67.432422226586
67.4007573127735
67.3214219180575
67.1938942944191
67.0178686622442
66.7932615056161
66.5202154148807
66.1991003639229
65.8305123628979
65.4152694831424
64.9544053077539
64.449159916906
63.9009685694423
63.3114482898823
62.6827972284445
62.0228386554782
61.3428845990907
60.6535343165332
59.964554928417
59.2848890699417
58.6226914205053
57.9853878837259
57.3797520225535
56.8119943437495
56.2878610786168
55.8127401618054
55.3917731362628
55.0299727042688
54.7323466177964
54.5040295911743
54.3504259790781
54.2773671686524
54.2888978452971
54.3782528109478
54.5357790724744
54.7521554878116
55.0181673620438
55.3245136188986
55.6616440705566
56.0196262005896
56.388043064568
56.7559257303254
57.11172508659
57.4433287412571
57.7381289549352
57.983146928914
58.1652171114275
58.2712323748749
58.2887938072915
58.2154708927225
58.0596812579521
57.830915691111
57.5389900655747
57.1938272391508
56.8052701118891
56.382928956358
55.9360637882135
55.4735006822907
55.0035795982193
54.5341304388871
54.0724736653905
53.6254417538122
53.1994180178134
52.8003897582736
52.4340132716479
52.1056889033687
51.8206450401455
51.5828196055572
51.390404559299
51.2401215935952
51.1289668540633
51.0541660419726
51.0131349995682
51.0034451223007
51.0227927824078
51.0689721115866
51.1398506236342
51.2333472679364
51.3474125969113
51.4800108090261
51.629103496884
51.792634989435
51.9685192302674
52.1546281813512
52.3487817842293
52.548752037393
52.7524150767581
52.9577049247087
53.1624931711432
53.3645852194291
53.5617209837668
53.7515775017143
53.9317735987728
54.0998767305548
54.2534121083419
54.3898741850527
54.5067405403145
54.6014881552907
54.6716120104492
54.7146458733711
54.7281850704124
54.7099109576373
54.6576169670224
54.5704159247115
54.4514662631523
54.3047973067729
54.1344507385571
53.9444439235479
53.7387393189626
53.5212200192912
53.2956713177166
53.0657680376911
52.8350672995639
52.6070063341499
52.3849049343147
52.1719721428391
51.971316805762
51.7859616712258
51.618860781319
51.4729199861459
51.3510205039787
51.2560235404132
51.1895983680185
51.1516434677387
51.1419992635546
51.1606004694334
51.2074754548342
51.2827463879035
51.3866301578649
51.5194400902202
51.6815884808146
51.8735899879051
52.0960659354379
52.3497495961712
52.6354925404917
52.9542721562708
53.3072004674764
53.69553440519
54.1206877150503
54.5839066210358
55.0824407581363
55.6105763593363
56.1621211421437
56.7303759531533
57.308070229166
57.8873122642668
58.459558255381
59.0156047236867
59.5456093171395
60.0391450813946
60.4852929206959
60.8727760356628
61.1901385213768
61.4259679847267
61.5691597348036
61.6127245706981
61.5621988662674
61.4263768768669
61.2146597400286
60.9368176495481
60.6027745830564
60.2224215566288
59.8054618536086
59.3612894464111
58.8989000174424
58.4268326373386
57.95313926941
57.4853787941688
57.030632121129
56.5955351029311
56.1863263182127
55.8089072831715
55.4682084395925
55.1645186388453
54.8964570484376
54.6627971234069
54.4624586471099
54.2944969488985
54.1580936278228
54.0525486133264
53.9772734217157
53.9317854909056
53.9157034963562
53.9287435688505
53.9707163503686
54.0415248382172
54.1411629801762
54.2697149950407
54.4273554038734
54.6143369773376
54.8294446644079
55.0684456563464
55.3266599123541
55.5992634100524
55.8812558433991
56.167436352675
56.4523881130205
56.7304727789754
56.9958358861912
57.2424243323782
57.4640169803317
57.654269229554
57.8067720754155
57.9151257078715
57.9730270968211
57.9743702825276
57.9140011655756
57.7940977503062
57.6213760810552
57.4027767337846
57.1452905684598
56.8558610667563
56.5413038110632
56.2082433790062
55.863067221056
55.5118955656552
55.1605660509996
54.8146315983912
54.4793699959246
54.1598037279167
53.8607287406129
53.5867510571126
53.3423304275453
53.1318305130857
52.9593272638564
52.8251370703322
52.7267690085675
52.6618356473808
52.6281027971351
52.6234627229101
52.6459102769824
52.6935214976517
52.7644343093756
52.8568310326061
52.9689224738744
53.0989334200106
53.2450894068375
53.4056046736854
53.5786712517379
53.7624491673109
53.9550577712019
54.154568232517
54.3593906696127
54.5702029807883
54.7885499616533
55.0160294292557
55.2542962652913
55.5050686994258
55.7701358027025
56.0513663189424
56.3507189861032
56.6702545289601
57.0121495403071
57.3787125115246
57.7724023265821
58.1958495985882
58.6518813077308
59.1435492975662
59.6736355313258
60.2393748752846
60.8342123852658
61.4510171130016
62.0820518863366
62.7189091988302
63.3524660203054
63.9728624447129
64.5695096875108
65.1311332274671
65.6458567218346
66.1013315662525
66.4849154913254
66.7839012975573
66.98590320504
67.085187660712
67.086113737798
66.9946973549978
66.8176837094878
66.5623739423442
66.2364556245185
65.8478428001644
65.4045300661674
64.9144638541003
64.3854328181141
63.8249780981404
63.2403232731291
62.6383230687618
62.0254293412557
61.4076725102224
60.7907226110114
60.1806072525304
59.5833917318688
59.0046689127004
58.449592076875
57.9229250461315
57.4290981130937
56.9722684778127
56.5563843327596
56.1852521743
55.8626073435996
55.5921882223937
55.3778149428222
55.2234739354403
55.1334101623664
55.1122294989773
55.165014485162
55.2973928900897
55.5098492477461
55.792914699888
56.1361653512756
56.52903422384
56.9605847281623
57.4193201544677
57.8930318007561
58.3686913777993
58.8323958273512
59.2693744694565
59.6640691565707
60.000297480376
60.2615066602852
60.4311212257839
60.4929808707607
60.4321512712141
60.2461836759893
59.9481313322605
59.5528261508602
59.07547342093
58.5312332478
57.93487734977
57.3005255347231
56.6414600404371
55.97001151373
55.2975076923728
54.6342746221155
53.9896801771662
53.3722104242533
52.7895706766014
52.2488046813533
51.7564270966365
51.3185661334374
50.9411149125742
50.6296463594413
50.3842495099226
50.1998989778525
50.071896639811
49.9960165595753
49.9684172928886
49.985566692791
50.0441766753077
50.141145965271
50.2735092803411
50.4383917605675
50.6329677350415
50.8544231540385
51.0999212176478
51.3665709099075
51.6513983078726
51.9513206826087
52.2631235466663
52.5834424735217
52.9090093288668
53.2369550862258
53.5643378561822
53.8880703110203
54.2049199520033
54.5115132494039
54.8043440864775
55.0797869146076
55.3341149766617
55.5635238756474
55.7641606534125
55.9321583981426
56.0636762204372
56.1549442288896
56.2023129033094
56.2023060160368
56.1516788851855
56.0495550300091
55.9010766327056
55.7125052535181
55.4901377778891
55.2402268394933
54.9689156123283
54.6821871195547
54.3858276757832
54.0854036903805
53.7862508068698
53.4934742247982
53.2119590285159
52.9463894138236
52.7012758409731
52.4809893362029
52.289802402648
52.1319362782507
52.0116145912567
51.9327484620618
51.8948554012626
51.8946462756569
51.9289519825733
51.9947333800644
52.0890421410935
52.2089858992803
52.351697139602
52.514305452862
52.6939129149583
52.887572476036
53.0922693537977
53.3049055214445
53.5222874645393
53.741117452031
53.9579886232966
54.1693842330085
54.3716814159292
54.5624242995049
54.7441971172875
54.9209500337722
55.0967435902571
55.2757451725552
55.4622316148798
55.6605983747566
55.8753757581516
56.111252765177
56.3731092718278
56.6660574715527
56.9954937849563
57.367162824556
57.7872354996341
58.2624039995674
58.7999972531007
59.4071349621317
60.0820301528836
60.8173339002935
61.6050110539193
62.4361955530096
63.3009988509749
64.1883349973865
65.0857708933189
65.979413189874
66.8538461099717
67.6921367874632
68.475926041749
69.185622226095
69.8007132308655
70.3034930521754
70.6910788600011
70.9658093308155
71.1313037448947
71.192330735078
71.1546550698933
71.0248701760422
70.8102241215373
70.5184462164487
70.1575804623049
69.7358309193721
69.2614227881157
68.7424817281589
68.1869327538634
67.6026286731674
66.9982661174125
66.3824777355495
65.7633468213147
65.1484011484118
64.5446262200528
63.9584940656644
63.3960046438718
62.8627373205028
62.3639103622226
61.9044468891398
61.4890462432161
61.1222602438706
60.8085743174607
60.5524940115908
60.3586379549215
60.2296605142102
60.1590091552485
60.1379306837149
60.1579710404473
60.2108479300754
60.2883485671869
60.3822507110409
60.4842661477361
60.586006561091
60.6789722573517
60.7545644749148
60.8041220072586
60.8189825798824
60.7905688393854
60.7104979375195
60.5707174392234
60.3671696572792
60.1059455649996
59.7949421835942
59.4420459727348
59.0550211784616
58.6414195056678
58.2085109837572
57.7632350634762
57.3121703951651
56.861521377358
56.4171194008385
55.9844367117677
55.5686109421626
55.1744785732961
54.8066158790754
54.4693862200025
54.1669929086548
53.903496463286
53.6806660587002
53.4969860871973
53.3508575572172
53.2408642672576
53.1657551973013
53.1244292023645
53.1159216801645
53.139392937552
53.1941180236095
53.2794778329856
53.3949513125464
53.5401086289175
53.7146051748608
53.9181763094097
54.1506327408584
54.4118564735217
54.7017972490453
55.0200839949996
55.3636166703291
55.7279672409387
56.1084903803114
56.5002915827444
56.8981976438068
57.2967353321041
57.6901196223547
58.0722530306855
58.4367376856406
58.776901757809
59.0858417306212
59.3564816992251
59.5816504127797
59.7541761168045
59.8669984097812
59.9141122631652
59.8962981815613
59.817780128086
59.6831421629174
59.4972236868216
59.2650363180357
58.9916865189393
58.6823055119339
58.3419875451213
57.9757371203572
57.5884253988607
57.1847556651966
56.7692374648602
56.3461688340383
55.9196259083473
55.4934591235154
55.0712951965044
54.6565407816048
54.2520026083372
53.859564192588
53.4809127494337
53.1176408934083
52.771258203559
52.4432032705062
52.1348561529858
51.8475512035267
51.5825902541613
51.341256183688
51.1248269184738
50.9345899497222
50.7718574823329
50.6379823648907
50.5343749881285
50.462521381821
50.424002789227
50.4205170560637
50.4538934385245
50.5246364302661
50.6302495215277
50.7679371432785
50.9349663653828
51.1286317601448
51.3462233800053
51.5849975324384
51.842150177552
52.114792903171
52.3999315512297
52.6944476796145
52.995083145332
53.2984281868691
53.6009134634591
53.8988065730537
54.1882136144159
54.4650863762693
54.725366803064
54.9666758391386
55.1879053527805
55.3879964672657
55.56591833099
55.7206751225023
55.8513131772066
55.9569281601824
56.0366722031904
56.0897609186971
56.1154801998995
56.1131927134787
56.0823439913377
56.0224680290371
55.9331923021087
55.8142421169551
55.6654442205832
55.4867627697844
55.2801018541233
55.0501519903522
54.8017546808755
54.5396359632376
54.2683810505216
53.9924173690155
53.7160054176478
53.443236793488
53.1780387020981
52.9241842923475
52.6853082142356
52.4649268879506
52.2664630868264
52.0932745717587
51.948686667652
51.836028843352
51.7586755473432
51.7200917668814
51.7233769152305
51.7678363957978
51.8510799806558
51.9708560121313
52.1250282805259
52.311544828413
52.5284092357542
52.7736539295314
53.0453151644903
53.3414094121943
53.65991097766
53.9987307393194
54.3556959811736
54.7285313573827
55.1148411002273
55.5120926528427
55.9176019782334
56.32869968334
56.7447437253002
57.1665253589534
57.5949070206779
58.0307995242183
58.4751649342076
58.9290198337872
59.393439034135
59.869559779729
60.3585865102375
60.8617962482203
61.3805446915817
61.9162731012086
62.4705160878004
63.0449104179485
63.6410741024113
64.2576694063969
64.8901077607457
65.5332743657685
66.1816243775623
66.8291583603973
67.4694074052369
68.0954301035488
68.6998237149776
69.2747519076633
69.8119913436583
70.3029990911156
70.7390023356584
71.1111111111111
71.4117755405301
71.6389738467012
71.7924559906521
71.8724448638819
71.8796270048389
71.8151362103894
71.6805305972028
71.477763837864
71.2091514321869
70.8773329712818
70.4852314084844
70.0360103676817
69.5330304984083
68.9798072934174
68.382240610817
67.7528851617428
67.104862897194
66.4504461383899
65.8010323271841
65.1671617921402
64.5585708798845
63.9842735565893
63.4526657066988
62.9716476976143
62.5487622388865
62.191346087756
61.9066957285992
61.7022488123855
61.5857849555669
61.5653071610997
61.6416991712652
61.8087801178645
62.0607179691616
62.3921964531167
62.798257720974
63.2741597607309
63.8152442558473
64.4168116652932
65.0740012227277
65.7816743897538
66.5343011083307
67.3258490246529
68.1496767330328
68.9984330323863
69.863965202962
70.737240380409
71.6082851868271
72.4661498028474
73.2989035258222
74.0936694164115
74.8367057176188
75.513541145522
76.1091697107044
76.6083082799029
76.9957165525583
77.2565745563135
77.3769073783467
77.3440410625473
77.1470680267981
76.7772957478841
76.2286496324692
75.4980006628094
74.5853910525955
73.4941368632016
