Value(μV)
-14.7575745474328
5.63834374791761
11.3716140137051
6.88674697197535
1.50701460725541
0.512220249910074
2.23315179490826
2.54856781558531
0.390188349860765
-1.74345411670835
-1.51941338870562
0.515772386804858
2.15776724357548
2.3982060024107
2.15001444867828
2.43406884505651
2.85651161730183
2.34239099113995
0.845577535326228
-0.387004099184757
-0.250210924115144
1.09362588649442
2.78417085619119
4.53031220010515
6.77598148383161
9.67421057688041
12.4692475631015
14.2330252294594
14.9322338750145
15.3178837352401
15.7800038346921
15.7598714130787
14.535567963924
12.2807092475282
9.90983552536687
7.91522659825736
5.83050351666979
3.12014260137254
0.300313839008169
-1.3114679645474
-1.01822552544927
0.473854954399386
1.93696929282275
3.01278804701529
4.29838386173368
6.08057771300004
7.51213971218026
7.44742994183909
5.90203572357346
4.18673479911654
3.45464800713575
3.4788898434693
3.18135114078864
2.14033744279527
1.05615862418927
0.603358307785356
0.297327824869996
-1.00325088713369
-3.55107259854627
-6.16816380558543
-7.47454495092773
-7.32903200394713
-6.65598784868754
-5.98755460627204
-4.74515063499005
-2.24065038168089
1.00006795558102
3.48031585713027
4.33676640820425
4.221057718946
4.27814053109547
4.56551815473382
4.02080233726894
2.01874378926517
-0.59436206979624
-2.42440112110927
-3.20035579519369
-3.92235315870515
-5.23509660298224
-6.21270133978949
-5.28517352636419
-2.20109129313463
1.53111520214082
4.33651519821942
6.19344705466386
8.05607207005198
9.91302355212947
10.2194354157113
7.6627756583716
3.03957254220132
-1.2985545459703
-3.86473379963905
-5.27269224053355
-6.73815765966982
-7.90247686899378
-6.9754964678226
-3.11927110007882
2.08864365203873
6.20338792930512
8.6174062261174
10.9360030933031
14.4997319777819
18.289164947824
20.0156112057513
19.0262739297419
17.1935862877738
16.5456005674294
16.7146609588347
15.6095382950835
12.4941855695498
9.39427789444244
8.84423317785695
10.8037144559315
12.7666394817203
12.9621128016266
12.4600965406455
13.3960171587425
15.6828291292486
16.683231013443
14.4585626957253
10.390326885285
7.62969803154333
7.26597095606377
7.18514174398197
5.12031447514513
1.83926821202193
0.169182250285704
1.10312455558159
2.25536188213251
0.928516781162521
-2.16253609199587
-3.56758725345028
-1.48951605757369
1.88904762293726
3.36217484148422
3.06887860556025
4.24597365166242
8.39193681935901
12.3402336961179
11.7163313831132
6.81605217597512
3.13268960238143
5.19373930248297
11.1953187849243
15.4352387508073
15.6797619337691
15.8539591677607
20.0204655739713
24.9281312795021
20.9092233095701
0.887104775064749
-32.72033023388
-70.5193437387461
-103.53351498417
-125.952225014579
-132.192868248928
-116.816586649715
-81.5997363213943
-40.2740452904436
-8.44893715070652
16.7878723461525
64.6355596950635
169.458127205029
335.715224646549
525.646240587704
688.693772087016
807.572849209449
913.150722132882
1048.5342495012
1215.92539557062
1360.76066639356
1411.29120057897
1335.31793456027
1159.41593780453
936.400471588545
699.16779405972
447.586342805443
174.466099672551
-105.18542547826
-355.433630083393
-546.585070101843
-675.444784135883
-757.991416726869
-807.476804627299
-825.068456388431
-810.880804507203
-777.25321017813
-745.179839624847
-727.591930716803
-719.941806272687
-709.169449125887
-689.757057804845
-668.1340096108
-652.081660010644
-639.803745775551
-622.177404742947
-594.412809921908
-562.146079603425
-534.868701513578
-515.383822143155
-497.922429465902
-476.012805745246
-449.614870134583
-423.372363025683
-399.691587035173
-376.133508640378
-349.85162347018
-322.349634657348
-297.972743081905
-278.305879481618
-260.061851982691
-239.241603145802
-216.078981819
-194.43046840187
-176.62930489881
-160.571266973941
-142.630008074778
-122.381478564561
-103.006452413089
-87.068825189491
-73.2897036487136
-58.3731019757183
-41.2673801128264
-24.2731768696403
-9.76306841629594
2.99683990512994
16.7748887471556
32.5938431735963
48.2460673024907
60.9646297042993
70.6953919644533
79.8025973645107
89.8112801916165
99.5564788919548
107.056922823131
112.47073573502
118.174770230759
125.900944627062
134.708562577446
142.374836593638
148.280618389866
154.02045980078
161.074594584589
168.724113412518
174.945582417301
179.021666134876
182.389047726871
186.650698581996
191.423684757088
194.845312517314
196.021563643768
196.192185828284
197.147801385274
199.045429510837
200.468986540129
200.547261994698
200.248673410126
201.133619629284
203.238420313348
204.888707460134
204.67592865409
203.018324197195
201.345592219184
200.095904853438
198.210713587692
194.744434740487
190.380398231248
186.796876076929
184.698399665895
183.087695848993
180.702073006142
177.698074109524
175.386977606479
174.427108185096
173.901177548563
172.500973840875
170.239945685221
168.421755993424
167.897630663978
167.892585801681
166.927080703172
164.623320464522
162.057186939811
160.240900759366
158.746741900423
156.25276028158
152.26072966799
147.736433304013
143.872969036967
140.627730001672
136.933594533768
132.268011731394
127.516598164722
124.036730693068
122.174370783857
121.132431412569
120.256826547255
119.964334028306
121.083919289135
123.527130766802
126.08701377724
127.660213726368
128.323035217882
128.918166537437
129.776134186497
130.285587033686
129.83784214977
128.826172734158
128.323146264177
128.827418448399
129.700615417475
129.997974513052
129.577908090489
129.056245392167
128.730487337607
127.944960771604
125.740219414922
121.908680897407
117.061827763107
111.657560139716
105.320490784027
97.3739608415142
87.8677669767594
77.7210189620695
67.7798146964656
58.0270169101927
47.9614667779962
37.5921975222263
27.6731849720271
18.8295122187636
10.729218934325
2.43073457626878
-6.49639487331791
-15.5001254075409
-23.8073997476384
-31.4053297829373
-38.9683111059168
-46.8621208419334
-54.570464915424
-61.3232691363542
-67.116498579944
-72.7910960701517
-79.0583244268815
-85.7134998991652
-92.0090670067952
-97.6445545054538
-103.065646281897
-108.720504703188
-114.306878604663
-119.036166682487
-122.580435135634
-125.466549394391
-128.412975617429
-131.481772923468
-134.128024736783
-136.025710020769
-137.543025014024
-139.245110381245
-141.115543599969
-142.556826986865
-143.181719830562
-143.351139077738
-143.750609642778
-144.566128868138
-145.33481421794
-145.637104723233
-145.685888647244
-146.026010602549
-146.75874409322
-147.343397016081
-147.257686120162
-146.65089784025
-146.126079853934
-145.935577907952
-145.646050257298
-144.706101078547
-143.161053252591
-141.57648023516
-140.288917347329
-138.993918230285
-137.228717310648
-135.111546862609
-133.344300291074
-132.441297284039
-132.157764660186
-131.832082046432
-131.172312387879
-130.462591073442
-129.954036081355
-129.288221033809
-127.756128405522
-125.091293301636
-121.78658757873
-118.532655289608
-115.497160267729
-112.338774091651
-108.874192997012
-105.481653383646
-102.706549361427
-100.601302727338
-98.6739481487633
-96.5099448847664
-94.2554800590401
-92.3526440990163
-90.9046300447035
-89.5122135507646
-87.7734889784585
-85.7620609114704
-83.8525590544589
-82.1489180783194
-80.2964083703518
-77.9328160761941
-75.1735768417711
-72.479594128266
-70.0780769729974
-67.6972219101178
-64.9542110427081
-61.8704698192687
-58.828362441985
-56.0341446640843
-53.2112097830542
-49.942897117845
-46.2234540856878
-42.4979367237183
-39.1392526837693
-36.0404635814948
-32.8383647643083
-29.4557531585452
-26.2465428402008
-23.5654158986581
-21.3389309186793
-19.1974129284082
-16.9788713979172
-14.933522744946
-13.3647302671021
-12.1848525870681
-10.9641643112954
-9.39605070811761
-7.56950562150784
-5.72058121829834
-3.83208008764245
-1.63511853982659
0.98974426141757
3.75511374603027
6.20675499173532
8.16066388197798
9.79042341937746
11.2912846270705
12.5967486661024
13.5247631263084
14.1369621289139
14.8080959072587
15.8954556251593
17.4301673759348
19.2136744941167
21.1602279476555
23.4136290060871
26.090929495105
29.0145967668092
31.8025913056754
34.1974666958438
36.2016868293403
37.8660031045933
39.0580269228132
39.5601081497098
39.3830407772303
38.8716577842537
38.4475082667378
38.3165803709188
38.5060215269494
39.131514633182
40.4702460930746
42.6805370748931
45.5161518540378
48.4348015649917
51.0031878299229
53.1108667412151
54.7550260604209
55.7296808189774
55.6834683309404
54.511733278668
52.5755382086305
50.4316904079186
48.3802016159737
46.3745369100833
44.3726022576703
42.6373399673639
41.5698719042892
41.2795162724341
41.4489296094928
41.6750584923423
41.8539481308981
42.132396726475
42.5255245614838
42.7351179690308
42.4289571333994
41.6253540394719
40.6844519984763
39.9220281485703
39.3487412594006
38.8561384330156
38.5674230585002
38.84913052214
39.9332148639579
41.625771904936
43.4801813669941
45.2165290651172
46.8586911145692
48.4406444834941
49.7020201904519
50.2049081437076
49.7488273388574
48.567358984755
47.0665387712117
45.4428188718529
43.6479127428526
41.698669166013
39.8874554180373
38.5995959889673
37.96789751987
37.7982648660999
37.8380069724393
38.0271315537026
38.4324447183646
39.0047614151248
39.5201825634781
39.7902799339338
39.8498358757869
39.8658971384851
39.8955063883177
39.8199280128244
39.5324036738269
39.1063266915412
38.7021026694068
38.3370207113476
37.8384124762296
37.055323096927
36.049611874795
35.006485888386
33.9755530551334
32.7800585066252
31.2119141076433
29.259314289411
27.0839215134174
24.8049186677503
22.3953731857879
19.8269953157216
17.2544113423746
14.9781055899569
13.2257225788984
12.027503017806
11.3182629249972
11.0872196188066
11.3521510111709
12.0087473950919
12.8037262242209
13.5143209036393
14.1153765399042
14.7084689153784
15.302570826162
15.7439576601686
15.8957203555219
15.8209444129145
15.7045367712062
15.598904413591
15.3305035774689
14.7063077860784
13.7631168327842
12.7377151070902
11.7964554819381
10.8722510985117
9.80450181590375
8.57276590249677
7.30483092310559
6.06614336066981
4.74565697350595
3.21666895489742
1.56083333461492
0.0462624737727619
-1.11098389921768
-1.86986357908272
-2.20772825689489
-1.93688007758046
-0.818002723867803
1.11599815126602
3.45137532617984
5.69153484136115
7.61556544783673
9.23915479073511
10.4334498595144
10.7412756767053
9.71091153670722
7.38342006853134
4.31460606072372
1.06638678863967
-2.22019570537074
-5.64969413964791
-9.05081604728546
-11.8298057814146
-13.4479808262181
-13.954227234163
-13.9024038390777
-13.7493832021581
-13.4786892041971
-12.884376956118
-12.0855450656023
-11.554633572008
-11.6043796216266
-12.0100907736164
-12.2761308882643
-12.2120204046817
-12.0845258751684
-12.1837524755242
-12.4147343434346
-12.46654937661
-12.3064129012234
-12.291038442781
-12.7069145788296
-13.3463037808796
-13.7075416185438
-13.5781921164415
-13.2329795241001
-12.9858468283788
-12.7120031180304
-12.0102142724662
-10.8058699034531
-9.56505603202943
-8.77849526519925
-8.36155468330208
-7.77243571399707
-6.72372933238521
-5.56511168702444
-4.83034352850329
-4.54932211794634
-4.25171658896694
-3.67026188031494
-3.19656189438464
-3.44460448291237
-4.46755168475259
-5.6667749658571
-6.53747684084449
-7.27933899367306
-8.46469607969421
-10.2128958388627
-11.9947664371538
-13.3521834528578
-14.5621432996428
-16.3047360475828
-18.7200803184648
-21.1027540884198
-22.6844670919641
-23.5100595473169
-24.2527975446269
-25.2065275338195
-25.8071175864101
-25.3550964360998
-23.995237989352
-22.6156311408015
-21.737116834232
-20.8321736692878
-18.9884780550189
-16.0626579291405
-12.8070161840451
-9.82158165431029
-6.7794889463603
-3.02293175935288
1.25617721516168
4.9147739675044
7.10197337646312
8.24361690993448
9.38759362668735
10.6824964360924
11.0167811981729
9.41795282744213
6.46199543196007
3.79694531919632
2.27548062089331
1.05718515980715
-1.13490261114702
-4.20640253193434
-6.69652353691701
-7.61922143320156
-7.73734374780809
-8.57563993210777
-10.4555488254079
-12.1587885414229
-12.6842477203392
-12.7429985623605
-13.9216742535219
-16.5465744785185
-19.0963124364963
-20.0348023728562
-19.7055843614238
-19.7685598628644
-20.8939157907064
-21.7936774383889
-20.9363824887398
-18.677670685557
-16.9043442910998
-16.6009236387488
-16.6139480982458
-15.3556047800368
-13.1890431884687
-12.1971753821212
-13.5356577152853
-15.951375149289
-17.5573107598168
-18.4031897889508
-20.0500179120632
-22.4485613217369
-22.5603581943701
-17.3167492100766
-7.56666295965294
2.34573133389183
9.32901099727861
14.4081113429182
19.2851645968739
20.6546135886074
10.5576369659477
-15.6586652168922
-52.409790140259
-86.9025919839846
-109.644528900858
-120.536716158136
-123.844464204905
-119.514005170313
-103.133722272703
-74.7525282387692
-42.7407116778382
-12.9422126880134
26.4419765250322
102.714405793183
234.02208223119
405.531676860192
575.847043904418
713.484368830672
827.446712903711
956.254126846569
1121.44033808003
1291.71291381074
1397.04137466542
1381.98595028541
1247.01904189622
1039.28245068881
806.443746628916
562.70610323593
298.089028811031
13.4760962156453
-261.126262168828
-484.512342254812
-636.222757695792
-727.461977969818
-782.546618538672
-814.738831949189
-822.162706484601
-803.057944963166
-768.36492358282
-736.601077186137
-718.931206361102
-712.503846925084
-707.815465330343
-699.088433172237
-685.92242464023
-667.87474454537
-642.199931109416
-608.487050208439
-572.807952198701
-543.885993811771
-524.65930657718
-509.528040618939
-491.01025308828
-467.846013153961
-444.873990632107
-425.431617461658
-406.257856662177
-381.356143516881
-349.804522296027
-317.667141901498
-291.69985812724
-272.564914577715
-255.340866550396
-235.824291478069
-214.532905466815
-194.21939732436
-175.240603048355
-155.191625493811
-132.842472710522
-110.569548818635
-91.7704212420991
-76.6897546569156
-62.2370212964366
-46.0174861716283
-29.2262603873242
-14.6566182856535
-2.59752993929541
9.84621972559364
25.0562187817683
41.6659905073351
56.0377129051327
66.5793344515384
75.420804745303
85.4736899573405
96.8162664724666
106.99800084854
114.600771240742
121.229363546552
129.368056715708
139.052700476553
147.780478564352
153.722010989145
157.978065425519
162.982764247702
169.263826516335
174.848972870381
178.017570248337
179.68198976122
182.247675324543
186.49080341905
190.570735884301
192.429111844081
192.38699773218
192.578970310303
194.08224440509
195.582006282078
195.28369647637
193.456649340344
192.208287329432
192.806846619321
194.110281691005
194.156242267596
192.777785396481
191.79390829167
192.571616462599
194.217932138258
194.769684389576
193.74514885665
192.637169742157
192.700190979313
193.002377037934
191.37841115883
187.088386677071
181.736304550133
177.288774482326
173.821982124648
169.921854507343
165.110888046178
160.985894317319
159.465548555226
160.385638131042
161.57924157042
161.362989007001
160.24842734153
159.758284116332
160.020580941598
159.357224206661
156.398704840783
151.91524493276
147.937885132035
145.301929208009
142.787585232898
138.914526443604
133.995640862597
129.788230507148
127.278105809754
125.547183140614
123.172191819236
120.237170696307
118.271654552827
118.21522004834
119.124079678559
119.330926683779
118.518688482501
117.987498103946
118.812607116828
120.372125468911
121.190325192084
120.936907223288
120.882109580234
122.166036635853
124.155360292765
125.067496609645
124.067910263666
122.119797917381
120.517075393038
119.067520065713
116.31559473553
111.475383541813
105.489782462686
99.8047966369236
94.4745931076754
88.0945761300044
79.6518624998296
69.8747641904438
60.3458529924492
51.5840773792329
42.6149020776935
32.5341976483873
21.9269535839767
12.2199080743777
3.81158737740617
-4.53811417829945
-14.2220346607561
-25.1101211197406
-35.8184189312356
-45.4963274094021
-54.7496733625396
-64.5220929704016
-74.4897649258743
-83.1605678253104
-89.5908986556048
-94.4789888661577
-99.2092974083142
-104.110270918868
-108.190116913544
-110.632209118767
-112.013767338442
-113.621399070413
-115.799483437271
-117.561726472067
-118.00803775624
-117.671900632076
-117.993405753964
-119.581066355529
-121.524101877153
-122.634065674259
-122.964076932185
-123.6174730538
-125.144641794645
-126.699928166483
-127.11443453438
-126.489191432375
-126.204547305287
-127.308387760793
-129.35641850959
-131.159138627808
-132.382421884123
-133.869034938403
-136.296380162839
-139.014462403313
-140.659106714862
-140.758154687931
-140.214328739511
-140.02994036656
-139.962858016057
-138.883348052814
-136.337240082633
-133.224591904985
-130.693145802177
-128.733351234098
-126.363811696541
-123.169179932595
-120.1226302487
-118.539131641239
-118.474548595715
-118.643995577261
-117.962750710138
-116.703625713358
-115.797857168332
-115.276551508109
-113.989058009719
-111.031653560962
-107.022754141947
-103.513399831779
-101.240940565301
-99.4426446725252
-97.059593806731
-94.2037634971617
-91.9600028689064
-90.8282604908898
-89.9197734713147
-88.01753596243
-85.1295405307889
-82.4879565855735
-80.974989122094
-80.0145591696366
-78.348702810232
-75.6450807742386
-72.8194064098127
-70.6910658532752
-68.8102486386863
-66.0567519863874
-62.2337871024986
-58.5217341732913
-56.1306356574025
-54.860852575936
-53.4169384453218
-51.0325779553859
-48.2659129501629
-45.9528776430091
-43.7683204239475
-40.3824142782145
-35.0905815099279
-28.8143576399497
-23.1401520633474
-18.5933098809867
-14.3275791780477
-9.56080131057872
-4.82933134259727
-1.41223660867869
0.297486322019237
1.31637935869982
2.790776018407
4.5790315113594
5.52690680837663
5.04542446025764
3.92458688759431
3.36273433026005
3.53903521911195
3.60618651967697
3.05141646561796
2.56155148051314
3.22885854123313
5.17825309652855
7.47190826371179
9.42560424017447
11.5661604813002
14.9277364750165
19.6077573147134
24.5072157473198
28.6079553320466
32.0790546325615
35.7204660626618
39.4880860460809
42.1269024254154
42.5187577112126
41.0639371904786
39.2937060467326
38.1672928392039
37.2075256958683
35.5322540765113
33.3619555054669
31.9708430470175
32.1120003282336
32.9854703133123
33.1502367636318
32.2657480162191
31.4672968942609
31.9397181791947
33.5526537794674
35.2712479210332
36.6941382950934
38.6159613802776
41.8546463251186
45.9186232640846
49.3223027796692
51.192043166272
52.1095627227391
53.1478373032754
54.4190248512034
55.0483151494529
54.5469645487674
53.6780290208083
53.5919719841515
54.3436862857754
54.7727988393146
53.9572739506248
52.3700091894806
51.2405304979958
50.973237963646
50.7021470392031
49.5444630098353
47.8576639846802
46.7991255464189
46.7498612080486
46.7007256006075
45.4609365647639
43.1516253741794
41.0533407996503
40.0175150749316
39.5153083138142
38.5315245272366
37.0643022044047
36.1985944611914
36.6315791009112
37.6113792263751
37.7391288481255
36.6378025601314
35.3363304161737
34.8881278935904
35.0448869805431
34.7071342640567
33.5089391941557
32.3944188044356
32.3942610364194
33.2218520212158
33.5777080818191
32.8045594623809
31.7382564442081
31.6382398428893
32.596558076183
33.495848858791
33.5257558951299
33.2048387908537
33.5313866309324
34.4097807983037
34.5095097288472
32.8397903311489
30.027310442767
27.625052189928
26.341721814748
25.4884921824621
24.3138710900409
23.3744075697076
24.0242786377589
26.6217918106632
29.8241395753924
31.9824329688835
32.8988066657287
33.6953183286203
34.9948828978666
35.8345148142036
34.7799842813352
31.8016256636246
28.427619277226
25.9250151991121
23.8642396544566
20.9565335473058
17.0802378632192
13.8167932356111
12.7258586987701
13.5396669155567
14.5871394978172
14.8721092852131
15.0907268750603
16.289721902971
17.993340853559
18.3554597842983
16.2445594704829
12.6027403720987
9.31486129229291
7.03304991365352
4.73239138077834
1.48244554824795
-1.98605161949813
-4.04104484162876
-4.24946640975679
-4.01786097312896
-4.86486943171375
-6.53971023048107
-7.43226108755519
-6.72936132697459
-5.48414430707773
-5.20436850466796
-5.84813458032846
-5.90543713742575
-4.47623990332651
-2.57652494678427
-1.88146932264948
-2.50231011573067
-2.72332930271501
-1.09747133160547
1.79562297782156
4.20062808651378
5.49738768395918
6.90192859120159
9.62474604911786
12.951419566518
14.8645675059591
14.482640269318
13.1447731205526
12.6917432236179
13.1625897074095
12.9036154094658
10.9043345293908
8.2169989751236
6.52766477354269
5.77014364671409
4.03062147762522
0.000226164725811273
-5.19961351593152
-9.27085517299844
-11.4946279478563
-13.3808213389619
-16.3440025972697
-19.5109470062641
-20.6748545480408
-19.2513054830899
-17.3171983733424
-17.2095667978254
-18.7086452184605
-19.5141407673178
-18.4776669908347
-17.3631074337185
-18.7169203782503
-22.5298343824365
-26.0863954568445
-27.3288042490795
-27.4181186749399
-29.1042709331375
-32.9590598998094
-36.4045242069161
-36.9000597557586
-35.1921809262787
-34.3583500826055
-35.8286738380412
-37.5336201627572
-36.5344482195188
-32.5862299690658
-27.9253330939494
-23.7694117290892
-18.5833912009095
-10.7807359349844
-2.24357243033998
2.50348284545049
0.915230814362097
-5.16724490941765
-12.7678349271833
-22.4220011697004
-37.5655482372747
-58.9257526962125
-81.5557623160437
-99.3961517893825
-111.89038421649
-123.134390773154
-133.389664936793
-134.450898653314
-117.630317008792
-86.4477883126907
-56.0764324068448
-34.4147241216259
-3.79902347281813
71.9195586761172
215.176028725204
408.469857465085
604.814187052
768.689139319573
906.077811498092
1049.80360633676
1212.85001287929
1358.50989450084
1421.00310246749
1357.94158969562
1182.71061192385
946.563031455717
692.809045081075
431.560324269188
156.52034561355
-122.102681285012
-369.224206709252
-550.140634130371
-659.350203629717
-720.582851144224
-760.020596340042
-784.077843515518
-784.719429628578
-761.752367460324
-733.130297050404
-720.83236182283
-729.512032379582
-742.781188084867
-740.682364519508
-718.305163963719
-686.449523006861
-657.018729451889
-631.581331251979
-604.509293180852
-573.590558210151
-543.877469795667
-521.195791910399
-504.891863844874
-488.969363995705
-469.213983296421
-446.865510070228
-424.997232001129
-403.467978103468
-379.382006836452
-351.930935380102
-324.557269016142
-301.218499796664
-281.584139524824
-261.482346308322
-238.062463216575
-213.093633951832
-190.372088304183
-170.817378042475
-151.596824438999
-130.194237641326
-107.977521896569
-88.6700985843277
-73.8127920950952
-61.0563440298448
-47.2883294123171
-32.384299627262
-18.805965186353
-7.82442538383862
2.5451641216367
15.219485695097
30.4259702967328
45.4721025259784
58.1122284929311
69.1264165727857
80.909237017633
94.0912486785578
106.63280128132
116.452149257696
124.045675673825
131.700711010876
140.433638601514
148.70254942391
154.52691479263
158.187356379463
162.001874608916
167.538736630967
173.901486582095
179.201819493971
183.144887335089
187.299913712705
192.777792954998
198.459169846195
202.147705741956
203.166161572474
203.057839472894
203.565826714782
204.572390373566
204.615183850804
203.14691109373
201.45821601341
201.03931432637
201.584495713896
201.311529589779
199.207658982103
196.291978888975
194.297177133471
193.546069836348
192.788295459337
191.118862037975
189.351886863222
188.984012083698
190.109546430794
191.066051422915
190.332638459043
188.251814665547
186.37427248331
185.321215482001
183.960543059507
180.934077181429
176.487696791698
172.186470545719
168.896852606135
165.696865752697
161.156415864444
155.329527691399
149.874428794823
146.151188532463
143.743609485734
141.246893862257
138.198031261487
135.592582976192
134.359132811925
133.872637637483
132.525198668861
129.656803500618
126.361700679459
124.148641942786
123.197015046537
122.406637090935
121.047799241464
119.75741498111
119.574471305887
120.352602270812
120.719003694636
119.69652867595
117.906004972077
116.812831871224
117.02418579483
117.82234463611
118.421177094098
119.149972975116
120.925841338862
123.725510223828
126.154067841026
126.777661597137
125.54285051406
123.469020185267
121.062672686065
117.568665516886
112.03601111096
104.744980598157
97.048503896118
89.7906614122874
82.3846448659823
73.7985485461244
64.1817720204747
54.983347796547
47.3542708631161
40.862574117063
34.1487295892601
26.6290734425969
19.0169706484162
12.025312697883
5.03805766792018
-3.40110572297861
-13.8272271319533
-25.0720624663931
-35.4901403192981
-44.6554661087347
-53.424544023754
-62.4123645462617
-70.9675002746148
-78.0056318333748
-83.5581319986664
-88.9226858958769
-95.1370369870425
-101.712574415636
-107.248102809341
-111.117909740285
-114.074990611239
-117.079607101689
-119.990344407175
-121.875214562081
-122.4898092265
-122.882287760988
-124.232556475948
-126.394129658094
-128.047512612914
-128.295159901415
-127.661953833434
-127.266933124406
-127.338453148645
-127.078494134827
-126.046804329376
-125.167126845038
-125.908229986059
-128.592043365565
-131.975443282202
-134.651838885309
-136.498949135166
-138.382473347387
-140.618815966448
-142.294084701174
-142.358677762857
-141.039752015738
-139.671514106538
-139.110900229555
-138.761370486019
-137.440537036053
-134.942991324991
-132.289973156915
-130.414913879177
-129.066647993625
-127.358346989473
-125.164732009562
-123.4432866677
-123.007415678285
-123.362274643003
-123.157500221083
-121.696022641152
-119.569693489724
-117.668918608727
-115.952550868572
-113.624290756557
-110.421974293611
-107.199708889171
-104.923735040043
-103.360528185873
-101.216359893046
-97.6170038230866
-93.0589717543617
-88.6577439812153
-84.7556659419156
-80.7642557000824
-76.4169426454306
-72.660379178401
-70.836799181242
-71.0873001172381
-72.023631018163
-72.1478615618854
-71.2621390481506
-70.1408198371325
-69.0138186507454
-66.9510916378106
-63.0125086641128
-57.6437975477825
-52.4092068226422
-48.2990689086258
-44.7329522497581
-40.5155685198962
-35.5000035882975
-30.8287385248398
-27.4997304586253
-25.1761929896028
-22.7903505226489
-20.0956067087242
-18.0663658781027
-17.5784146255706
-18.093244338623
-18.0937515569328
-16.745257224073
-14.6753867924841
-12.9434382212664
-11.6323609078121
-9.928997225177
-7.51816171784782
-5.33336453328252
-4.55638968729783
-5.11267390404666
-5.63708301741571
-5.00054670234151
-3.46573302802781
-2.04366150401328
-0.984572311968797
0.561668725435378
3.28193203392325
6.56808571997033
9.10259399840755
10.4669234526415
11.6859635269577
13.9731233128425
17.270356806974
20.4252476020903
22.6975825604349
24.5795119097673
26.8846437595025
29.3984507572782
30.9728405244657
31.009223575965
30.3873772680979
30.5783400225371
32.0404431698628
33.9213032761371
35.3608908893336
36.6073916030292
38.4741358887135
40.9393083321568
42.8717769966825
43.3634850171076
42.9568190927012
43.1135495470401
44.5434653819279
46.5036185718011
47.9064490400835
48.708534754898
49.7244673360219
51.1590933295634
51.9158028954027
50.7455364897396
47.8342343370513
44.7583126141687
42.7985801642943
41.7153517760166
40.4749754788785
38.8753060742793
37.882449707127
38.2491955078123
39.305239077937
39.6139796992751
38.7250994048687
37.7690460609933
38.1087235319169
39.7663684741275
41.5988341246659
42.8848324127735
44.1692766625215
46.267494422783
48.8320407900798
50.489157683601
50.4529240281137
49.5184513914949
49.1053313993915
49.5677345501944
49.9393598639778
49.3754486831859
48.3190540088428
47.8246325792822
47.9765431018761
47.5951637732881
45.7272856243719
43.0037263511154
41.0423853179605
40.6023094016736
40.8349199812081
40.5506188225435
39.7878408799105
39.6084365290617
40.4318101515911
41.1953336767058
40.554331105973
38.6107825416585
36.8947136799125
36.5616401348305
37.0874919715897
37.0877017447236
36.1172989434189
35.0703121984761
34.7104609316249
34.3809316335604
32.7120008157964
29.4662849709364
26.0896347522962
24.1790057177856
23.7881830143862
23.6931874613568
23.1651944201221
22.8536957732265
23.6336143278562
25.0396116492807
25.4987321734419
24.176068552715
22.0476070525496
20.7595720333202
20.7092561803811
20.7927461846649
20.0640487637551
19.0455810872798
18.9401410288422
19.8372853950019
20.3892883063276
19.48834430835
17.7743471341566
16.9528510946632
17.7509000201434
19.130603517289
19.7301434628841
19.5789391022375
19.8113054360462
20.8133326302963
21.3713423649232
20.0795181609001
17.2214688449762
14.6210873785955
13.5709533749121
13.4674115463999
12.8631016397761
11.4783958928566
10.4810761450027
10.6905152639717
11.1757958670966
10.2348166325017
7.56527092204979
4.78067272483278
3.53073694001396
3.61395651816233
3.48396006753321
2.40748363574484
1.37894566848231
1.59276368211472
2.57296412133819
2.55963330983037
0.749950548431457
-1.53852223543327
-2.37408862910211
-1.48990700980167
-0.413394088401141
-0.347737225468667
-0.65863632432104
0.0248256354827811
1.61987895959547
2.34645949656061
0.895964563193134
-1.7901810865671
-3.52296494855594
-3.42150548909724
-2.73885635563296
-2.94228429648905
-3.65644499703926
-3.2436868946932
-1.24576682364487
0.644044694055488
0.517215879477371
-1.35759096016342
-2.84882260055402
-2.64781670562892
-1.85946053707571
-2.44033305269179
-4.57288088057885
-6.47217160801414
-6.88627655393723
-6.92993459062024
-8.7184539825776
-12.5141755025471
-16.1480972117733
-17.5555206153004
-17.1734357121372
-17.1069910033198
-18.2171920806981
-19.0108602093704
-17.7886236927473
-15.1276775740647
-13.2889760777349
-13.2476552189222
-13.2964770700053
-11.1712894717708
-6.97826139561426
-3.08271442667047
-1.11715268102581
-0.104189648534406
1.79362007470126
4.28735071933416
4.89134438286496
2.06845094989187
-2.52131067944398
-5.78301899130422
-6.82251645596158
-7.74895682418063
-10.5933482149936
-14.4438418382342
-16.6654273534109
-16.6204864841776
-16.8391240927137
-19.8551157907304
-24.7437144524743
-28.0019122433056
-27.7911985924222
-26.0553132546147
-25.7198381121809
-26.6847965403838
-26.0144099551255
-22.1855065819607
-17.717392406176
-16.4508895033342
-18.8242742714089
-21.3507437977842
-21.125429116772
-19.50990720087
-20.0869512749107
-23.5263011973123
-26.2173747465305
-24.6406181110931
-19.7824532785886
-15.7194848746436
-14.2612192236036
-12.926320021429
-9.09688886375402
-4.6801921674547
-4.61879585696891
-10.8857555057244
-20.1044411678248
-28.365647943013
-36.8087211686467
-49.8733093619278
-68.0002172485782
-85.0045444865505
-94.9494590860189
-100.018869682587
-107.802854541888
-119.78533467047
-126.19056765864
-116.293878655085
-92.5338157248555
-67.9001839904302
-44.5854386748599
1.53901136592119
106.064844087105
279.271827540553
486.313915001067
671.832445952016
809.466552083831
924.947096213744
1064.38053275555
1236.75144333975
1389.83452100738
1446.50532095334
1366.69143041827
1174.89591365399
930.595622788547
676.91947514548
419.6298116611
149.855433773796
-123.170282702801
-367.694512511484
-554.338517038303
-678.575843215586
-756.592641087617
-803.944951496726
-824.132785458483
-817.672930205805
-795.45199315841
-776.504809619632
-772.004802204847
-775.400168565114
-771.073440951819
-751.393753725416
-722.766548850468
-695.517422189669
-671.480651876798
-644.080916576915
-609.149078675419
-572.059058553948
-542.636068785549
-524.732992372221
-512.983813852788
-499.474320217463
-481.372069783804
-461.040224474322
-440.502190606975
-418.413453254522
-392.883116466816
-365.226869702318
-339.036748357441
-315.864214343887
-293.485501721548
-269.073277068503
-242.962253807511
-218.042596038735
-195.765592411367
-174.191446835136
-150.657411180062
-125.49512499757
-101.926452676536
-82.3315178250177
-65.7111083686013
-49.4141798407543
-32.6221463969083
-17.0289063400604
-4.07155993915112
7.41697003841741
20.0051667969963
34.5506483961038
49.2435832079688
61.9336995321542
72.6311664331823
83.0604153588536
94.1332898908463
104.811540774394
113.759251221938
121.405749693588
129.585794408681
139.235675600635
149.187970857909
157.588079147706
164.008938784887
169.554027469938
175.017651688392
179.708231817983
182.510297558974
183.675120957942
184.858453831999
187.29704428085
190.495737464515
193.095052684759
194.710658490843
196.329071241494
198.84141746057
201.765392692765
203.874713338732
204.849135691387
205.695538916735
207.355297085686
209.338404294583
210.185229288314
209.149754871016
206.937749954135
204.640961101205
202.382900444333
199.481493117298
195.824038098618
192.503439911319
190.762176340115
190.56342861648
190.624031597584
189.844572257217
188.296013207417
186.590672533558
184.631850071514
181.50937790184
176.706023614286
170.981058945789
165.698818203424
161.416514905056
157.515982356554
153.295037054571
149.054251236468
145.783328756942
143.924079525096
142.86984933299
141.832711108231
140.883650202414
140.764960900461
141.718449152084
142.871242253875
142.988631867685
141.64840067683
139.412034420421
136.920624783895
134.190616419832
130.990557555648
127.663618078207
125.175369220173
124.242021186704
124.637809465477
125.54015304736
126.4236796061
127.377743479782
128.587484656298
129.846130728424
130.829862656127
131.71517615813
133.179336452388
135.650446347646
138.726209369125
141.504269052197
143.384634045384
144.314599072889
144.245929537072
142.670633606093
138.993341301161
133.317427623317
126.572760824673
119.709246341336
112.894174640243
105.668430071804
97.7946849332477
89.6703698461268
81.8019440876025
74.1019214603047
65.994336219748
57.2121436728727
48.2213223650163
39.6797533260059
31.6077176959776
23.3312632095136
14.2583755858658
4.48953041713982
-5.46827351686233
-15.4092104141684
-25.5554210107386
-35.934577989131
-45.8957667502289
-54.5046987264411
-61.4023531715615
-67.0828020793583
-72.277158783717
-77.2506306994165
-81.8617914282049
-86.1773496460702
-90.7068451553847
-95.8769046207031
-101.434358439466
-106.608188135748
-110.884057583429
-114.451775403929
-117.817741442452
-121.142243736661
-124.15646504879
-126.685579193516
-128.992840017349
-131.442435613859
-133.939879243786
-135.933084458395
-137.013699809658
-137.360269942178
-137.482917793157
-137.651646991782
-137.767436263288
-137.780496389074
-137.99393658009
-138.769601949871
-140.022662658423
-141.239595264626
-142.073694880176
-142.772950048274
-143.877861127613
-145.575288025651
-147.54115695671
-149.437380061784
-151.336516663592
-153.444292173236
-155.468652346307
-156.531659928153
-155.867024977251
-153.519668615122
-150.218996448045
-146.617200959873
-142.848914971506
-138.889361266168
-135.110626275253
-132.186683235834
-130.398523918912
-129.237057743719
-127.863416769911
-125.902582800492
-123.636360411986
-121.448290563978
-119.307220449627
-116.943636897418
-114.394206557965
-112.095026210688
-110.342661800613
-108.831879304841
-106.911105788467
-104.260900967254
-101.152290594227
-98.0072816591923
-94.8930227185487
-91.6169656242721
-88.2291104008107
-85.1662354454428
-82.7731074401244
-80.8219943148081
-78.7043971561152
-76.0942661088356
-73.2517112390864
-70.6063401597597
-68.2045384326042
-65.7541864611336
-63.1562418386519
-60.7283069030193
-58.7460977533089
-56.8968978458534
-54.428472701494
-50.8911115276958
-46.5752864214155
-42.1215276001055
-37.8469402551357
-33.6733544612446
-29.6920349293049
-26.499630729189
-24.7216661395752
-24.256705857941
-24.2291731269883
-23.7803059024183
-22.7550611997481
-21.4777945337003
-19.9948569200343
-17.8412767622487
-14.6581222814393
-10.812977390643
-7.13083393143874
-4.0120865075997
-1.05672961025017
2.3078875399674
5.99292171743363
9.27405959778792
11.6252043267265
13.2657903013254
14.7319750152114
16.0915024514896
16.896310021122
16.9699726749634
16.9783049808012
17.9652132509989
20.3651046930621
23.6871177283677
27.2058293853994
30.7186431548476
34.4095092187333
38.0963143840563
40.9797561800536
42.3380787831083
42.3239320488135
41.8332861116797
41.5874903432096
41.5584701544348
41.3828249370729
41.1136509792555
41.2675238864404
42.1284018555264
43.299365557283
44.1633628584335
44.67774495094
45.4545079627593
47.0105694230391
49.1630242722579
51.3336128316176
53.3039060948599
55.3768010402093
57.7385094224389
59.9379271729894
61.2708485410566
61.6247810465334
61.6647971444981
62.0645251829887
62.7416861366188
63.0671395308613
62.7420198312951
62.1623000876549
61.7877657793617
61.3851915722982
60.2137706156201
57.9754986516067
55.3062733197818
53.1405058495999
51.7325828742098
50.557201400362
49.1579152477183
47.7905648984054
47.0248109934573
46.8852400431856
46.7344921877825
46.0959265322026
45.3302009525276
45.243295702531
46.1063797851992
47.3425256385607
48.2480058731363
48.7545413067475
49.2256182015591
49.6253182850606
49.2782314249775
47.6460332110065
45.1316450983918
42.8059088963257
41.335576147745
40.4486124532664
39.5750693838735
38.7538808561819
38.5614999103506
39.1620708794006
39.8108218814631
39.586001602421
38.4799780716103
37.4356707050466
37.2393603117437
37.6601858134144
37.9027741778393
37.7194235459005
37.6774355265239
38.2277734530162
38.851784232127
38.4961988397127
36.8058814480048
34.5745441429324
32.8173783902593
31.6492446750335
30.3840664025379
28.6498009073325
26.9869439034524
26.1231217571367
25.9185987160261
25.4438893470493
24.1451201495566
22.5786378105306
21.7337532435059
21.8161884855366
22.0716304653216
21.840404488673
21.3988832460553
21.4504383403539
21.9736367552771
22.0377180622657
20.9156472478352
19.0543014243503
17.5885672002566
16.9881450543156
16.584890484217
15.5756821466813
14.1389919444587
13.1558436729779
12.9124021800354
12.5713103396013
11.2120393115757
9.12648591167883
7.63764957304408
7.60228162283628
8.49245214191991
9.21072840823052
9.5207733256123
10.173206432239
11.5649330706175
12.7733247854396
12.3684784801163
10.0567342188668
7.04727520088974
4.64163109024454
2.84618778358013
0.76655728690902
-1.81099770733793
-3.81513591644218
-4.12216960130024
-3.01731800219298
-1.92083333999566
-1.67964547105761
-1.63338079456084
-0.673767541532696
1.09570362407507
2.28626950987603
1.83695048729868
0.19611507885714
-1.46135758521059
-2.89669272969616
-5.09074633602674
-8.73224801815583
-12.9178497612583
-15.8447721495145
-16.6743415424529
-16.2049449601054
-15.5625493751608
-14.7172692599052
-12.8105638867849
-9.79954483960793
-7.11028143978592
-6.28779104631428
-7.32651526992528
-8.85063588133553
-9.90408528460523
-10.9985363765006
-13.0813738979606
-15.8862355708923
-17.9646044698117
-18.4226312225266
-18.0406546323764
-18.2173284833321
-19.0866671361139
-19.3150793177086
-17.8858911565274
-15.5140894984569
-13.7894386273254
-13.1722555192034
-12.5303122049672
-10.8616277367225
-8.88061739772113
-8.25537672169908
-9.41117811935651
-10.8116065096159
-10.7554531499383
-9.39425427743986
-8.32983718348201
-8.3359962971471
-8.26610233634901
-6.65416214238008
-3.88732365492467
-1.97131950779941
-2.06562685671331
-2.99240723975827
-2.73570108437122
-1.01830819540206
0.425210445413174
0.239980034552288
-0.69054448013944
-0.442675750528262
1.2592474111255
2.50061295384536
1.61624407778972
-0.570790178600392
-1.7339401563387
-1.03134855404056
-0.164131236563225
-1.08817663327236
-3.44257192909822
-5.18861336486477
-5.64130421443614
-6.74727231351891
-10.6948927450292
-16.8969192105003
-22.4075969437336
-25.3690012009098
-26.9840449514254
-29.3742235450313
-32.1955770136269
-32.6812236346518
-29.2517499268574
-23.9102528171883
-20.0468838165505
-18.3875692240006
-16.482862564514
-12.5274028230788
-8.39415106008631
-7.6194209056692
-10.8605062158069
-14.9990036146219
-17.3148264381972
-19.0905148371594
-23.3777346598525
-29.5688191246349
-32.3836506164551
-27.5717613094968
-17.4091029828058
-8.46207540156997
-3.93747455047301
-0.697156851441617
4.37773752613136
6.64109998033799
-4.2049037713575
-32.7395574026035
-70.5005462799504
-102.507677080003
-120.658386875488
-128.031682285441
-129.538133777185
-122.416505370763
-100.65414492923
-67.7772105694348
-37.7769648065305
-16.4364001235987
16.9389398500824
100.079149286505
251.733836676001
445.115824630571
624.563629001958
755.145864676368
855.334582935413
975.098330067289
1137.74144880897
1304.24871068505
1398.01694000517
1366.2318848642
1217.62203511655
1003.29336737848
766.728200451202
516.288873931577
242.728540399598
-46.2124933079483
-316.0158408086
-529.163744659207
-673.0546682738
-761.956464932724
-815.430659513787
-840.543771433797
-835.664244452297
-805.71419437937
-767.22582782513
-737.30915501594
-721.059857344444
-712.040848577098
-703.001330633209
-692.581006075269
-681.526769734572
-666.614338684991
-642.431294410503
-609.08906196408
-574.865700912018
-548.899115512532
-532.059024692899
-516.891618183298
-496.511002150813
-471.646008788615
-447.97608933012
-428.115923860938
-408.556351745413
-384.727391494333
-356.989682715212
-329.89997289024
-306.279387744679
-284.099698437151
-259.97633460201
-234.267588931569
-210.98273135744
-192.7825435116
-177.707167671888
-161.757625720547
-143.773232644033
-126.31712386257
-111.741679484838
-98.813007103939
-84.2286640759379
-66.8092241336562
-48.812439958088
-32.8266117509063
-18.4892223767949
-3.27742441132284
13.878921993665
31.0154669368469
45.5705864678886
57.5181320740765
69.1231300340943
81.8204264566824
94.4209548545833
104.906141585151
113.266068847331
121.571327650726
131.253967265592
141.254856111548
149.448859774087
155.391107152935
160.769256433426
167.077744877668
173.682942717443
178.814539445921
182.071207685503
185.06076020231
189.33952444446
194.401921317883
198.355262835122
200.342837474485
201.525346382122
203.411816774129
205.831157538261
207.226048689914
206.811045995915
205.687217818617
205.444688039513
206.121578714863
206.195215827269
204.566039725995
201.906196188414
199.664462453708
198.137022743545
196.179840809859
192.885870370984
188.941604564568
185.854407158097
184.09320622795
182.594751768723
180.237599021395
177.29474148884
174.970704420615
173.711042396639
172.572035876512
170.470930955964
167.617342531118
165.212662349768
163.832609724285
162.648383340048
160.503342785314
157.401549785074
154.453126760344
152.393393787838
150.663005509769
148.245000092993
145.104139008127
142.298971498606
140.6270749626
139.603892907593
138.104733356807
135.791582122278
133.448913166236
131.847203134627
130.702895581656
129.12220334514
126.899121766627
124.906546218849
124.059238807745
124.241130043868
124.613291471195
124.850593252369
125.617187559384
127.63196076338
130.579905663313
133.336666969224
135.217013322459
136.591854356961
138.068801889352
139.357956546119
139.37360330306
137.480107971771
134.260117927675
130.796264539502
127.399852503382
123.424493152723
118.353053329263
112.672538268513
107.357716697744
102.64221035382
97.7004583099646
91.6638293805854
84.653192643359
77.5171072770107
70.676309908686
63.6162536838979
55.6631194837034
46.9674192770552
38.3719882177025
30.3467677445008
22.4055489729227
13.760888152037
4.33545786983701
-5.18715416833808
-14.2810667529758
-23.1995566546613
-32.477385191521
-42.0200081909817
-51.0328170212609
-58.8962584327286
-65.8164950123092
-72.3923378259224
-78.7036272106193
-84.164349560367
-88.3400475168653
-91.6152173902027
-94.7862707328809
-98.1001710113216
-101.018707406131
-103.033909471158
-104.456101794637
-106.118620747847
-108.375231407851
-110.712201383468
-112.497906031242
-113.89806782084
-115.763092449264
-118.632988755537
-122.141900313127
-125.558472388756
-128.711045820854
-132.075715406801
-135.940200505654
-139.774738747159
-142.649244476831
-144.157978628983
-144.681176732247
-144.724083432432
-144.273928551396
-143.016800721586
-141.045993736007
-139.029704843665
-137.566005370224
-136.576892384383
-135.548963660446
-134.286443581839
-133.161937772099
-132.553852924163
-132.282669446913
-131.862691730285
-131.253308880123
-131.064684063888
-131.86481055415
-133.446273647634
-135.009076546459
-136.034626841939
-136.719496260052
-137.421067279458
-137.883077610546
-137.313085218916
-135.259751014024
-132.163786408649
-128.856600241034
-125.638194634496
-122.100601715644
-117.879438453787
-113.313723281328
-109.145002005988
-105.667982770307
-102.455396650111
-98.9997190829661
-95.4021072955388
-92.2012891252775
-89.5967061115895
-87.1195005016027
-84.1903490720994
-80.8180676888758
-77.5224855462706
-74.6154198094921
-71.8202324969668
-68.7257198659705
-65.4275023595018
-62.4586754012222
-60.0847952705134
-57.9139385935671
-55.3631556746991
-52.3776449780102
-49.4617569330886
-47.0060487874311
-44.8337327185222
-42.5751403194417
-40.3363138017523
-38.7079114566655
-38.0449518825121
-37.9524553650182
-37.6724815474623
-36.8851556650507
-35.8901526215332
-34.9670288248917
-33.8151431793239
-31.8630787365903
-29.050922157077
-26.0196852257581
-23.4085704135426
-21.1558911098832
-18.7185259143828
-15.9174180734551
-13.2803314949419
-11.4134358284287
-10.2269171670367
-9.04366089863995
-7.44805062765219
-5.73708220697055
-4.35578936615011
-3.06232399208936
-0.963995039770051
2.55464047452612
7.16518688734449
12.020332155226
16.6937068598183
21.4150430153442
26.3436509539645
30.914405360579
34.2004991246751
35.8843283351849
36.6004036456671
37.2057611843907
37.9020541358301
38.2864251800223
38.1676365646384
38.0024257072924
38.3654655781254
39.189133144315
39.8225502509282
39.8587620667993
39.649727310432
39.8450161123208
40.5826710439595
41.3970395871041
41.9204442136963
42.3892226370671
43.2562237948801
44.4532141976597
45.3436271354308
45.474078448628
45.1312025163964
44.9444215826546
45.051185434569
44.940734351331
44.1883241557684
43.0869325443006
42.3110662957253
42.0593428865644
41.8548297613789
41.3170581136261
40.8875559733075
41.4915591287745
43.5005634252292
46.3072169809356
49.0539909631271
51.5583719768835
54.2325380168586
57.1471307481015
59.5521061880863
60.5808612637309
60.278899800757
59.6146732582919
59.4161188486278
59.5590020426289
59.3927951350799
58.7713365738282
58.2920283552576
58.4398621529177
58.8204018502128
58.5631192123907
57.413769216443
56.0921463545727
55.434416528544
55.4263971859357
55.3619995565834
54.8626698315834
54.3654837531924
54.4302425195098
54.8293615873462
54.6990877269631
53.6107340039215
52.1603585604869
51.2750196407235
51.1161041933565
50.989614041636
50.3381051758683
49.4649137647478
49.0286139513434
49.0232426167976
48.670722117092
47.4261474424821
45.7696534888277
44.6950105348203
44.5189403203451
44.5434511181358
43.976453425901
42.8487164906002
41.6979946367222
40.4941685647094
38.3571379559884
34.5806294459448
29.6754161025487
25.0182525220206
21.4775697383796
18.7417114623111
16.167955731596
13.9620925217506
13.0578181491342
13.8174064408098
15.3109440496006
16.2387392141547
16.3984719775926
16.8201320912559
18.3770970308132
20.6533315819666
22.5056875332217
23.5344639750139
24.4932467517504
26.0991909845
27.8572031700675
28.5189565720899
27.627463331954
26.1250706975702
25.2046025398656
24.8894849980231
24.1791769380102
22.513028313399
20.5570270983106
19.246171299232
18.3924433245102
16.8012300264386
13.8365062795419
10.388104235785
7.91168895439843
6.73937378625736
5.84651664513686
4.35399244923962
2.74507625677184
2.15560699971479
2.68837459890044
3.05951459077382
2.14991168871875
0.47067280964399
-0.412491715074658
0.20120758211814
1.36135486186759
1.80874012370391
1.62908866612288
1.99720486417373
3.36484344790487
4.57704159620871
4.20470239948161
2.398259951938
0.785722746742778
0.474731970101502
0.746297692957462
0.150163354024207
-1.47007172206348
-2.75401729369497
-2.73605215990943
-2.31546382304543
-3.21227076568295
-5.67611733626186
-7.97273771005179
-8.42207635629811
-7.39571252951274
-6.6733267508833
-7.00675427295031
-7.12193194315813
-5.50212785299128
-2.57890733483681
-0.352960662343748
0.143834375390848
0.20605793428409
1.76811097348088
4.81786915340605
7.29124813770904
7.58574653934526
6.3677074688064
5.29653546438897
4.44143406124491
1.97574842805898
-3.30304190269695
-9.96602821259448
-15.2686922250663
-18.2225927219364
-20.4364182955689
-23.6244382958921
-27.1326201533453
-28.8634547106136
-28.4008718626002
-28.0271881553832
-30.0034329021733
-33.5552602610583
-35.6495843422167
-34.7538608537351
-32.716137416035
-32.2317106202646
-33.2139646437457
-32.9906405496056
-30.2295340672631
-27.3600527421073
-27.9818294684253
-32.3591712754199
-36.8917575068634
-38.4559059132496
-38.0799481608423
-39.134048331728
-42.4079577776686
-44.6920775955431
-42.9381373056006
-38.5610213720279
-36.0259853570083
-37.3932101379539
-40.0189906353016
-40.4900750669691
-39.3578698997096
-39.9608349962334
-42.8079657245071
-43.7146794768405
-39.3468307761413
-33.3106384777657
-33.8368092653221
-44.6183593686654
-60.2837521005368
-73.1855297773441
-83.3253798730653
-97.7573533968536
-118.774891701805
-136.166898833086
-135.787664949576
-115.591380610268
-87.4568630562399
-58.2057846418982
-11.1279291839312
85.3655873873905
244.590673688034
439.071217580073
618.472989338773
754.717743487808
867.008642185203
996.509728096774
1154.07672012173
1296.040612113
1355.32703333667
1296.80538949798
1140.83452953725
934.711750074166
707.434751989151
456.962722369089
178.254695603257
-106.214372550859
-351.419218255206
-524.613423988895
-630.115821250668
-697.531897633284
-749.210903721589
-783.682581437416
-789.626064269451
-769.06028101251
-741.155148314544
-724.369421864953
-720.158660832181
-716.651534048257
-704.918282218533
-686.940172065553
-667.86013264773
-645.890211074342
-614.664078208854
-574.738213809966
-537.93916978726
-517.075792683979
-512.390608414652
-510.838644944875
-499.130678601544
-475.549216992118
-448.052294530539
-422.954754441212
-398.518192834078
-369.899765015119
-337.441675306307
-307.33931531957
-284.5342920295
-267.41697213097
-250.656846734262
-231.680058402513
-212.345521869289
-194.565608477864
-176.661018063147
-155.598209130043
-131.802926902849
-109.62811367011
-92.4547825078759
-78.6925744675015
-63.8816685230754
-46.1895325453196
-28.3028109603056
-13.5327047520504
-1.40702982781926
11.5692397549482
27.2024141123885
43.2064445894258
56.1339456841005
65.6710815243327
74.7474497729905
85.5624644641375
96.8927369903708
106.112773631617
113.035158423992
120.372272488369
130.219767998194
141.237748769511
150.232835652151
156.050949514044
160.754576749699
166.720993853504
173.603024677007
179.094352685154
182.307326928097
185.162758039312
189.921340006121
196.126358907119
200.988135389121
202.715654665135
202.504615540632
202.743004322497
203.936122425621
204.376773938582
202.823909976055
200.480679169956
199.58671910156
200.488673880525
201.071733769181
199.319853119332
195.700599933082
192.379900791967
190.45152803736
188.862957525411
186.324185702232
183.480396718309
182.330126090077
183.601454391444
185.561613514574
185.88266237235
184.200639320211
182.143535761595
180.946100234886
179.870567886064
177.46248476957
173.844185214516
170.875690248781
169.875310025143
169.865709239978
168.667808631158
165.469699164666
161.613159920473
158.702229098615
156.599765235422
153.910530825871
150.188430617699
146.826988486199
145.375275427248
145.465679985488
145.091085838845
142.921829310016
139.724515985815
137.153547469547
135.593833113307
133.869203745411
131.078915847293
128.010262883393
126.19256340275
125.829607374832
125.359614426483
123.273726176047
119.89330709567
116.896933508807
115.318663102426
114.63234011819
113.967527115295
113.637368862822
114.806593398909
117.696721728289
120.750855666925
121.966306142051
120.775670854649
118.159808441397
115.001226362412
110.932790859643
105.156254093696
97.9938174570347
90.932588615215
84.9575445042857
79.3170287558785
72.3826814819223
63.5670503043035
53.898323787812
44.6100812058845
35.6591665779942
26.0879111239071
15.6411528854811
5.37814267374887
-3.61209327010437
-11.7132512218085
-20.4728646941404
-30.7949048541937
-41.8951384281094
-52.2794017435131
-61.3930360715979
-69.8058558508035
-77.8315960190686
-84.5946929579063
-88.9359484525934
-91.0311870197716
-92.5490524214458
-95.0167929087349
-98.3850837395753
-101.527555288228
-103.912785083077
-106.226736862506
-109.197774120428
-112.305784818819
-114.217274588308
-114.471023740501
-114.218756301782
-114.993243051588
-117.015002792002
-119.134487530912
-120.384006572962
-121.074875647268
-122.071567377379
-123.338878881223
-123.812586267986
-122.83954769471
-121.283279603369
-120.762132736758
-121.905008995532
-123.791619940846
-125.207095733455
-126.015250119186
-126.893179662867
-127.916424877055
-128.034648528854
-126.269098801976
-123.10591783905
-120.202714859126
-118.679157155161
-118.105300041114
-117.401469327454
-116.393505639149
-115.967952454889
-116.680996605564
-117.756947813843
-117.903176263771
-116.931170334873
-116.034933853649
-116.276321893524
-117.165005985679
-117.1346249427
-115.299202932119
-112.265680804064
-109.060730315947
-105.704963998492
-101.389667211597
-96.0395336737592
-91.1434523074757
-88.6136592952955
-88.9625227555437
-90.9814895247433
-93.2172104852737
-95.3270468624156
-97.6989460743297
-100.06962246041
-101.162720972881
-99.942968864417
-96.8730187396063
-93.4920191326972
-90.7831088043714
-88.3304017726169
-85.2010103293671
-81.2688853898382
-77.2401087324233
-73.4762912353386
-69.3432815952229
-64.0649523396613
-57.9715148595805
-52.4268527923149
-48.4315431134785
-45.652460738246
-43.0819497909617
-40.3979245124236
-38.2125322558189
-36.9339534223063
-35.8648541492179
-33.8662283384893
-30.7922336231337
-27.7816771622545
-25.9163888986989
-24.8939501414518
-23.3911428748703
-20.6371639440823
-17.1775226502991
-13.9048051304012
-10.7225314833703
-6.67833480811358
-1.42852791472031
3.92113020915606
7.80196857582781
9.83720701576227
11.1171455755798
12.7983352044737
14.8401002596581
16.424362541049
17.3523069737203
18.4555661201835
20.4359025317119
22.7037542043986
23.8472895066378
23.236252699372
21.7566425610489
20.777084905404
20.7115551873009
20.9910057042677
21.3267641325383
22.4257785172974
25.0961653026625
28.9152279796192
32.3209402963545
34.1702984885109
34.8637727994581
35.6493626945186
37.0467683758386
38.4228163235111
39.173654906959
39.8185349640684
41.4406553007923
44.1572254979599
46.6762784206227
47.6418300238912
47.1338192149794
46.4509238370323
46.4995489540153
46.8726356972303
46.7267483748172
46.1618350804038
46.1659783516026
47.156732112666
48.1029739834011
47.5198803909303
45.1715208104795
42.3392410628235
40.3397440882375
39.2194441518463
38.2546806301814
37.4466338229087
37.8642931962545
40.2566346128909
43.7553701404307
46.4968856223462
47.5233579053012
47.6100269056506
48.0067821075091
48.7640852886999
48.8172535303745
47.6477320544015
46.2249781685783
45.8752698092285
46.5110783383148
46.5942918578868
44.9967767185585
42.4238632470094
40.5800821832363
40.1557683340978
40.2173373487758
39.7133261627015
39.0164945866988
39.3945543374664
41.09008793471
42.6084753497949
42.2867783812348
40.2142869207001
38.0551001435304
37.0109749095988
36.5517252191177
35.4871944489824
33.8434958892331
32.9535779078947
33.588644009658
34.6443430841861
34.2514656204605
31.9961608869742
29.4090520960216
28.0837820640819
27.8599478717714
27.3957375830832
26.2782140231975
25.769627763192
27.1138715637313
29.6418141778422
31.2952081108556
31.047192809717
30.143037428612
30.539838099311
32.5463754736082
34.696656613383
35.9353301722767
37.1287018096204
39.8193338564729
43.8602998541919
47.1588353287687
48.0353335535094
47.2061222080268
46.792891776503
47.6193095288957
48.310203815285
47.3266086554116
45.1521606851167
43.6160696259369
43.1874681109365
41.9160755821889
37.6434302998692
30.7532274383296
23.8523319010878
18.6909343176905
14.271898464941
8.5957947492574
1.6969437406268
-4.14185300112712
-7.39640003624093
-9.54990734425173
-13.4226463583908
-19.5399175333653
-25.2191921908645
-27.6582690460312
-27.1041568506948
-26.0347724877161
-25.5163356116639
-23.6735913052018
-18.4518972399228
-11.0769494566879
-5.48739826937217
-4.19872091208512
-5.81696645486117
-7.38208988355214
-8.41831828465398
-11.3103125985347
-17.5077404042067
-24.6767995155795
-28.724748321602
-28.1086612822819
-24.754917359604
-20.5643621912838
-14.6393457083895
-5.44997002429504
4.94760249715545
11.0782127054924
9.52134411303213
2.92817287019129
-3.27020583496587
-7.98505382909797
-16.2605279482315
-32.8839827740513
-55.8228004330714
-78.2833697154236
-96.7724674475588
-113.73033739436
-130.102422426351
-138.091302386513
-126.743499821128
-96.564692921273
-63.6389506794391
-41.9578628743323
-19.8698306017024
39.7215543507221
167.503468237964
353.728155331998
550.657903853165
714.473690224519
844.881444550233
978.439590051186
1139.40223839219
1299.45288329321
1391.12386044829
1363.41264858676
1222.9145037576
1019.68997012266
796.534758061544
557.512717161582
286.559462843461
-10.2019675433275
-289.449976565832
-500.556680388888
-626.884935379306
-694.001415275437
-738.903160366975
-776.168426909545
-795.697168775461
-788.017240300214
-763.759520225814
-745.39507336521
-743.943412772293
-749.239288388145
-743.672186030949
-721.533049111285
-692.108610977936
-666.056412043721
-643.492245982102
-617.160691081396
-584.243647430644
-551.072566109545
-525.773098547892
-509.126466812414
-494.766052488074
-477.137413471321
-456.616259236807
-436.341509817423
-416.431147166517
-393.677490018276
-366.546711022351
-338.133898006226
-312.893949936779
-291.533487157589
-270.785588298159
-248.146089423645
-225.174525745642
-205.124549171168
-188.272250885008
-171.215259280077
-151.028419698013
-128.809361201135
-108.103838464944
-90.4375338798753
-73.7646562670077
-55.5985375311357
-36.4813795095694
-19.2550718469428
-5.28614889439254
7.26835623611872
20.9273977512382
35.5192547701872
48.4020992891646
57.8878337798937
65.3466820305327
73.3532030352779
82.4701874569004
90.9181304237032
97.4196919824343
103.303136448003
111.014754181197
120.992534814248
131.008308920067
138.828535047171
144.742611088531
150.782467073653
157.827783558278
164.46533767916
169.0265283846
171.999159640107
175.564008475796
180.833624896957
186.380210245137
189.930886124183
191.01170633522
191.200543510527
191.854507528283
192.416008338807
191.481859405714
189.091825712992
187.114514960711
187.176903811727
188.8234371134
190.249611179084
190.57615782847
190.702549154968
191.761593409778
193.368181930622
194.025873816942
193.099184583765
191.666295335466
191.087833906113
191.180767115241
190.40472616372
187.801462896458
184.139978356418
180.816091249045
178.032614155452
174.689294336883
170.085937421972
165.11285197017
161.289725668796
158.881565085749
156.560929305936
153.071034975971
148.744970616374
144.961392395591
142.33053217897
140.01903110671
137.051060898801
133.789452206073
131.58324300672
131.016681866879
131.053717721031
130.206279720743
128.228309916754
126.198803344805
124.993857274953
124.211013422142
122.916038932858
121.121086547953
119.953442239199
120.251759761922
121.431942366311
122.114029653845
121.69767810468
120.878065068258
120.543511590323
120.613757198412
120.357837271681
119.664616475732
119.435279547593
120.466604295409
122.26247693907
123.358039661496
122.76220172538
120.66641093774
117.578474184915
113.161809388676
106.444825509393
97.1868154009445
86.5601470441025
76.1397803828648
66.416702767011
56.719849382238
46.6171018341827
36.9313683654818
29.0055259929236
23.1479090549102
18.2788430934652
13.2423206614174
8.07868452793724
3.61574951859947
-0.0509106834406623
-4.14944170614046
-10.053031233794
-17.7877978729412
-26.0918981826172
-33.8961430030743
-41.3115716160155
-48.9351896904477
-56.5232695383334
-62.8856570493995
-67.2014811985531
-70.0515889275855
-72.8082583951864
-76.1426694588113
-79.5184765390024
-82.2151133331644
-84.444127509282
-87.0789300473548
-90.4148598125608
-93.6718481880091
-95.9464520726261
-97.3768252238421
-98.9873488957753
-101.410131899546
-104.140494796642
-106.256869224816
-107.608380066006
-108.898143021112
-110.600581114514
-112.215958596058
-112.905013457744
-112.685533397348
-112.592407567022
-113.543480251653
-115.344094619568
-117.075123511632
-118.301278138099
-119.496959091426
-121.169959941486
-122.913242003136
-123.710424379449
-123.145002823304
-121.942843417054
-121.12742417871
-120.86504769618
-120.459570710272
-119.437878741006
-118.260252115147
-117.731528204718
-117.931201343856
-118.10835232863
-117.687830768952
-117.048917872959
-117.034619534816
-117.823354917117
-118.627051877481
-118.585603315254
-117.672295850921
-116.458514120576
-115.131502499381
-113.143049067811
-109.990292066408
-106.08087721614
-102.488175860218
-99.8553571920931
-97.8281338521799
-95.700749623841
-93.3779194381627
-91.382553209787
-89.950758121925
-88.4893180929982
-86.1822982318205
-82.9814457158025
-79.6746461078656
-76.9234722183488
-74.5092482777706
-71.7423458486555
-68.4564917678762
-65.2624500706534
-62.7504310080352
-60.7398457608224
-58.5985082658514
-56.2027682156725
-54.2310311823027
-53.3558832424687
-53.3657833459911
-53.3540357002516
-52.7166680418389
-51.6567790518238
-50.5826408720454
-49.279787790863
-47.0345061555135
-43.5888502921622
-39.6522183416065
-36.2382070334071
-33.6319531220264
-31.284190766237
-28.7152564603718
-26.1996940495629
-24.3282709574693
-23.0678222535893
-21.6242003803937
-19.3409515678041
-16.4651526509564
-13.7603166010807
-11.4637481001422
-8.95941354432158
-5.59691443189728
-1.57254304518624
2.28786369401586
5.53701643006578
8.54108552226873
11.749604950492
14.7914534162905
16.6635891839141
16.8508150879761
15.9604713246793
15.052009579032
14.5254716782438
13.9885571725962
13.2086301040185
12.80648898938
13.689880359358
15.9192960534631
18.5031871113832
20.4463917894678
21.7482339406101
23.1082502467058
24.7799020288058
26.1108960340382
26.3796721599058
25.8073563658425
25.3787830521714
25.6752260670621
26.2371339631206
26.2946406646118
25.9123168944366
26.0466633851238
27.4333839133555
29.7445053534258
32.0869978895693
34.1503841468757
36.4778447512039
39.5213685346459
42.7678640284884
45.1378075914538
46.1775210594742
46.5134393650975
46.9984451441856
47.6799373855514
47.9153878097292
47.4135140969905
46.7544171184913
46.6633004979474
47.0072406169457
46.8840919545366
45.7335112364567
44.0322325974322
42.6660312350395
41.8087068035857
40.78235860497
39.0645876927831
37.0801039146428
35.6993668825525
35.0962105773346
34.495591311727
33.1897359918142
31.5241584471692
30.5695942225374
30.8946835191012
32.0087389796618
33.142889519199
34.2799824999762
36.0488640808935
38.6413394376038
41.2324421943049
42.7300359187741
42.9196513042098
42.5416213750185
42.2383150948063
41.7767384226012
40.5429916116522
38.5802940940863
36.7133038837717
35.5449655013267
34.6611336553372
33.1437929915755
30.7636191476723
28.2982204218255
26.5559669106202
25.3913682006682
24.0084488764338
22.1340888451278
20.4757113426643
19.8219219930955
19.9634787872507
19.8865586086458
19.0317953163463
18.000602566418
17.7985173708638
18.6107779674826
19.6963626392026
20.4869466777196
21.3798837882934
23.1406095060261
25.7090015480976
28.0271897697718
29.1652814644379
29.2954396721071
29.2585979175601
29.3341897961334
28.8750155449358
27.293864063883
25.0501782410332
23.2559404087521
22.3677315870496
21.6938706357644
20.4018500004964
18.7140177000025
17.6944332967716
17.8804817471628
18.565164858671
18.7039278177765
18.2673234561313
18.240647182159
19.2449021058305
20.5993179488296
21.10016816955
20.5323813101087
19.9334671748123
20.2419211990743
21.0861180539408
21.2967666350337
20.4596866646489
19.4493675830029
19.231211015287
19.5259007157905
19.1348152578988
17.5330646653222
15.6370894449708
14.7155554600029
14.8556592858777
14.9887678889765
14.4167062103751
13.7858834814702
14.1893963473461
15.5854590203602
16.6694517270552
16.4328152888736
15.3883548155885
14.8466483023761
15.1921849107883
15.4392067658869
14.6533560782713
13.3312828546338
12.8623157943689
13.7474964292351
14.9399551459081
15.2154741655786
14.7783113960263
14.9592114102689
16.3811992892599
18.029407105746
18.4906376487746
17.7370846758262
17.0677591981157
17.2577094728102
17.3887733102669
15.9802530008414
12.9734590185053
9.92165496531288
8.06674045555695
6.80784238232688
4.60255235009761
1.12765717896087
-2.18960077332802
-4.03230323136013
-5.00004682010991
-6.91037251577078
-10.4410859213301
-14.2145163906104
-16.5796844327089
-17.7695985076487
-19.5575344195634
-22.8279622750783
-26.2890295929318
-28.0928984064125
-28.2549362039741
-28.6292129186195
-30.4058444099534
-32.4363827413049
-32.6660043118245
-30.8287950448807
-28.8306073206676
-28.2988227427089
-28.5951276065145
-27.9997920681531
-26.4717455064547
-26.1563680843577
-28.7904768859235
-33.4204019295332
-37.5452132595294
-40.1505714141677
-42.4070157032387
-44.9741385729532
-45.7589033439708
-41.7255283812923
-32.8254478936439
-22.7383601039129
-15.0167398115845
-9.66223113852685
-5.15449754920065
-3.59490665599391
-11.4442323026795
-33.1669830103865
-64.7410407255609
-95.631818813739
-117.892749256646
-131.549191425657
-139.508585162628
-139.109974934321
-123.043646296173
-90.3496903185719
-52.4044535530576
-21.2769302420219
10.2231359038952
71.7283258334502
190.444016984828
359.720890723433
536.716358241427
678.508953181224
783.327523991102
892.18259139261
1043.76639494231
1225.27589937579
1369.77155686724
1405.45424974328
1310.15667275892
1120.22045827087
890.336966624928
648.726681105334
390.855174070016
109.991772225492
-174.718440732414
-423.705613765102
-606.899555342322
-723.848966799214
-794.618718187883
-835.715769354845
-848.69476731509
-830.500577048244
-789.086688472598
-744.57297987781
-715.390606498054
-705.689164193737
-706.496543370541
-706.557980983824
-700.174593264831
-686.468032691006
-665.533485114609
-638.091566118131
-607.630024753471
-579.621422257911
-556.98898213383
-537.283347158619
-515.703514263187
-490.671711566654
-465.17463777226
-442.358806364173
-421.13311612167
-397.398546510099
-369.259074705491
-339.565694999445
-312.671520087409
-289.584903680672
-267.467481989133
-243.707618473404
-219.169046875224
-196.70067062911
-177.25641308097
-158.79540005963
-139.171634530439
-118.977406207003
-100.592060961508
-84.8359619987736
-69.7283553191434
-52.9578632741586
-34.7828282318459
-17.61051101632
-2.91159306410907
10.4674950969503
24.4959579939851
39.1563428069791
52.3460095123355
62.5462510298737
70.7322873864198
79.0924084480317
88.3247158335965
97.0436539458477
103.959343286226
109.86623373909
116.818746110522
125.608785025037
134.840445589403
142.744241134767
149.311265220497
156.010467124409
163.580534049464
170.86291659286
176.184648366702
179.431249310699
182.104276840494
185.351738704563
188.583492961429
190.434137452053
190.72688676298
190.834032850647
191.99893075583
193.852440799918
195.036234795412
195.044638900889
194.838926327158
195.467984674449
196.563788512791
196.704521538327
195.156377017073
192.722122782269
190.644275718346
189.059683751358
187.022454170615
183.988181314622
180.737451870606
178.508729519434
177.497286695781
176.687964880356
175.203172877952
173.372664833549
172.161127397538
171.792015514075
171.434931642354
170.351258894246
168.925785555979
168.174663315883
168.368429831416
168.595652602429
167.842253593274
166.150662156719
164.33042428996
162.635690714029
160.215411217375
156.125113365041
150.605790626268
144.946734013841
140.084101858904
135.73876621582
131.190789739395
126.643181615258
123.351616650078
122.304151364575
123.124951259871
124.58810261832
126.050574671338
127.957219883386
130.820507512582
134.07807998901
136.375748680102
136.951771307652
136.36800769294
135.690474011488
135.215312878376
134.365531396825
132.799723273761
131.183273229104
130.546610693621
131.036437140052
131.674572334821
131.434317490858
130.253936655023
128.730350715544
126.976064077423
124.18794430388
119.50253532851
113.01326928763
105.626995471326
97.9646276083344
89.7386490791151
80.380696058511
70.0498495622507
59.6860434372068
50.0550009283547
41.0414073781787
32.0770747035572
23.0754498495137
14.6041726180487
7.08330122803267
0.114744388578742
-7.12518470121432
-14.9162735669345
-22.7039248426375
-29.8490971385895
-36.4161723837936
-42.968579822283
-49.6757880693893
-55.9557117707085
-61.1652847662251
-65.4526177405533
-69.6474017866497
-74.3076324233892
-79.1329337698467
-83.473186550159
-87.2461235787519
-91.0761776227294
-95.5092318474371
-100.356690974481
-105.017075823817
-109.317322617975
-113.740922906864
-118.734470024492
-123.997469081338
-128.669417271373
-132.153115372482
-134.52108082302
-136.062262277192
-136.684337604886
-136.03860176604
-134.202691091473
-131.952868380836
-130.174952119528
-129.110994652883
-128.374473125752
-127.664904305498
-127.206944154975
-127.341179023425
-127.867929477927
-128.111344420397
-127.714293945065
-127.153939337329
-127.26092732314
-128.288786072393
-129.672062779848
-130.742241509535
-131.455741993126
-132.204691124373
-133.003798481925
-133.176714065801
-132.016902102812
-129.615928779151
-126.806760473122
-124.280563726291
-121.964282736934
-119.377548353841
-116.427568107923
-113.588927317829
-111.279261998986
-109.310412749639
-107.167528689136
-104.748067064437
-102.579441682267
-101.227549626742
-100.669087168454
-100.422708130069
-100.211705156084
-100.242212344123
-100.736602187632
-101.396089694337
-101.575420158362
-100.981634335733
-99.9665177101768
-98.9877958705199
-97.9185211793067
-96.1149100479691
-93.1762486832397
-89.4202296130329
-85.4637312836581
-81.4763020116785
-77.1106096032012
-72.2172771486766
-67.3871769223068
-63.5430819308716
-61.0200671625778
-59.2558061838519
-57.4621041416682
-55.4269612864694
-53.4746561198005
-51.7312262764019
-49.7371981842203
-46.9604656764661
-43.5453235347719
-40.2892340256763
-37.8183372785731
-35.9587294546234
-34.0451612619236
-31.7200228480301
-29.2012140975391
-26.7548860705141
-24.1690052161067
-20.9896539348746
-17.225052041918
-13.5620325463161
-10.7545121917462
-8.91776679456366
-7.57947996572646
-6.35509613738378
-5.33602892203925
-4.71989224921722
-4.25966849261784
-3.35359235126417
-1.71465732374036
0.261740232942216
1.95724616523463
3.26424784800608
4.6698306282903
6.60543224747972
8.9265264802822
11.1911905876177
13.3262993307278
15.7438821411602
18.7090543949956
21.7925043446986
24.1830999500032
25.5336415100296
26.3002363217819
27.160333597558
28.2581693262248
29.2180958455244
29.8409925465215
30.504105394933
31.6951419485099
33.2855028076755
34.5343783750122
34.8914340287787
34.6275412056604
34.5246909471768
35.0385143253566
35.9780399810658
37.0261344115895
38.3170366055099
40.2483308933951
42.7668803494944
45.1137366626966
46.4476509310138
46.6276518356844
46.2160190448172
45.7495898931953
45.2289304584441
44.4268110362175
43.5049300552066
43.0302161629895
43.3154203644726
43.9532830720474
44.2038395189609
43.7952671024982
43.1543478382218
42.8096257580766
42.7557265034541
42.569937685978
42.0533018611694
41.4884727666759
41.1569980316552
40.788818175663
39.7417419588781
37.7527990344197
35.3322124181249
33.3089680223102
32.1088584042975
31.6420785978373
31.8259791847564
32.9221035569945
35.1593439756942
38.1454587756212
40.9345713196985
42.7953983372596
43.7887706791209
44.4689374684553
45.1263475828939
45.5465697204554
45.5358094387627
45.4195696125424
45.7535181578879
46.5667400502087
47.1498735930622
46.7529123333333
45.3853141798615
43.7493460862977
42.4202965258683
41.3188184037711
40.0947820853318
38.826988544933
38.0404589596369
37.9809395696441
38.1195211311555
37.6085562270434
36.1838290612415
34.4112900055808
32.9994341824063
32.0714843149132
31.2885654241478
30.5592803796344
30.300785220124
30.8503312614812
31.8140132001631
32.2859203312574
31.7545158783736
30.595260319012
29.5505958882137
28.8795362503429
28.2468962944551
27.4146739023386
26.7315428608408
26.7052395509901
27.2055730995389
27.3993318726004
26.6013893664916
25.0230069009348
23.4939726362481
22.5254490784955
21.8925797716628
21.1984197219234
20.5854339129566
20.59283169411
21.331490199345
22.1030598036386
22.0485078831423
21.0690974793832
19.8804629990535
19.148961772019
18.8046949616787
18.3446339675637
17.6242542718981
17.0264095018465
16.7809742371711
16.3932565803738
15.0354965063277
12.4895189447961
9.47335348511985
6.9455228100305
5.2633290888545
4.19844054616503
3.64200297035651
3.93356200106881
5.31319547972693
7.25040018783696
8.64488650786268
8.77281452233148
7.84973998064096
6.54531995217568
5.12008157342863
3.30010358821081
0.975594344853461
-1.3148677203946
-2.85762807741123
-3.60917462908158
-4.25688568566909
-5.33224407965616
-6.48141612299165
-6.84167120856584
-6.05590174175119
-4.63336923500289
-3.23280924695127
-1.86929724415706
-0.133744024784615
1.87275815280103
3.2085531731842
2.94447394431785
1.20995634412613
-0.886920870646584
-2.39273061216883
-3.29857048667131
-4.06717073610872
-4.64120640251369
-4.34045713836917
-2.83476708273044
-0.881218623435974
0.258754323841188
0.106501412926715
-0.615362981700795
-0.939464822065013
-0.761814197792305
-0.730696559156339
-1.1673215732593
-1.5304467617596
-1.18087266973419
-0.429575295715715
-0.417205337303507
-1.87435254763466
-4.29203358220907
-6.53726883105194
-8.11037205870377
-9.45713903167224
-11.0338434057506
-12.4680813256217
-12.9894801933169
-12.5569446156558
-12.1213854498017
-12.5732747273541
-13.6791694325527
-14.3745560719387
-14.0380475221501
-13.1104426580989
-12.3120721021955
-11.5789493417298
-10.1989010528282
-7.98874584459172
-5.89372971451825
-5.08950156858199
-5.64739519714098
-6.46745844244438
-6.59212614124795
-6.24086356027055
-6.28443414923049
-6.92750705700792
-7.39584847144343
-7.06358425485251
-6.4972304352099
-6.94448294195022
-8.82837997366394
-11.1564028510399
-12.6179811251408
-12.9837010803346
-13.0615920376109
-13.3774637873238
-13.4037294437719
-12.3764799169315
-10.5653400159246
-9.20509450152393
-9.06395689214752
-9.47753804449958
-9.13160506916436
-7.61351180382018
-5.75885589696527
-4.42746999132346
-3.42408050110006
-2.04954425021631
-0.513648803590637
-0.185246409483351
-2.14409081959841
-5.80687102191644
-9.42901704757915
-11.9037376805806
-13.5943268447694
-15.2106324958147
-16.3408402333288
-15.7233290236217
-12.9990004420543
-9.5989236647849
-7.42634199844676
-6.86564622267936
-6.62229713685619
-5.60044585299898
-4.39467592717579
-4.46938521066575
-6.13193934763423
-8.01588514688451
-8.82165718336303
-9.0548110958333
-10.4259646562549
-13.6019397437041
-17.1915058314858
-19.3001948120765
-19.6722392551734
-19.6850422108405
-20.2768412045864
-20.5855014788119
-19.1018859148702
-15.7755838760205
-12.2154714918997
-9.6495232053973
-7.32310085810631
-3.49497725589235
2.22676284071559
8.25904906154765
12.9277623514515
16.3272830937561
19.6670896090508
23.0333512056265
24.7174188553696
23.2277897842869
19.4318589862069
15.9096477775089
14.1855271871991
13.3517332026943
11.8374441707555
9.91408638196075
9.49356941320717
11.383592264058
13.703053513584
13.8138647095843
11.4798053481039
9.14701266960327
8.85250693530878
9.71044167312457
9.27666259261553
7.00884120552013
5.16325784434821
5.75862754623966
7.53268219321037
7.07466795957409
2.94222564298136
-2.49399353131567
-5.98395882491756
-7.41374198960229
-9.66454460761925
-14.4178106612215
-19.3775812833077
-20.6591415126179
-17.3779202719677
-12.5635451568901
-9.35244572385497
-7.63194528688482
-5.55476469286474
-3.52061428606133
-4.61635204180541
-10.3598128122846
-17.5792780863208
-21.5310215291836
-22.0851247489418
-24.8727477047884
-35.0677779077896
-51.1721999024639
-66.7986286529687
-78.229524009502
-87.5810974505634
-97.0356248096101
-102.304161717122
-95.8000572259097
-76.7985359323112
-53.6373069689926
-30.3064277819338
8.83774284361774
93.8927789802377
241.405809190244
430.603216571047
613.664579832287
756.29809446311
868.853976193486
992.297681801108
1148.62777001671
1305.0676425783
1390.74698896362
1352.06572972119
1193.5705200529
966.861420280235
723.251900872194
479.473840813405
226.144821733645
-38.7716244900254
-291.920781198038
-499.289080876195
-643.111501330766
-730.647569587274
-779.474247999419
-800.434278338098
-797.167812142507
-777.27857607226
-756.225765579793
-746.850323559953
-747.704289741248
-745.702990027823
-730.85309931113
-706.000718282313
-681.032785183377
-659.959880817652
-637.091818755235
-606.268813143892
-570.840262571366
-541.725631491597
-525.905631466185
-519.046929820186
-510.358766369115
-493.191443024967
-469.277652045593
-443.471515307551
-417.089160697519
-387.939609175462
-355.470993359523
-323.252437100495
-295.499532567333
-272.576978176578
-251.434900953359
-230.072047036328
-209.916869959528
-193.162483972866
-178.960817738348
-163.758175726475
-145.381444729263
-125.500240887415
-107.307501241215
-91.5326137028826
-75.9172120146761
-58.5856425804243
-40.6882228778333
-24.8609277311717
-11.6731602761222
1.17115795465924
15.8402321863535
31.5423659426384
45.5229322383238
56.5141248075835
66.1460218183342
76.6179976492695
87.8178343347796
97.6567899195313
105.053388303928
111.542059928045
119.380715451087
128.664419273364
137.215827691644
143.356950780126
147.953566078979
153.170907510033
159.689111916086
166.02475793987
170.719563150988
174.39192563685
178.921763189064
184.874007205411
190.566323476815
193.997500695539
195.136518331652
195.68795383648
196.788980554261
197.709413654457
197.159254757184
195.317351610232
193.806729053519
193.639522365965
193.865025285993
192.71679211847
189.773894160858
186.370840579836
183.834989814723
181.945033710443
179.599933076408
176.685400731139
174.541986695601
174.339421583865
175.480750761934
176.15727436062
175.375708435348
173.883792039929
172.896059416172
172.384728171994
171.189363371533
168.728006126231
165.963929714844
164.290312851621
163.769653629277
163.032657870802
160.978610721487
158.088494354055
155.706339656216
154.303669849584
153.010719139757
150.956073388009
148.552996369363
146.976633144167
146.511854008186
145.974853119508
144.019423341576
140.680997761664
137.216145185266
134.520413480451
132.212526407446
129.515650754686
126.65839802532
124.848493033504
124.796868396765
125.721713817926
126.16448111504
125.601029120205
124.818749551463
124.659427841892
124.834374234662
124.3503402275
122.910745360452
121.369262816027
120.596152504151
120.250552940768
119.106975598107
116.556876832865
113.364556989084
110.719566198045
108.823876359098
106.810822054488
104.011362973732
100.820832628016
97.9815618720913
95.2242200638702
91.1024529537191
84.3441503052603
75.0992234786791
64.60068543748
53.7650340222125
42.5279517582594
30.6474722790781
18.7607352076186
8.19287989860622
-0.296185520195126
-7.23035717635663
-13.6957263758899
-20.1143012317009
-26.0289719187946
-31.0391428742135
-35.5544009813459
-40.3735633596136
-45.7156979267263
-51.0418614006109
-55.9011928126912
-60.6400383723293
-66.0028450119426
-72.1503426172078
-78.4029480956559
-84.0443963931313
-89.10982135136
-94.1255788461539
-99.1957336630295
-103.714929861997
-107.133067650641
-109.746576431246
-112.403017406124
-115.431116376872
-118.16619009826
-119.707940400835
-119.961344870066
-119.651976938622
-119.353268162995
-118.84894059148
-117.686934172092
-116.174574976535
-115.437569194039
-116.358523398936
-118.676210453124
-121.351583633504
-123.714104647266
-125.955388450272
-128.44258733443
-130.871080104167
-132.442939245073
-132.855519101744
-132.778904844925
-133.146765656866
-134.126797067915
-135.05183958121
-135.348924553024
-135.238160493569
-135.327694875983
-135.706926523408
-135.783394836784
-135.089008572246
-133.966815644939
-133.184975252755
-132.932786941949
-132.481217049169
-130.951076448794
-128.224391343005
-124.887347666255
-121.372087544308
-117.479930957035
-112.907426963773
-108.029336929521
-103.831178483915
-100.994996805515
-99.2562312210931
-97.8116835065745
-96.2278493309828
-94.7152715633593
-93.524702903168
-92.3747852759147
-90.7219583098062
-88.503731587578
-86.3218029588702
-84.7648933691113
-83.7153684102052
-82.5145660161018
-80.7451313535505
-78.6096024449138
-76.4625404431946
-74.1962015842443
-71.355132363386
-67.8389403196284
-64.2205917615813
-61.1906091213361
-58.803645173446
-56.4945483163897
-53.8407483491031
-51.0775209296979
-48.7096795622444
-46.765723762611
-44.7121770608261
-42.1528924069227
-39.3634182954078
-36.8972956049294
-34.7308547508724
-32.0684949858756
-28.1209730992884
-22.9245027761161
-17.2097007092416
-11.5441799541958
-5.88457213724914
-0.0958808254307524
5.31315635433831
9.31042032319565
11.2852575206553
11.6867640087869
11.5626071050078
11.5581181463957
11.5701484974528
11.3705425679691
11.277029873424
11.9470852175105
13.5697100173315
15.5454426221716
17.1191862927472
18.1961059782653
19.3370924359269
20.9829851713972
22.9144531729067
24.5935728662955
25.867579325793
27.0823428185189
28.4864136954247
29.7679988830207
30.381428472898
30.2535460967591
29.9417252932553
30.0279282609122
30.5244805011022
31.0283281580502
31.3614486410983
31.8136875324326
32.6772596838112
33.7448807281428
34.5077402072913
34.8412378752053
35.2748788540918
36.4488322693104
38.4133877975838
40.6385425059194
42.6816140979752
44.6176268190221
46.6818492683481
48.6492038837629
49.8512460774536
49.8941807851888
49.1840946509251
48.5590859224761
48.4445120813062
48.5456494429315
48.3973251152395
48.0075717249961
47.7625021216733
47.7710533576332
47.5801397045687
46.6974310150212
45.276921151432
44.0779134668836
43.7230847030536
44.1604301657085
44.9409652649997
45.8652354208629
47.1216788687732
48.7792530257564
50.3952718109608
51.3513660842968
51.5359666926009
51.4850398196158
51.7650715058328
52.3575238415342
52.7951098029666
52.8155561332198
52.6370144494294
52.49448528539
52.0961484146846
50.7997656589571
48.3643694143782
45.3378466223291
42.5580243246248
40.3549803764095
38.4116921116957
36.3906995465144
34.4699445444522
33.0956939213905
32.3188112746924
31.6367797336658
30.5941728847817
29.3865429772923
28.6902865808307
28.9280258122902
29.8826752407986
31.089695901981
32.4256089492954
34.1038388711067
36.1305243479417
38.0171723620722
39.196927573438
39.6242277763926
39.7599113938243
39.9405394315043
39.9456447695695
39.3183646776722
37.998480319757
36.4180992447671
34.9400002041277
33.4159758020275
31.4966148938921
29.3067367888115
27.5635639089323
26.9018728942614
27.2073564607835
27.7808391633095
28.1095238513425
28.2624475497247
28.4499739619272
28.4072731238258
27.5008789506162
25.4878933609155
22.9502685049788
20.7919613787081
19.3733351884043
18.3243348952763
17.2097547017057
16.141993591304
15.5502049098935
15.4596065462474
15.2968261371488
14.5384460570931
13.3796799589508
12.5315439205685
12.3689290433143
12.4972115823911
12.2687407174867
11.5581010984635
10.7956618525938
10.2636422880723
9.64647641849716
8.48442488387348
6.95076007073014
5.889126508546
5.97590733018308
7.01593107835297
8.23371161752783
9.15793086579576
9.95802341879104
10.84598355348
11.4136512991218
10.8744939373386
8.97302799106414
6.39530316807544
4.10356366960811
2.38676999450117
0.787676671106631
-1.05665953212601
-2.78826103638667
-3.73486792991568
-3.79522275570773
-3.60982143730017
-3.76232632932827
-4.04525345933923
-3.76612675183151
-2.72597421594182
-1.61864559619074
-1.33324597928901
-2.04272209826552
-3.21043509285728
-4.4317621607106
-5.94839471105117
-8.14041034349158
-10.6898748040791
-12.5827435498838
-13.0407448217147
-12.2566145847601
-11.0418176352539
-9.87781668692298
-8.58431556091179
-6.95175738366004
-5.39336238394829
-4.66552449646679
-4.98262859898706
-5.70518395958499
-6.06117953263964
-6.01034414639479
-6.16789130317824
-6.93175229220545
-7.98492678431412
-8.81251592655293
-9.49319809642856
-10.6448675941619
-12.5465246394293
-14.6046938209243
-15.9295544477872
-16.3311795292732
-16.4632059951419
-16.9324625814247
-17.5421582071897
-17.654133013614
-17.162140897126
-16.737834901776
-16.9703278296229
-17.522208481298
-17.4633757593985
-16.4189024672813
-15.0677695794144
-14.3333802059434
-14.2980303702595
-14.2339679665238
-13.6742202674766
-13.0664774349514
-13.1003725753995
-13.5823648946326
-13.3976360598081
-11.7202378617008
-8.98215205932849
-6.36906437555788
-4.48430474235548
-2.88241956595628
-1.02060333422526
0.694642394868858
1.2164065269485
0.169120687310354
-1.56015504585186
-2.78481687944703
-3.35558030172784
-4.18904128570403
-5.9927686850483
-8.36679412806693
-10.4273877297164
-12.0641586246646
-14.1004892319843
-17.1015260775921
-20.410170824233
-22.7356539460362
-23.5830478833145
-23.6875391341552
-23.9117428091718
-24.0777445835953
-23.2693571163028
-21.1707102809449
-18.6319052226208
-16.7050982022045
-15.453756634245
-14.1303560256102
-12.4573666167192
-11.2628205034389
-11.6241656817415
-13.6986033476379
-16.7577035931034
-20.1523492790186
-23.5993207813297
-26.3002738835044
-26.4252356547398
-22.3370315455558
-14.4621219370133
-5.33905425888383
2.53997735342435
8.35750894752664
11.6390458742369
9.56281448456869
-2.83922579911024
-28.2546645523926
-62.7096185935619
-96.6274472782689
-121.057784112165
-132.793968958719
-133.418481297079
-124.742997723676
-107.176189380873
-82.5361582125754
-55.1232251609219
-25.7429529838022
16.290399639186
91.2587626919348
213.473097960683
375.064198817002
547.679978639998
704.553228373602
842.462958205405
979.5138875173
1127.95428321177
1268.55993913546
1354.21935847164
1341.83781494356
1222.8265086228
1024.13559454224
782.217133610862
518.575077768871
240.067596398816
-42.2328592262087
-301.575396998921
-506.640769372509
-643.25875876982
-722.705647583353
-768.084626644325
-794.207969044108
-801.574985035718
-787.456688291704
-758.411866358476
-729.454639162002
-712.155160585442
-706.104172257883
-702.508947803995
-694.141182162469
-680.194451404844
-662.802012029477
-642.159100242706
-617.004328326592
-588.631823358662
-561.710900883888
-539.962861357532
-522.110663391752
-503.478749736113
-481.36624704751
-457.490864234144
-434.66000902
-412.269643727313
-386.65752163387
-356.019172011539
-323.672313184705
-295.39113031715
-273.770229239553
-256.072379077334
-237.679963603918
-216.755966180862
-194.930794968856
-174.14630973209
-154.198553125727
-133.829315410406
-113.257222983646
-94.4069756007452
-78.5328021200857
-64.531433288492
-50.2473575044564
-35.0311464343852
-20.1944180324538
-6.87393370652835
5.74233357982922
19.4161074526599
34.4059302745069
48.8371308865564
60.8080829210599
70.5955671935067
80.2027433042333
90.8959200500823
101.860849263591
111.542952854112
119.771163831354
127.895544830228
136.882314729109
145.959348025535
153.581249911838
159.395327309353
164.626786465246
170.436695233708
176.45036614737
181.354900306081
184.706860476833
187.539548906162
190.997786665548
194.829556948836
197.711264828654
198.950286783233
199.331959339489
200.052175013085
201.191432194541
201.730335930101
201.027514520237
199.764983563906
199.114052982545
199.243544424016
199.141449832939
197.9682089284
196.151075400743
194.800114165484
194.247766753436
193.644596006765
192.123382723354
189.975573581479
188.286560119563
187.514741647708
186.878010495844
185.338706813601
182.889674632729
180.475162723651
178.680414910034
176.914732408837
174.136380781187
170.151931493738
165.809775640409
161.885389709808
158.150392167113
153.828277410079
148.80089018486
143.971675286914
140.328291868546
137.935862943933
136.124669451961
134.53273032561
133.574670415341
133.73734123031
134.693133799107
135.451694448019
135.371778368367
134.718800890599
134.080456261561
133.473582140868
132.350669823757
130.464471780155
128.371330289578
126.834020583533
125.878074712795
124.755135535154
122.88893094772
120.581281294413
118.567691002336
117.033214439288
115.416932411715
113.2860933532
111.120513516997
109.920727275594
110.067669252904
110.848684329268
111.232050510348
110.893925432217
110.216089374913
109.331842331441
107.526131004546
103.814508999096
97.9856972253856
90.7957223468211
83.091609089479
74.979846069851
66.0291282820176
56.1329961403762
45.8560956381313
35.8436483525153
26.127313784239
16.2575884940628
6.06222791660129
-3.98811941591553
-13.2654349662639
-21.6361608853582
-29.4102995040361
-36.7079759003267
-43.1608452752315
-48.3911184043349
-52.6224066653224
-56.5657173456606
-60.6916928661209
-64.8425050736596
-68.6999606387879
-72.4739958725895
-76.853746140955
-82.2296646297239
-88.1821904192755
-93.9165501710181
-99.0959068094964
-104.000515164813
-108.826717587997
-113.084304791367
-115.942810951384
-117.139711150546
-117.308597162728
-117.307226787834
-117.39214680952
-117.254541715759
-116.792185312716
-116.538918425675
-117.145394065697
-118.572773547047
-120.060666763815
-120.942702115132
-121.300229693412
-121.670138676461
-122.244671065202
-122.622419296594
-122.403978356039
-121.803607885753
-121.440859121604
-121.570136783553
-121.750375239366
-121.383514298051
-120.428170288548
-119.391826342713
-118.660089034221
-118.06326992916
-117.222223431924
-116.167495725183
-115.383125310567
-115.215973748662
-115.439172475309
-115.542681600191
-115.356081288493
-115.185735498425
-115.314135924288
-115.551546723215
-115.426498725693
-114.719231500653
-113.588408929008
-112.12510741972
-109.983425187545
-106.66170882685
-102.128124718082
-96.9867344009051
-91.9545133581335
-87.3138453996467
-83.0203671656711
-79.2500894091061
-76.5604491909874
-75.3525225538929
-75.2942011082482
-75.493740137832
-75.2888245757491
-74.7273179128442
-74.2003680554054
-73.7589075219821
-73.0130537814128
-71.7099597020505
-70.1740710132094
-68.9743751620123
-68.2137755326947
-67.3546871442771
-65.8167370663348
-63.5967591221685
-61.1551880068305
-58.7772573934388
-56.272503803063
-53.3724745540533
-50.221705898966
-47.2332647225824
-44.4632305940904
-41.3560699752439
-37.2689033120551
-32.1653889669555
-26.629769131696
-21.2234082321827
-16.0465141830111
-11.0605195547159
-6.67277048061884
-3.69101043988731
-2.57238266508591
-2.86373847583733
-3.56259268572938
-3.99976494621827
-4.20129582331895
-4.36498213298031
-4.21412487011357
-3.11367000123257
-0.804765406330599
2.21880239711622
5.21934892063988
7.9921765169485
10.9426726453651
14.3889650134985
17.9922297592671
21.0253654663462
23.1060695636559
24.4580815202828
25.4260046737379
25.9527235734688
25.741510943684
24.8778843085881
24.04864476465
24.0070580353803
24.9106598710794
26.3181143463845
27.7819927171876
29.2441010444015
30.7717264149731
32.0917277660754
32.6492983937512
32.1903904738484
31.1260519752709
30.178276850579
29.7155759678157
29.5668413446604
29.4663898767779
29.4838269026671
29.8759047661748
30.6200111376882
31.3305374902184
31.730697496413
32.0745261744455
32.9417192522441
34.6343420926967
36.9179286951166
39.3892903958461
41.9378793972299
44.6839734758727
47.5251452783712
49.9827437217105
51.6435270216046
52.6601757842688
53.6330678089453
54.9648650364514
56.461329345724
57.642967422182
58.3272873553731
58.7232816153869
58.9593770071284
58.737421168701
57.6413424716752
55.7421199658924
53.7056336451745
52.213922764724
51.3751452628216
50.8014443725212
50.1827259999664
49.5931082373193
49.1871338308854
48.7859895005413
47.9904665740569
46.7180460273023
45.4485989145646
44.8057308619431
44.9512583808242
45.5059106343084
46.0267022418608
46.3818544807436
46.5715336564495
46.3416879306255
45.2353983900762
43.1136557648385
40.4840252754418
38.1546060073936
36.5729314298205
35.6086003695504
34.9631708628912
34.5997334877075
34.6206956554349
34.8222583186482
34.6305074454765
33.6210449307963
32.0054351797314
30.44157901029
29.3595370372267
28.6060235785842
27.792794064086
26.8326782993813
25.9468869304323
25.1817841056642
24.1643694834662
22.5165392733944
20.4388617357242
18.6830390927321
17.8754860356344
17.9775596486464
18.4930716909242
19.0862372430646
19.7919863283462
20.6043830898995
21.0989215239533
20.7110849670182
19.3929182704542
17.803149894518
16.7290344180396
16.3994470505965
16.4749257987513
16.6284114401695
16.9060267629398
17.4210512614877
17.8796533682428
17.6875684456592
16.5981341773701
15.0862867377959
13.9234358632546
13.4298305588223
13.2866087636506
13.0655875960828
12.7321809967453
12.4767156552452
12.1796584920736
11.3350998830895
9.63952615951967
7.51714590088518
5.85956275592109
5.22996471273171
5.45838294751217
6.04853197876348
6.79221856535424
7.78519224736384
8.90432259896622
9.56816341215684
9.23147108249802
8.04667796468599
6.82656467832856
6.28951449642334
6.46930561323306
6.94749556197697
7.51247568259588
8.34690455736679
9.53886046437543
10.6598473608193
11.0806469897683
10.6931108296249
10.1104840379767
10.0412603044577
10.572338386815
11.1982651243051
11.4714276689794
11.392118206023
11.0835830279987
10.3028479986611
8.56118599749379
5.7723782842329
2.57481447589165
-0.15745512856184
-2.06223009364912
-3.41440215455651
-4.56532840507771
-5.50145900970301
-6.08982770127929
-6.57407609194443
-7.49935934766136
-9.03120464903852
-10.5380770741383
-11.0694142903679
-10.2349225481161
-8.45603541094535
-6.35468969212467
-4.1420443339687
-1.81232683269117
0.201276411424841
0.94893379126431
-0.227252054300367
-2.92183434379879
-5.93356224591759
-8.32367402422092
-10.0317235746916
-11.3923931852691
-12.3059997878089
-12.221669966897
-10.9603823199056
-9.22923053284158
-8.03225958468327
-7.63261949509356
-7.3631317517739
-6.54264429588373
-5.3606368615303
-4.65252016582612
-4.92192251442206
-5.90074432068048
-7.16630190854613
-8.90192427228622
-11.7020259093061
-15.628493970325
-19.7768808030974
-22.9933911501579
-24.8993197245342
-25.9889081621342
-26.7815753337508
-27.210175117636
-27.0229623117124
-26.5359530855215
-26.5604990524027
-27.4635002126326
-28.5720255536898
-28.7807860357019
-27.6748158518487
-25.7919069465943
-23.7671136506967
-21.558508391534
-18.7969796166107
-15.7271678507757
-13.3388333894985
-12.3458463242767
-12.2756412511398
-11.9042204713136
-10.5682759312604
-8.73650895572568
-7.18372186102621
-5.94131073434133
-4.45483206425502
-2.69523907323956
-1.60692931477778
-2.12226539787873
-3.95116251309155
-5.78402168954047
-6.74970034605009
-7.29063580894143
-8.34643926050538
-9.97955823487225
-11.3328113776192
-11.9881195117621
-12.8015670979296
-14.8871128479817
-17.9443616882757
-20.1960978452378
-20.2209697431277
-18.4365943320054
-16.3355009714661
-14.5079949148881
-12.1502756238859
-8.79507324206929
-5.88730239352799
-5.7930482659018
-9.17595342611446
-14.0627588600026
-17.9798904860442
-20.5667581542392
-23.3071569126098
-26.7315903291062
-28.8970819350607
-27.434271739647
-22.6937144678722
-17.7929779939543
-15.2371390837876
-14.3568944045415
-12.8839116127774
-10.4890799375015
-9.34976533479147
-10.8280809483743
-12.9747947044634
-12.8665786648228
-11.0245758738791
-11.5020379519827
-16.6731358930344
-23.8550144488264
-29.895148539122
-38.8977068198584
-61.1553927928458
-100.049927394989
-140.561613631549
-156.512943024453
-134.575334978731
-90.331561327085
-54.1636963010371
-35.9276595856489
-5.31963010362122
85.2614760551712
252.242945162505
455.871860044242
629.667159012508
740.401467630503
819.360180967354
930.217750293198
1101.61986636778
1289.50388445134
1406.23800265613
1388.79395820667
1242.31447689664
1023.18604156989
785.60366247691
545.884318489845
292.832412461392
23.0117349007322
-240.599348059989
-463.285587301113
-625.794246850372
-733.823296371382
-803.480096219306
-842.865434841633
-850.240423529336
-827.215096704827
-788.501692790095
-755.768902020903
-742.222239129169
-744.159662311459
-747.000410414207
-738.26948770865
-715.246442917527
-682.998714507497
-648.153409156697
-615.105889069012
-585.939306160092
-561.262961503206
-540.266355242868
-520.962389857629
-501.493648904137
-481.27484031317
-460.429413346415
-438.269228961817
-413.158932478128
-384.445607554334
-354.202469687334
-326.297743079335
-303.342438395868
-284.680862862882
-267.489722092677
-249.574781534527
-230.795009518082
-212.004645241692
-193.342480238126
-174.062965601569
-153.808770698779
-133.404341251756
-114.085906940289
-96.2122710296637
-79.0879521223346
-61.9825616506127
-44.9290381373283
-28.3471337779453
-12.1868950009735
4.12951198410954
20.8598322535287
37.3467506933245
52.510276092257
65.8380796101724
77.6720640495793
88.5458521258772
98.5287589605914
107.407645709206
115.336540878627
122.953924055556
130.726487270752
138.367732398623
145.129576292526
150.647602718693
155.315436530311
159.780496562372
164.25929554561
168.527648444643
172.494485574542
176.499799703119
180.886969434752
185.410325144479
189.29943711124
191.9734518808
193.571353263492
194.703178906701
195.797289473059
196.860302731125
197.849669447918
199.036550309008
200.787550792071
203.018097016796
205.059457923501
206.189582579257
206.247409375196
205.648652899037
204.857954779878
203.99271809746
202.976023156883
201.907817133437
201.069710512338
200.514145966453
199.778703957978
198.140144011691
195.162383977028
190.95218652421
185.919756010645
180.419489240851
174.691632012446
169.04942407884
163.930515538453
159.667192157478
156.261682769009
153.475767404668
151.136066251985
149.281606572997
148.005680903918
147.249931876438
146.840386616549
146.683601427304
146.79548823011
147.071562309511
147.109512759282
146.394352898543
144.710164254246
142.320939253051
139.707221753983
137.169217641953
134.747744619163
132.489375701246
130.637039196691
129.438495795463
128.792951388587
128.217225982129
127.255327306167
125.913651506409
124.652501026378
123.967805652937
124.036985290296
124.760861433082
126.024305291957
127.769976181173
129.788670269516
131.545922394366
132.347645724182
131.73205519297
129.695834693447
126.557728447721
122.664555404674
118.254753843747
113.521958588626
108.658957752395
103.745447955867
98.6218079104098
92.9637354571506
86.5335594865326
79.3546666562662
71.6425745129899
63.6135546497582
55.4042988464084
47.1428394591029
38.9902887226596
31.0288898358202
23.1226249499216
14.9676856725647
6.33671077956674
-2.7285032233161
-11.9751810829918
-21.1554914711812
-30.1396991876394
-38.8331201406188
-47.0762486659428
-54.7202083705709
-61.8046939791203
-68.5817579693523
-75.2895627978682
-81.8967735721045
-88.1025697147891
-93.5911122437657
-98.2523149289041
-102.149323605605
-105.34352370046
-107.854539259272
-109.824032980679
-111.643891675819
-113.811157098393
-116.598374378352
-119.872830500861
-123.248263381503
-126.386225463869
-129.127312945318
-131.378772680979
-132.990846169623
-133.835994593281
-134.002801999487
-133.830867016972
-133.688484298003
-133.710462341959
-133.770492789585
-133.691278817413
-133.435287578375
-133.081724944993
-132.679290034778
-132.201157653088
-131.659711296303
-131.203836946735
-131.033682523587
-131.206508071474
-131.557211729241
-131.824504077488
-131.832918549445
-131.538051738175
-130.936801979401
-130.009005745932
-128.779445633747
-127.389673863703
-126.030606388253
-124.770951485715
-123.477115502774
-121.931762798226
-120.022505190466
-117.79244053674
-115.326491623801
-112.655019045188
-109.815916708012
-106.980568270359
-104.433919247078
-102.371194578641
-100.722220407633
-99.213357361165
-97.6102335331709
-95.8776524471982
-94.1044320870958
-92.3295808447979
-90.5084110152006
-88.6496174788659
-86.9112338956569
-85.4839350733547
-84.3671792912935
-83.3017709894617
-81.9527049512587
-80.145399350136
-77.9077182816048
-75.3173417613963
-72.3835267243503
-69.1189213764639
-65.685784769278
-62.3864276204728
-59.459173227296
-56.8947925380615
-54.4807763109414
-52.0183539407017
-49.463348819361
-46.8488123931593
-44.1131120820762
-41.0560352560379
-37.4736301356495
-33.3080480023664
-28.649983913461
-23.6234264787061
-18.3156311150806
-12.8395053122324
-7.44696426316034
-2.55678131197192
1.34168489291893
3.83706976523754
4.71569804639996
4.02418011870457
2.07062097672949
-0.645519554919584
-3.55744700023987
-6.13898244091307
-7.93782797009267
-8.57239998962128
-7.79212653531257
-5.61416459509197
-2.39676703323143
1.29543425054232
4.97600764077539
8.42365326777426
11.6032891101843
14.4451715153197
16.7678674877307
18.4472167496445
19.6127201948519
20.5966046604039
21.6582829156093
22.7967709003836
23.8725535071528
24.8845203295835
26.0525990997093
27.595687476317
29.475619272782
31.421947983805
33.201466876077
34.7953409454185
36.2784631639999
37.5880242861541
38.512010476145
38.9349069253148
39.0283771560909
39.1288230653844
39.438944864444
39.9155936255227
40.4646629198957
41.1659459219775
42.2164965738
43.6593259789731
45.261083635741
46.7213926242481
47.9643703799799
49.1443007946958
50.3585971552749
51.4413128187254
52.1126101195795
52.3014180600651
52.2301618013599
52.1518567065453
52.0753551121532
51.8271843669119
51.3595968151214
50.8927059168202
50.6931929429622
50.7662029247393
50.8552075759427
50.752717665263
50.5307358518839
50.4120280457646
50.4694654344669
50.5511920770974
50.5162564896653
50.4493054378932
50.5545521693314
50.8624662723286
51.1389029717213
51.1235218245489
50.7916668911022
50.3080208971148
49.7557032913055
49.0235834138739
48.0118752493267
46.8676731160748
45.8988943254655
45.2411174419041
44.705351694871
44.0262776860044
43.2103034897256
42.5360482966122
42.2029050791791
42.09170124238
41.9705262609617
41.8943790216309
42.2648840295296
43.4256147847446
45.2648896458609
47.3119415727858
49.2062134396163
50.9560069945066
52.6759659560712
54.1600528575175
54.8589072624474
54.3185488408788
52.5560590006402
49.9343038372982
46.7295201177192
42.9495507534883
38.604376519629
34.0332320775519
29.8271025791066
26.417980267635
23.8310091563215
21.8692186640048
20.4415968342016
19.5937915379076
19.2381143328268
19.0045834482562
18.476050254024
17.5455715182915
16.4512410629296
15.4522635815449
14.5685527724188
13.7055807251436
12.9627249593664
12.6762203249261
13.1064884764116
14.1642046929545
15.5309757119734
17.0171400459559
18.6927179715827
20.6340422703506
22.6376509948116
24.287818981575
25.2864682553968
25.6116155812908
25.3217226677975
24.3187181926203
22.4383242634251
19.7681541747992
16.7434529094515
13.8370978175329
11.2054417381982
8.73232786151978
6.39297879724871
4.42403531045827
3.04162983756494
2.08306115575867
1.1056064111813
-0.0985706326357381
-1.19220145103248
-1.60789822550894
-1.14006275663201
-0.107431174530468
1.08399721651436
2.38875119856039
3.99096605820242
5.77644816408073
7.13576653861787
7.42523854822456
6.56609093070684
5.06204141917064
3.42899688024227
1.74533378033113
-0.164518420484068
-2.23616534326919
-4.0657815002391
-5.35231017003477
-6.28320135056118
-7.32364314005611
-8.65336028651492
-9.96490928633057
-10.8688643430046
-11.3639582284473
-11.7655137753485
-12.2228612317746
-12.5067637007669
-12.3719874262817
-12.0011200324317
-11.8946263440824
-12.2993093189829
-12.9026231508527
-13.2023256851411
-13.0884695199431
-12.8987253916924
-12.9046729098834
-12.9390680753723
-12.6769331175506
-12.1889957775551
-11.9899119556586
-12.4571320468783
-13.3493423961872
-14.0623616393252
-14.3163037471629
-14.4064120283797
-14.7248740976819
-15.2242244010085
-15.5628135780158
-15.7393246684254
-16.3244626994834
-17.8918273222143
-20.317880214493
-22.8482287223134
-24.8742275403955
-26.4535445098837
-27.9435551765667
-29.2796464458156
-29.8985857019381
-29.4473602162387
-28.3472146572904
-27.4234888146001
-27.01205218716
-26.6534355875132
-25.7533277627502
-24.3581679941063
-23.0659206459984
-22.2321626035558
-21.5458179800557
-20.5389182604313
-19.3390470575517
-18.6370663902393
-18.8775546481498
-19.7170610844694
-20.455040266396
-20.867541989442
-21.3543978176278
-22.2387255630245
-23.1947651347217
-23.5993548111394
-23.336694292481
-22.9398547883169
-22.824667040353
-22.6188324119799
-21.5209344869003
-19.2789005987105
-16.5270826392171
-14.0321872035007
-11.8364260326804
-9.43722064868894
-6.76231148687707
-4.59793245848194
-3.80460100834661
-4.270312861597
-4.9716596472492
-5.12705561615617
-5.01000506084449
-5.4152346635759
-6.51514050208049
-7.62861344615095
-8.20024298344899
-8.65617521258429
-9.93528240505708
-12.2495276570414
-14.6915204095838
-16.2381264425
-16.8733591379194
-17.3892612751136
-18.1680702419244
-18.6019443888613
-17.9464199550646
-16.4463674091743
-15.1447894059869
-14.5222102742149
-13.7409772653553
-11.5690874685864
-7.8716487271396
-3.76224984484941
-0.220630062541574
2.9991968933565
6.71292211522517
10.7773942899969
13.7947147837762
14.5860214217872
13.604350338676
12.4306610100704
11.9351621111042
11.4283793744697
9.84821599482382
7.3617286752438
5.21919434890088
4.04018352740189
2.85625461776813
0.292115926415647
-3.58238974569743
-7.17315474186609
-9.22621656367954
-10.2336555770396
-11.5459010455295
-13.3842418219894
-14.4357852446647
-13.6232779095597
-11.6996675282331
-10.4721324255979
-10.591652364134
-10.8065652893597
-9.69215034184714
-7.58617694697327
-6.18019537476435
-6.35626720519404
-7.19018718730433
-7.37019649583144
-6.88536561523401
-6.47934345803901
-5.6761583365442
-2.53707405098544
3.89748614672584
11.5381668943719
16.6730219669867
17.4457408201402
14.7799109323882
9.26806820424767
-1.62758917986498
-21.3251941060826
-48.7235324006338
-76.823437291289
-98.4477296121681
-112.692729584222
-123.473162565537
-131.174299059762
-128.648656714331
-108.966106184056
-76.5680966139371
-45.3815071440805
-20.7057752308412
16.185357660203
98.562637907443
242.848558619109
426.495476247209
602.85433200349
743.257974702597
863.643801279286
1004.05806879565
1177.68249086611
1341.27107344356
1420.63348913953
1369.24051671636
1203.36943019032
980.95236210964
748.497366914932
510.45572696235
247.893524707576
-39.7327536528356
-317.12616644175
-537.114025638424
-677.864051103865
-754.339046527987
-796.269270071665
-820.152899388305
-824.011483999862
-804.336418864752
-770.977841842094
-742.55826517224
-730.023155491853
-728.46013259111
-725.231144262429
-713.247885411458
-694.729146383372
-674.288547417596
-652.255658882254
-626.082740323187
-595.97883909995
-566.254304697567
-540.810912546896
-519.206077160489
-498.312393240911
-476.702271912925
-455.581203602835
-435.420727240253
-413.651079101901
-387.312371545818
-357.51805140423
-329.57644466582
-307.852863154274
-291.217429584814
-274.45311415796
-253.85532379569
-230.440193417049
-207.51438368055
-186.298684640716
-165.111827979946
-142.52786624639
-119.863516287771
-99.6860138114333
-82.5350506940302
-66.3252980708176
-49.1694671071533
-31.8056838134197
-16.4370448184826
-3.59783938813108
8.77485731858111
22.8517517430157
38.2680478623865
52.7151760139334
64.8971640901381
75.987335176449
87.8160470198066
100.311907733621
111.574221962211
120.391639985581
127.82496870825
135.789275178105
144.54723889414
152.40416796969
157.953972659562
161.911677134692
166.19620513441
171.559409880053
176.880871481211
180.951926285511
184.280915935515
188.494093183619
194.136600499467
199.786168046521
203.643546249259
205.530335598416
206.760375887789
208.187860412362
209.082916436829
208.291395594863
206.060637951957
204.043721406901
203.431986593855
203.642794102432
203.246290236936
201.876983370292
200.630756075681
200.493640109778
200.939369867368
200.559492381919
198.866472544156
196.864019184468
195.631370375105
194.801906707833
192.950544121075
189.38810662517
185.027635819791
181.231088362094
178.190257092623
174.955190887218
170.999968587975
167.178352736924
164.753060253933
163.754257548839
162.826621610577
160.780587245479
157.849929702258
155.080551396282
152.745875388128
149.932274808979
145.840265445807
141.044738705031
136.999381209408
134.389504071186
132.46280414038
130.189760617832
127.715252317859
126.204096318307
126.310484115341
127.303038196079
127.99244988839
128.22372119436
128.957689627595
130.836598956565
133.132677997932
134.481773807203
134.468849528592
134.027214746151
134.173279400176
134.758615639091
134.852553314101
134.190169575518
133.713833015793
134.442973196418
136.123313320936
137.416489157893
137.396175196592
136.438498929359
135.41597590752
134.322442768052
132.161269988023
128.226970562735
123.06482380092
117.823445132447
112.830218526594
107.23113575248
100.136207868614
91.7606880745182
83.1022595444544
74.6399830506332
65.8015648293224
55.8852576957261
45.1788925033423
34.7664307098695
25.2628839205783
16.1389785725747
6.51563433829469
-3.62530240062353
-13.396502223144
-22.1531615515783
-30.2922643815769
-38.6483607846005
-47.3066295219579
-55.4255067043288
-62.3152841228279
-68.3489368363544
-74.4980863949647
-81.0960132572708
-87.4361687752135
-92.6993682814677
-96.9561771312873
-100.924139768618
-104.843420237062
-108.019902555592
-109.694534495947
-110.116959875379
-110.400977676526
-111.327519141469
-112.638915563025
-113.710006230606
-114.655715753743
-116.35972950411
-119.352099338058
-123.018128381144
-126.220711365412
-128.573558817568
-130.738809854566
-133.38600865677
-136.190209366285
-138.182768703044
-138.985513610339
-139.299464532236
-140.002353226024
-141.037506436716
-141.547054301357
-141.064957026124
-140.196179722128
-139.889066746253
-140.255053475797
-140.473710800956
-139.884708566861
-138.812889394596
-138.044292084844
-137.668066326563
-136.844211200017
-134.835340213457
-131.966051148766
-129.255720071856
-127.202706868166
-125.300714605064
-122.893706014912
-120.211415282874
-118.195462722
-117.327164321615
-116.99164286684
-116.218396587775
-114.841879199061
-113.586288730744
-112.99587833813
-112.63596816566
-111.610965261842
-109.700087121623
-107.604612065108
-105.984592556029
-104.562681572828
-102.476813252161
-99.409199177436
-95.9981251145786
-92.9958427247017
-90.2968715434707
-87.1264717570879
-83.133151401602
-78.9223887360995
-75.3037732609889
-72.2331336175271
-68.8527172794073
-64.5984874367308
-59.9377094093561
-55.7779701201484
-52.3295213275508
-48.9193971526595
-45.0027370753933
-41.0367926800668
-38.0510863319982
-36.4459003555263
-35.5574935796998
-34.5294318323386
-33.3381290528373
-32.6459358866404
-32.70877491986
-32.801270143388
-31.9308299437721
-29.9197202204603
-27.464742940067
-25.1349310746796
-22.6468160956493
-19.3595527839506
-15.306345910507
-11.3760682759261
-8.39001584118502
-6.27150007940227
-4.36470619245819
-2.43158087999252
-0.974575144746977
-0.45524616081062
-0.46487035166946
0.0216674875304657
1.60520265107305
3.96281497104528
6.49121772530206
9.18681486625681
12.5716533370951
16.7801633124993
21.0670448325017
24.4504294276223
26.6934591785049
28.3673347012224
29.947346574788
31.163668705589
31.4676856585058
30.9628361611865
30.5081123954676
30.8007944276505
31.6260826147772
32.2711333585139
32.5670819131396
33.1770888896852
34.7349830087779
36.9705918164226
38.9981153028108
40.4132573491103
41.7575852397726
43.7227991229358
46.134623097948
48.073661812359
49.0098817685718
49.4776159047998
50.3886443668312
51.8521332863178
53.0275164460924
53.2018416280112
52.688015050292
52.3747440912042
52.5280999691695
52.4370503701527
51.4016940004867
49.7995176962774
48.8341316127098
49.2536881561415
50.6404713375033
52.1178800469888
53.4901613880233
55.3071594435289
57.7938928115472
60.0960778000133
60.8960050817591
59.6794472872809
57.0994788941918
54.0539022338335
50.7186028204521
46.7517580952791
42.2904390410069
38.3235723433578
35.8852785140193
35.0927728221995
35.2550994441671
35.8634185930672
37.1405940929839
39.4677854425396
42.5311395002879
45.3920940786984
47.4150913140916
48.8135863316936
50.0870431099204
51.1289408445922
51.2458151251011
50.0965941332349
48.2843990800046
46.7504219594467
45.712577827097
44.534531827956
42.7053908504531
40.6284369659039
39.1461101342397
38.4096529821677
37.6189213173236
36.0539992405234
34.1045259283836
32.9409594094741
33.1958208782743
34.3063561589236
35.323558438595
36.0984953736275
37.2838592572772
39.1631340501901
40.8864220008086
41.1908201553563
39.7533116390945
37.4812750807984
35.3946958568287
33.5401091103585
31.2802173101816
28.4745983826321
25.9159150439991
24.4118447174832
23.7314749093283
22.8416476215915
21.169095852096
19.2712839999448
18.0705503468887
17.6828263905595
17.3761711459234
16.6680183469263
16.0464742601922
16.3096896380233
17.3871583946641
18.2449029012787
18.07463087336
17.2594235373817
16.8632023553758
17.3007658768006
17.9063567203822
17.9267706496926
17.5824187446198
17.7524083461705
18.6750803017608
19.3957124868705
18.7533762043425
16.6923078775838
14.241874303307
12.2228355000804
10.3671618633485
7.95492862102786
5.05569061287928
2.67400080892135
1.57175136748447
1.31769145111923
0.838285548328166
-0.227335111897355
-1.12732278782417
-1.05644486703821
-0.26457909467914
0.24047833011603
-0.0276468692903364
-0.499375734484154
-0.478699224747302
-0.275762798817681
-0.975434313956207
-3.07668142762768
-5.76763310852837
-7.80983154876063
-8.90971165721548
-9.82113128095888
-11.1028474475826
-12.2350082319715
-12.3115433750103
-11.3994878056741
-10.7136631376038
-11.2789746714639
-12.7572279035613
-13.9432957795329
-14.2805095555174
-14.4308587646014
-15.1999538700598
-16.2979955498034
-16.6290017911839
-15.750416710074
-14.5494868084074
-14.1810769312656
-14.612065267122
-14.6738034255328
-13.5682447254677
-11.8675786725431
-10.7188110700923
-10.3439300504855
-9.86190114044115
-8.68622179502752
-7.60628035339826
-8.01697679059551
-10.2030465154833
-12.896870318005
-14.7289333967851
-15.7333145739633
-16.9919597616149
-18.9418855615232
-20.633942593241
-20.971801064088
-20.3030158243463
-20.1920966868484
-21.5486644934282
-23.4707265970484
-24.3002209427971
-23.5555054609029
-22.2902657550886
-21.4993998521199
-20.7454007156627
-18.8610254180079
-15.8058624116685
-13.1748069550288
-12.5795438023514
-13.9097690141579
-15.6675820397336
-16.8932655067191
-18.1656539623537
-20.4326179685949
-23.3187510511566
-25.2430782717624
-25.2515369409748
-24.1500956534369
-23.4099873117049
-23.2574847055457
-22.4582173588004
-20.0784798188333
-16.8862480369563
-14.5270193507914
-13.5695407945512
-13.0314848926929
-12.0191209811459
-11.2527945906813
-12.3408106005311
-15.6549554934282
-19.5991579352961
-22.3145461629716
-23.6731316594208
-25.0051289279293
-26.9808067664547
-28.5196922597074
-28.2420523758318
-26.552365829099
-25.5022101218817
-26.4535135378688
-28.5081381239601
-29.7503020608149
-29.6924393901535
-29.7266854364999
-31.0139967345313
-32.6601476147
-32.6819127943692
-30.5459761257042
-27.8875768446794
-26.3548262044152
-25.3644031945692
-22.7783497729949
-17.7045812123131
-11.7651407676314
-7.12361871440777
-3.84803178679836
-0.132192516489294
4.8646244318871
9.36618491985801
