Value(μV)
-135.219173230642
-233.321281231336
-258.576131604353
-226.141828008369
-183.28086855862
-163.868279798788
-164.66854318259
-161.48536846113
-140.966155875106
-112.62239888652
-93.1110463936695
-85.995953134521
-80.6653672901501
-68.0830472598463
-51.9410158426838
-42.4796389647659
-42.7493620959671
-45.0287623243459
-40.7746352287999
-30.6355348466874
-22.3518508440112
-20.3608132922162
-20.6641721671216
-16.6887629385904
-7.74023113802522
0.782129849883631
4.98791113892142
7.6921466074015
14.7437477346544
27.6154732468217
41.7299201701167
52.184317694234
59.2269559996077
66.7943763726857
76.6746435687448
86.1510906019792
91.9027738610467
94.6599055746777
98.4120676783854
105.306335989298
112.908834222538
117.223892303988
117.398759535984
116.143230654763
115.706867330342
114.944543099815
111.267261053573
104.700720349835
98.5615469831485
95.7831296985351
95.5974202842498
94.7557795387376
91.621877067028
87.9522363363794
86.3691833690651
87.0606986657763
87.9648359066552
87.9434098729708
88.5872797560136
92.247102979557
98.8786240640752
105.769153499594
110.419433700595
112.886143745602
114.824388190657
116.838793655488
117.746070558988
116.535253006992
114.126454291587
112.379046057684
111.591122858066
109.834131112367
105.099528826825
97.5785228961472
89.278623661276
81.6908123431855
74.6799108612381
67.9703335557311
63.0016792657113
62.34552337185
67.0994358234994
75.460056717484
84.3398607676725
92.1323389021773
99.3871312543474
106.905031763576
113.995648538424
119.216832398623
122.506203192783
125.725598644187
130.700078000327
137.107560587296
142.808367310331
146.144989796364
147.368439408396
147.63824728792
147.190998183957
145.170534536813
141.223474807272
136.544827332736
132.793568631484
130.15507520147
127.015054958094
121.686299274179
114.061647405872
105.268900215219
96.0246848888199
85.9619323714934
74.7453238250907
63.3132122949097
53.3870365133644
45.7009918121421
39.1545772541673
31.9808992479536
23.5144158807183
14.4808670730723
5.70338080939098
-2.90817384245288
-11.7796975815096
-20.4511564855054
-27.5611075398445
-32.26605163452
-35.3508409326379
-38.5863673419849
-43.0773695462743
-48.5645983430246
-54.3459465954718
-60.4085069185742
-67.2273693463658
-74.6001791205764
-81.2648849423659
-86.046678517736
-89.2167749029224
-92.3497435778985
-96.788746814095
-102.526802787033
-108.715522033737
-114.932302086347
-121.474103455542
-128.366231643665
-134.560491968128
-138.591477542657
-140.038062843495
-140.016368515368
-140.076331031506
-140.815980658079
-141.793599913967
-142.623550425593
-143.700824429832
-145.624128891304
-148.181335385074
-150.355869793608
-151.459161098261
-151.98543244933
-153.08276841531
-155.242925193482
-157.744738666267
-159.402899655612
-159.591075472019
-158.32764414294
-155.556098271801
-150.805339456378
-143.836654008396
-135.497101621294
-127.633322454172
-122.024040263314
-119.424835974283
-119.584042243954
-121.8872949542
-125.690438974723
-130.065835644071
-133.603925169496
-134.841281758543
-132.993484159852
-128.20702312392
-121.119543544777
-112.326945444141
-102.330676155521
-91.7899102566445
-81.5063690763874
-72.0495600965801
-63.5556078901959
-56.0663554316428
-50.0082786469917
-46.1235619937667
-44.8278611238092
-45.7399832797308
-47.9570547596218
-50.7154946499079
-53.6075566616077
-56.1611129961098
-57.504071716514
-56.7816358781687
-53.9852455101942
-50.192454816502
-46.8184442426921
-44.6341306551004
-43.5608804838069
-43.2830804711289
-43.7620671797309
-44.9936815197697
-46.449263406027
-47.1175705359201
-46.2883025223199
-44.2019478940671
-41.7741628959296
-39.7018537144158
-37.9747336263208
-36.2524751248646
-34.4776988335383
-32.8853058187858
-31.4671325843522
-29.7348424398363
-27.2423555269811
-24.2833381078754
-21.8588624948671
-20.8655450095056
-21.4014112844612
-22.9174662082305
-24.8914262042081
-27.1242773181172
-29.3702849544385
-30.9624232005435
-31.1177463979437
-29.6740773103707
-27.3613785126784
-25.2197183503945
-23.7988217902148
-22.9993026069271
-22.5739382026788
-22.5108426434047
-22.7918559377206
-22.9549464669632
-22.2097259056504
-20.1122362489245
-16.987745873324
-13.5202518888992
-9.95712784207303
-5.87969161444027
-0.788899167311328
5.2649810878889
11.7988739593227
18.5357044976366
25.6203419921959
33.0119163383728
39.7921866633708
44.3792488115594
45.6048019277439
43.5524323215099
39.2973253084999
33.9544894555057
28.173367401349
22.5298739441156
18.062889489336
16.0161371260198
16.9064826685704
19.9895775794879
23.8161694296568
27.3223127067267
30.3152925023222
32.9933219594056
35.2725848214952
36.7943781714847
37.501354108243
37.9089096774142
38.6182088675388
39.6398334762592
40.3851819493028
40.367916739912
39.7859754046396
39.3239412099517
39.482442795523
40.2675197350353
41.5256033463919
43.3444425893784
45.8903774959287
48.8615455165805
51.325230705205
52.2874469232546
51.4371225775298
49.269783254199
46.5268826500403
43.6600723261424
40.8888117377394
38.5923070600589
37.3512978014989
37.4668486805341
38.5406319435302
39.7023454323094
40.3013613763373
40.321216683532
40.1280842672302
39.9596127408534
39.7893159590148
39.6198824456011
39.6716886349331
40.114125256932
40.6674313699011
40.6471380828882
39.4847369742224
37.1418366769839
33.9619946211053
30.21542913077
25.9497351438599
21.2938460078766
16.7060973825357
12.7128021952481
9.40375356052253
6.36629448856883
3.23984617456801
0.261353373980288
-1.87860000805303
-2.71581507444741
-2.40462583517627
-1.37472303258736
0.23202956487993
2.53852486619397
5.31643816655333
7.6395600636335
8.43003610601228
7.4033937545715
5.33650956376653
3.33781050095399
1.98973243893813
1.34933382193728
1.65784643913784
3.66748962885097
7.98758192402567
14.1898721660183
20.8632891095714
26.7156687346098
31.5129318900963
35.7983903075355
39.8113127239192
42.9881217325053
44.6525333596605
44.9554090624153
44.7851849701322
44.6915044510924
44.1688467559466
42.2440495930367
38.6818598821969
34.3347072789388
30.2328130446184
26.5813971352718
22.9001826284299
19.0358645261919
15.6583771091997
13.5669080570135
12.7333586429932
12.3833895974736
12.0504073434483
12.2265806789721
13.7281888352207
16.5732394828071
19.8237729250352
22.5805286996934
24.7894234710086
26.781177739801
28.2143581847434
27.9902015621785
25.4675276275125
21.4955554784377
17.8486632499102
15.6401905071355
14.6493561137301
14.3495004612843
15.1749447222236
18.1851815006915
23.4116770310463
29.0824821207741
32.9884043228722
34.5074273364794
34.7963125797926
34.8732515965311
34.0295848384306
30.652060520537
24.4138533445559
16.9254264210583
9.91105810895191
3.35493716164475
-3.70186460278994
-10.5829077186404
-14.3162541059481
-12.6315627158764
-7.537500900499
-4.79071022332853
-8.79916319296055
-17.9909079640189
-25.7894560083927
-26.5469478173368
-20.6238081852052
-14.0635808902468
-14.0782736745268
-24.8171051812753
-45.4574436088301
-68.9765032220171
-80.7621134832292
-60.2913637786342
10.5739991203156
135.634646316791
298.423172058294
469.518346841674
622.732721202246
746.605322639481
841.56800027496
907.190873862134
933.485991718337
905.221302843876
814.339082814676
667.982786995844
485.632227749502
290.305021698491
102.541141064526
-60.7118088338269
-187.255676125988
-274.04784737565
-330.541675470557
-374.325685384348
-419.767768560415
-469.055917482225
-513.986548764792
-546.214427512755
-565.228513498508
-576.626442027776
-584.30531367073
-586.233440399272
-578.150203840405
-559.918342666895
-536.763093600348
-514.43379971007
-494.500988356928
-475.041002223759
-454.869210683453
-435.47027266884
-418.450174427637
-402.41996664355
-383.823847814679
-360.885518159085
-335.688710904565
-311.746597850638
-290.100324856543
-268.721650489443
-245.713478603552
-222.085351507418
-200.641826535663
-182.564502215886
-166.086981619036
-148.833735409212
-130.735929198247
-113.879943385564
-99.6797621928291
-87.0878011570174
-74.0282358163218
-60.0395199719714
-46.6941087902499
-35.3803518601961
-25.4324627591888
-15.0286111814302
-3.63848051380302
7.14295845505268
15.3869103564862
20.9242296037037
25.1808952077134
29.1939850461932
32.4986185118351
34.2586819220761
35.010784161816
36.6491756151355
40.6447121161246
46.7667807480993
53.8324141987761
61.3486936316185
69.8736666785266
79.7636283075848
90.1499584940333
99.614714586447
107.692864444212
115.192799829019
122.897789994784
130.364850458932
136.398219972533
140.539347646964
143.564348132679
146.307852655169
148.376707165025
148.499949371264
146.124605712068
142.212112148923
138.196277965064
134.429547178209
130.094286014459
124.652602828542
118.927248467172
114.401005993249
111.623549004358
109.739803260572
107.685155276836
105.470302465643
103.93217164971
103.353694397525
102.796532352577
101.022344614218
97.8222853290467
94.0986221263463
90.6890887317703
87.4959731327828
83.9739589217129
80.2043357253557
77.0638778430701
75.2638951778761
74.5453693056492
74.0819136502524
73.538156518827
73.413640266905
74.3114963110703
76.1991610112942
78.6633215290772
81.7434524733085
86.1110150029975
92.2536364731487
99.7057087052328
107.352930799144
114.42882779561
120.910620582746
126.849554741838
131.637217874198
134.329620523078
134.723179224571
133.793116712615
132.850164528832
132.416638532959
132.204855650212
132.155593736291
133.098825135795
136.073220680741
141.101712801386
146.984460583676
152.419124809447
157.083895116406
161.379116797043
165.247273463808
167.663621231149
167.510409017461
164.757684722387
160.470200175611
155.638973038866
150.285870985043
143.878237699088
136.400321417064
128.646240991282
121.378136940981
114.477284993268
107.190221929508
99.133009251713
90.7704989485054
82.8246537905356
75.4562485046265
68.2812918133127
61.1087419699726
54.3286956984143
48.3984170954489
43.127672653535
37.7534550966057
31.7390816066764
25.2614947295294
18.768220387278
12.2300288983468
5.11764472511308
-2.85236441629036
-11.2154713692071
-19.2247191472038
-26.7332281585184
-34.3613294301844
-42.7092104650393
-51.5933966016952
-60.2477637068601
-68.192129354766
-75.6407191553161
-82.9562048526375
-89.9018703733514
-95.6858688912991
-99.7493651938206
-102.30598809105
-103.996241970952
-105.156982957213
-105.626389323121
-105.221682011966
-104.144892258686
-102.756843901598
-101.091555833441
-98.8510850791472
-95.9321308555327
-92.7711363711991
-90.0347779107712
-88.1023676863726
-87.0895816262483
-87.3815907776712
-89.8369753111283
-95.1641648310534
-103.097100455017
-112.401321230725
-121.782860450317
-130.624557663532
-138.66601391997
-145.116521600236
-148.49930296641
-147.659846942617
-142.857788746463
-135.63015906372
-127.529563501725
-119.174901010557
-110.631545139179
-102.473596487474
-96.0487267252492
-92.4993565539746
-91.6873243767239
-92.3318747104741
-93.2203529429241
-94.1038275284808
-95.3552976791448
-96.9954146609664
-98.3659253121314
-98.7989079344389
-98.3546567703684
-97.6756092946049
-97.1580258822406
-96.4566965556591
-94.8432182326783
-91.8764792236019
-87.5824439845799
-82.0965405032143
-75.4061796556068
-67.5751917675073
-59.0915939637456
-50.8066389939598
-43.5165350592548
-37.7138242627335
-33.7397340188817
-31.9583306937056
-32.548603005084
-35.1228184402844
-38.7418379236273
-42.4386974041476
-45.6712328905479
-48.1802413965176
-49.5232411837845
-49.0283911950594
-46.3727099310635
-42.098885507475
-37.3500899759496
-33.0461917831642
-29.4482895332258
-26.5809490347174
-24.8734338295722
-25.0815407635553
-27.4920753690981
-31.4006294771623
-35.5860032422085
-39.2784687586843
-42.4943249691721
-45.4060825618765
-47.6327272183057
-48.4113578757065
-47.4486992083212
-45.3457075021239
-43.010783749598
-40.7583892048643
-38.184572333676
-34.9186873461559
-31.2533242186871
-27.8522067538028
-24.9463916313336
-22.0771880191838
-18.7115181420286
-14.9206047210525
-11.2516923003007
-7.98891705937614
-4.78500646832696
-1.13723559373039
2.93026775636437
6.86962089377222
10.2747533872867
13.3247574246219
16.4380434786516
19.6247934115874
22.4135576632481
24.4484688101279
25.9545479865615
27.4442865064414
29.0481478362175
30.3497042611872
30.934018453328
30.9136570968173
30.7367835835773
30.5497346910162
29.9883510447042
28.6985123191864
26.8950273300409
25.1865678295001
23.8535047274084
22.5078314002973
20.5956818374338
18.1159991748611
15.6433291261828
13.6441073343459
11.9962795087008
10.3567785333291
8.90534005258529
8.47439950119759
9.83438128059678
12.9704505757326
17.1961093462456
21.9025711293526
26.9885038433701
32.4941974259321
38.0173333058698
42.7445063734846
46.0958845251479
48.1723262762189
49.459735405805
50.2013885797689
50.2315037452164
49.4042369727938
47.962854185293
46.3208876491375
44.5656906259434
42.3928211926733
39.5970563421576
36.4740564712478
33.5777506279055
31.1269710127637
28.8314533810128
26.3660669019653
23.8701535045294
21.8151848168867
20.4202345206291
19.3993256852795
18.3957092077015
17.5543654499309
17.4903176929716
18.6790660257475
21.020806275433
24.0768222274083
27.6011906998247
31.650807027047
36.173764315172
40.6979762955974
44.5984909963074
47.6210719142036
49.9744435420203
51.8740333584366
53.1563103197315
53.4820616755456
52.8339580330666
51.5900469710609
50.0184803357038
47.8540947933677
44.57262652961
40.0827496512915
34.9729336050472
29.9774619712125
25.3160260268678
20.7313458430077
16.1563648588597
12.1271758829897
9.37796561114778
8.10603684356791
7.82522679554851
7.98206039554652
8.55169616502313
9.88544160876221
12.0563618758037
14.5746000706627
16.8316230906511
18.6814120456038
20.4189599951231
22.2317841683166
23.8790572623042
25.0106677149513
25.6615926846089
26.2274930325394
26.9402236141865
27.5460851927198
27.6221357820735
27.1095470854509
26.3541408914915
25.6149516855726
24.727619794221
23.4026495612101
21.7642846166451
20.3730439844526
19.6369617279551
19.3403964362472
18.8976938927248
18.0062306817758
16.8553244066419
15.6435217277902
14.0910862700689
11.6607600458281
8.25717738717492
4.49873657761573
1.16139251283088
-1.54833261697173
-4.00183702441266
-6.4644633163911
-8.62991060549163
-9.98531956147457
-10.520489977591
-10.8272736068123
-11.4153625704738
-12.0907408841277
-12.179740746279
-11.3161511142732
-9.81555911125654
-8.21847505594318
-6.64727796530575
-4.81636223069234
-2.64445438097203
-0.633330414143849
0.49139902013915
0.411016702149761
-0.669787610245088
-2.48893333171655
-5.08397235162939
-8.55484350006676
-12.5976581598211
-16.4904296997397
-19.5748991436597
-21.5913119653078
-22.4503223283715
-21.8520950905133
-19.4133853642206
-15.2421550405179
-10.1849774774987
-5.30554320030715
-1.16098283102268
2.23667265861902
4.76702558480466
5.80766133574102
4.76070799701046
1.9068627825376
-1.58057466621268
-4.66716582234056
-7.3907830695783
-10.5771507859456
-14.6795230226898
-19.1705136095429
-23.2153601911443
-26.7206726872208
-30.3577141885232
-34.4574924781704
-38.1329390255892
-39.7553694290202
-38.2936188818982
-34.0484525699252
-28.1371595020846
-21.5585517755398
-14.9295264980959
-8.87196112644336
-4.16604856670754
-1.29633836452124
-0.0407439227239474
0.239901509760913
-0.0456874424680205
-0.887244750434318
-2.29641227119962
-4.16714016798788
-6.66789265631734
-10.3072444103265
-15.0185936412376
-19.3999877231536
-21.9951730584487
-24.0924291755237
-30.1559943163117
-42.6709573498283
-54.204418132297
-45.0477371851125
7.70877492530444
114.32135758777
262.917866530324
425.884590470772
577.406848501071
706.46141787902
813.72669617074
896.935957454975
940.951949081316
923.954947501729
834.522857268728
683.225977512512
497.891790854756
307.544723781893
129.64581838343
-30.2226011495421
-170.290949549079
-286.847203918014
-376.028161122731
-438.773542003763
-481.783112103097
-513.137948671482
-537.646419538001
-556.565277968182
-570.639765728034
-581.837112891188
-591.645315452918
-598.61850933322
-598.865204911571
-589.461865270318
-571.171047398593
-547.654163838452
-522.320202223234
-496.244889235114
-468.87309339515
-439.988176195947
-410.520514891362
-381.71958367611
-354.201287381725
-328.088760215147
-303.74609445956
-281.895359245267
-262.942300373272
-246.481990334841
-231.648242359287
-217.766911098065
-204.404196974003
-190.84404444918
-175.923427159775
-158.72551494858
-139.431012418426
-119.280603754176
-99.6185022716781
-81.0825151423633
-63.7796898891632
-48.0379579275006
-34.6444953293398
-24.2030062668127
-16.40899660875
-10.1740568241118
-4.49528690574519
0.914877769078049
5.88352909128122
10.4857944053848
15.30429483687
20.9748032592308
27.6315007197923
34.9174004451859
42.4889721862819
50.3876136103912
58.8999839925085
68.1672711785501
78.0232152374054
88.1709303321581
98.4053832720312
108.626505439833
118.702304705778
128.376004775273
137.266630103531
144.889060373148
150.700557176032
154.267857203661
155.51891461277
154.848792327217
152.925358339316
150.374775202094
147.690192627944
145.423602681346
144.310560682454
144.999850759568
147.560809506101
151.313941204084
155.256719270262
158.704638558783
161.516901206892
163.754918228864
165.268933331076
165.743454302225
165.120374051452
163.817975796867
162.391965941348
160.962029751759
159.031785485277
155.902661863493
151.241667118356
145.249675558809
138.37201574415
130.977738016696
123.370151363961
116.030203558156
109.715848416962
105.232881183093
103.071128891469
103.223359147713
105.29238682271
108.732108866789
113.017009211787
117.664596528424
122.169607305746
125.95745502316
128.445954872747
129.232061064873
128.299940246478
126.069980094417
123.205889326558
120.332013741096
117.928670314149
116.477791198185
116.602671467177
118.895099363408
123.484435932706
129.785338778407
136.766263951805
143.544533764658
149.739988040222
155.280984234216
159.981467697713
163.455210341265
165.487167293206
166.371148859303
166.705876422371
166.772531120801
166.150498600984
164.009197086846
159.780432298474
153.522348766068
145.678957426641
136.630492313456
126.602350007048
115.988857501693
105.604705534214
96.4542214569157
89.185194851006
83.7649084070822
79.6628295427147
76.2826812946146
73.1900501362818
70.0015163718053
66.2045275788101
61.2012430176199
54.5540537901545
46.1724631168879
36.2750919774555
25.2186935473266
13.3908219792402
1.236364189393
-10.677813616817
-21.6815756192148
-31.1310048945011
-38.5878893369418
-43.9641340849685
-47.5621785576866
-49.9852265301997
-51.9647955871132
-54.2098174031968
-57.3409639160295
-61.8542850785339
-68.0090962860211
-75.6555006438559
-84.1792880664032
-92.7094192996055
-100.480939051083
-107.05609282302
-112.242221902081
-115.883402995319
-117.834735071888
-118.16718930443
-117.310135288053
-115.868287131387
-114.249828487537
-112.516832030289
-110.637801463349
-108.835753279763
-107.589627730173
-107.259355449635
-107.771297598249
-108.734323804507
-109.82864615909
-110.981716619728
-112.138251795037
-112.975325728534
-113.005957912333
-112.020362042428
-110.354860060613
-108.64916326621
-107.354265731567
-106.534204617655
-106.116298552521
-106.186630511657
-106.910324634971
-108.188881987853
-109.549472729877
-110.48926784634
-110.914830929942
-111.17108759328
-111.637213484106
-112.368843355062
-113.164176623031
-113.880947497524
-114.546292862347
-115.126666853192
-115.306531006431
-114.624555518644
-112.846125224564
-110.137718768456
-106.857599274643
-103.248104370286
-99.3906847000798
-95.3928959356303
-91.4667697301906
-87.7483595190766
-84.1199355337408
-80.3400630531166
-76.3772889695469
-72.5333659072626
-69.1792149783672
-66.4255836594121
-64.145613704874
-62.3047747822681
-61.1304476424801
-60.8461569174442
-61.2818383326965
-61.8850835149051
-62.1842821589768
-62.1720758716821
-62.1402339462136
-62.1568168256725
-61.8179962068536
-60.5736159367708
-58.2306827001954
-55.0456761998658
-51.3487858252122
-47.2159847123672
-42.6060051650981
-37.7621305250844
-33.3367715202422
-30.0424560326652
-28.2024809400705
-27.6600110960874
-28.0516587537216
-29.0705951681767
-30.4801938622806
-32.0282868226713
-33.503639911742
-34.8917217288484
-36.3803026593047
-38.1484263828244
-40.1728618297693
-42.2547378767349
-44.1428807069258
-45.4972970507812
-45.72618875697
-44.0377643674805
-39.8713935335595
-33.3596740237868
-25.3086802731323
-16.6769579989276
-8.11959401472418
-0.0727415183128564
6.85441085429454
11.8445341145691
14.4104896110811
14.9223421078931
14.4286969066111
13.8759958029272
13.5722255499567
13.4682014336801
13.8324948653851
15.409443472958
18.8039713128176
23.829064049218
29.629178784891
35.4413262909036
41.067027747989
46.5038951533259
51.2597049999265
54.2901263655881
54.7318403470901
52.6094628366001
48.7164694936229
43.8622874745662
38.3897957004909
32.4386458271485
26.4540783503612
21.1692736534776
17.0281497900125
13.7766834927934
10.7577423074794
7.57471830059554
4.36951713754774
1.49255074449138
-0.907220977728297
-2.8408803706699
-4.14026430112816
-4.39437473912051
-3.33707858194661
-1.20934756670278
1.39249189420356
4.02257154450809
6.64472065303445
9.39195020595618
12.228725595513
15.0015400315885
17.7812068766924
20.9642436584526
24.9165914440026
29.5832818761647
34.5695852667882
39.5904018200082
44.6996731730172
50.0143447140712
55.3371824592839
60.2184971158631
64.3780404538033
67.8768968844338
70.7441945874262
72.5409670936073
72.52245054896
70.328572390085
66.4096542911763
61.6596697153523
56.6991660351011
51.6834698746411
46.8167939608221
42.804019901871
40.516629202529
40.1745189153109
41.0450301990042
42.1005147527456
42.9247123675967
43.8625875939289
45.3438585149522
47.2927390289368
49.3363891105185
51.4390644104649
54.0378135898783
57.4366621475918
61.2175185972726
64.4355154567197
66.3830169052147
67.0179663776392
66.6335020255892
65.3271755194469
63.0101987078893
59.8777518223896
56.580904343785
53.7346987319368
51.3333593055687
48.8379518142068
45.8561687421934
42.5621093677639
39.3502905593429
36.2393874592231
32.8708398024597
29.1239459495134
25.4868312321908
22.5940420482201
20.4533347214885
18.3632803937011
15.683103752904
12.5156475493111
9.45581482353962
6.75868338507159
4.0355710137613
0.885463801780166
-2.38851880406952
-4.97979711607293
-6.50525356208515
-7.47284002065246
-8.63862053271777
-10.0165930901696
-10.7741571051154
-10.1393892694582
-8.17558773991149
-5.48382801912546
-2.30536314922076
1.72880501823933
6.8290118756107
12.2686854422615
16.6803451174203
19.1609712845807
19.8950042104993
19.6236993660658
18.737626075577
17.162594961181
15.0713404896908
13.3198323527258
12.8833075399827
13.9382771191082
15.7629291024225
17.5962623962697
19.370352069403
21.4354388884767
23.7514434112285
25.7073345165894
26.8342269013652
27.4171942015376
28.1088409503554
29.0015500737433
29.3996513960222
28.6468625105593
26.9540472108302
25.1380644904764
23.6167188870186
22.0070670052255
19.8692450785103
17.5654229449656
15.9910103339548
15.4393082591958
15.1029500916421
13.9728294493008
12.0607693228093
10.3720547486981
9.63462805991051
9.42873987089074
8.8594892956033
7.86042456284244
7.3138512785749
7.70163495713609
8.02153369070186
6.51339565773921
2.45870615847599
-3.12980463871565
-8.76845862458748
-14.0764875602795
-19.6364196669616
-25.3829279460591
-29.7654756280415
-30.9974184612794
-28.9661957499514
-25.3988537647302
-22.015846639482
-18.9556586163904
-15.3897800043801
-11.39692747936
-8.52861031354357
-8.24152814877917
-10.2333083525385
-12.9115773689703
-15.4389333785673
-18.6837562243904
-23.8133421988264
-30.3985905935929
-36.5983655687312
-41.2448676445511
-45.0621884607572
-49.339718049596
-53.8188900968373
-56.7439522642568
-57.2088958356506
-56.7227058260829
-57.7016039766897
-60.6045524661806
-63.4311224723155
-64.4156172631998
-64.5053907271678
-66.2258155392182
-70.1055399153526
-73.1853170852276
-71.743480036382
-65.0722095496875
-55.7487613482147
-46.3142958464515
-36.8650531748155
-26.676148205268
-17.3371370844617
-12.5822551692936
-14.4594902947476
-20.8948416869238
-28.3648132934944
-36.3671813934529
-47.1011236156348
-59.7534512050728
-67.1187917927854
-61.1987813631893
-43.0377376900258
-23.8689305937254
-12.0504120805005
2.46626294053523
47.3244395998884
146.277398467524
295.526294443484
462.054033266419
607.717297194325
716.3996714338
797.655974086802
864.363998505877
908.87210186861
903.265985095869
823.707940410006
673.995093724637
485.358664340464
294.483880656283
122.264238525476
-28.5549721504266
-160.328477079115
-269.767626395254
-350.485621698799
-402.769606081564
-437.188629368964
-467.415803873107
-500.309617288
-533.31962460544
-560.18141902436
-577.464805705419
-585.729702614718
-586.424266073187
-579.70896261347
-565.480975364854
-545.195404126507
-521.668198018339
-497.350948126148
-473.484205704572
-450.777937738677
-429.907728466696
-410.675960709483
-391.169258014838
-368.807769840165
-342.740645067683
-314.883659805835
-288.172679190035
-263.922438588961
-241.291514599705
-219.254198835648
-198.433547652796
-180.490891522189
-165.969514036567
-153.416849258339
-140.877185538127
-127.807390569766
-115.043920527829
-103.064818066883
-90.9611528611395
-77.4833514523591
-62.7376190244616
-48.2558610021404
-35.3072210449727
-23.6069053747863
-12.0399549760797
-0.407152418207431
10.0777013523658
18.1524453076182
23.9600080649793
28.7722352603135
33.4345958735954
37.5807745095418
40.5767421221253
42.8744177398418
45.952388228833
50.8780655807623
57.2846171516266
63.9802821422102
70.3299306495985
76.6744539818801
83.4199380888394
90.158621965598
96.0360230559814
100.848615449984
105.375376998042
110.470362647934
116.065044866077
121.312823500838
125.599674121066
129.067962223295
132.040448451575
134.242441312759
134.971888435598
134.047708636195
132.260474539061
130.64596116225
129.426833233047
127.918053031185
125.474603849099
122.259031602722
118.897719193863
115.570738493088
111.8075846666
107.308584963798
102.736626542171
99.4119444677165
98.200972332272
98.8752912039315
100.602664020619
102.84978926139
105.58191163088
108.659207814644
111.377407281517
112.849479084595
112.780216298152
111.669413221328
110.221028833916
108.715081451715
107.055003733582
105.272714555415
103.726690162863
102.743982053133
102.267677882366
102.057555086905
102.198060704702
103.206118828276
105.549044813907
109.183371218703
113.715737928372
118.962153149043
125.144126667587
132.443911454779
140.516855894945
148.654375398044
156.450276571735
164.135457524963
172.127683122137
180.328205700347
188.026674761152
194.52400752813
199.705146347913
203.894096033587
207.246558648064
209.491541778111
210.337869786691
209.986160362124
209.057722855863
208.003324167518
206.701715573207
204.695401753516
201.722399282492
197.904152651697
193.464346259082
188.451033979607
182.844677021636
176.84306352102
170.851971104838
165.116864136059
159.428568339574
153.24773482092
146.057959554082
137.513499259092
127.308574537577
115.12966141111
100.929731623366
85.2402084403776
69.0572861191573
53.3109704039187
38.4576115335651
24.6059701380139
11.922697852474
0.722082952037916
-8.90700362846082
-17.4154686868537
-25.5309113928841
-33.6154417081118
-41.3719161561027
-48.2622666961628
-54.1618509249342
-59.4968186697937
-64.7481575315073
-69.9679004732105
-74.9005448093176
-79.5211519177164
-84.2786631428642
-89.7105903777554
-95.8811002766161
-102.307600469118
-108.441386917346
-114.12004819555
-119.493729852423
-124.587589605304
-129.062278016678
-132.427715926712
-134.403215260334
-135.005027721623
-134.349681670988
-132.509609704218
-129.620461974734
-126.062677234131
-122.445139095659
-119.393916533669
-117.380918848874
-116.709976453335
-117.524601619005
-119.706917662643
-122.793348839795
-126.134251107465
-129.259870959157
-132.108793183921
-134.873206997771
-137.651512424657
-140.326249150492
-142.78391293682
-145.127330829932
-147.514220563222
-149.747096209347
-151.126994824855
-150.843078214065
-148.555210618699
-144.582109763247
-139.545121182784
-133.914775749226
-127.949488722051
-121.979131482082
-116.554080890323
-112.18137496958
-108.927880463533
-106.373486235986
-103.996171085356
-101.573297847925
-99.1970875608516
-96.9801257420731
-94.8601787946591
-92.7156177932771
-90.5716559762599
-88.5779614601412
-86.7730502257948
-84.9585582072063
-82.8803011276445
-80.5214604083806
-78.1633794893183
-76.1474585375706
-74.6176025620683
-73.5078671192239
-72.7098706645424
-72.1462784630602
-71.6448045458549
-70.8105136633065
-69.1283686214569
-66.2499607350326
-62.1866721404456
-57.2341924626313
-51.7485613464907
-46.0131314625887
-40.2603000305953
-34.7015303853162
-29.4504226527628
-24.4293683999729
-19.4286400288872
-14.314916466616
-9.18635258408561
-4.31412984260909
0.0462054276653454
3.75238006794147
6.7024395869515
8.74747351219458
9.76692398048836
9.85349313205491
9.36539686577553
8.71052190264195
8.02574195823562
7.05831133477981
5.36906325638542
2.66284731899999
-1.04660561997757
-5.5227037113985
-10.4644580898019
-15.5277898877373
-20.2098305932687
-23.7914526298701
-25.4958810365161
-24.8005969052611
-21.6738655038257
-16.5597076234355
-10.1421028980812
-3.08003939652775
4.11338226194608
11.0301180302557
17.2865498030623
22.5307196042044
26.5484991840939
29.3598348696329
31.1903425017938
32.3203705019934
32.9395408941796
33.1377034166078
33.028430730591
32.8601967305308
32.9741819929193
33.6225201341496
34.8087336510857
36.2948132148475
37.7545079830489
38.9193096910435
39.6040547360416
39.6561447255029
38.9574660847828
37.5222928194513
35.5855739997456
33.5501374933008
31.7992814056402
30.5265724086775
29.7181450200496
29.26374378569
29.0558083027337
28.9900393763862
28.92694676867
28.7250048185309
28.3487705041051
27.9287094655859
27.6731855352822
27.6932292816752
27.9087731483933
28.1251168411337
28.1876081062728
28.0517204531556
27.7250046369234
27.1967353632806
26.4726280697004
25.67525656442
25.0570271492143
24.8561203328075
25.1160431516844
25.6537572448311
26.2110775005705
26.6309086592693
26.8915234547063
27.0127251130918
26.991764733152
26.859044913055
26.7587303420345
26.9025608236514
27.398635320477
28.1295061779091
28.820278239514
29.2284917927191
29.258770575141
28.9143507444628
28.2013651783605
27.1375909682078
25.8438544646751
24.5509460502735
23.4447510705919
22.4935033545257
21.4613417393433
20.1123264947742
18.387929574782
16.3803954989789
14.1802998208082
11.8230161398173
9.40468856017775
7.18449152776167
5.47823345480955
4.41256636519222
3.81403281114516
3.37465098701011
2.91563702820196
2.46426943819901
2.10303298841809
1.83155534261179
1.63624958719459
1.65359915894346
2.1577198074834
3.32368500333363
5.03468803206374
6.98440222496662
8.97031449758995
11.02992497046
13.2681167076402
15.6211801659434
17.8830723679451
19.9630949326139
22.0106155589537
24.1871073246798
26.3306337157734
27.9446768646054
28.5803250447981
28.2004586426507
27.1244385978083
25.6547160573686
23.8570640281322
21.7385567296839
19.5368555838506
17.6848082020422
16.4408598877121
15.6293604732563
14.8275119642834
13.7989687492523
12.6885909224721
11.8095167858335
11.3490681329074
11.3595949235861
11.9655021636009
13.4105450055907
15.8011008687584
18.8470804254812
21.9483092631273
24.5498840763411
26.3645127478639
27.2692511299495
27.134277074009
25.9070149611543
23.8627928513968
21.6263504161724
19.8274408665484
18.7538216669999
18.4072251243269
18.8473575307718
20.3115604444424
22.8946618055349
26.204134066876
29.5048823572273
32.240432844703
34.27602829257
35.531154546275
35.5009297510268
33.3997324330453
28.8966390556973
22.5868945337242
15.577942896803
8.65333216774763
2.03252812423742
-4.01711234138561
-8.61633129278089
-10.6785412133918
-9.96002497166829
-7.48674817286194
-4.73533300991561
-2.46394031773238
-0.550708158693338
1.06205032427951
1.64362994750485
0.227407866143686
-3.19041895220097
-7.38028285524007
-11.0172540316121
-13.9046820343965
-16.7848180622052
-20.0021795131403
-22.7651871951649
-23.9972362626538
-23.6902901519815
-22.9675958143913
-22.7177400290325
-22.5724222952655
-21.6187298220197
-19.9581746639856
-19.0146448844539
-20.0519916039055
-22.7569190147837
-25.7784595832324
-28.5672455231498
-32.0046938880282
-36.7710038087333
-41.5060040688963
-43.4692095369696
-41.3873670927719
-37.1180102803227
-33.794179889882
-32.4184055448602
-31.1707084325714
-28.6976371592304
-27.5584972331854
-33.0881067538599
-47.8732869962878
-67.4147626709219
-81.9722948662007
-83.3788945984862
-70.616444527667
-49.5804905628827
-28.4343593708064
-13.2956418022147
-6.56832180272851
-6.1749776018037
-3.95903783948555
14.6578854012182
66.0052310942818
158.89849712679
287.237336403389
431.353281876224
567.992173726206
681.081873675688
764.986359624393
819.183378344684
840.743806077379
821.689185258004
752.897504650631
630.93219205588
463.226938499252
269.112142448755
75.9445113412229
-89.2562785575175
-209.946797472135
-286.383865006771
-333.037129590321
-367.919771252808
-401.664160992997
-434.795677355933
-464.039735691165
-489.83803703018
-516.730917699479
-546.653876433311
-573.407331008524
-585.515058284822
-575.537576834958
-546.765736083226
-510.802811371134
-478.73275019424
-454.351904150703
-434.726749322968
-415.582747516684
-395.307459552814
-374.614457657446
-354.189799830955
-333.8381359681
-313.527544511756
-294.062039657019
-276.103453227807
-258.954356719921
-241.010930960043
-221.530016461539
-201.510882564851
-182.553521265503
-165.087482752125
-148.075133299214
-130.367446441754
-111.901956062032
-93.3622718214941
-75.01306576698
-56.3853139196636
-37.1908487188194
-18.1603738400627
-0.655930832197477
14.4228712598536
27.0368236906029
37.335858943632
45.0084675521379
49.6448617125909
51.6307593035086
52.2859290641294
52.9438039443647
54.1046095212485
55.7207162400168
58.155076350634
62.4218099110656
69.2544509625324
78.1461935308674
87.6408171164365
96.5942709369889
104.885284023473
112.762006357617
119.774622931039
124.778512488373
127.093339440176
127.369233442139
127.025095158768
126.894354737392
126.683118939814
125.795738262201
124.376729364066
123.222499543264
122.729370366246
122.291171249395
120.961601876737
118.567704145843
115.900644295371
113.793910749978
112.269555503692
110.760107688017
108.996308863277
107.348188871993
106.2022334494
105.245533661923
103.627956412502
100.810853169072
97.039038994824
92.8993586369297
88.6087844204059
83.9573118655808
78.9035506337719
73.9565842598191
69.8043130074575
66.6805512089637
64.3045284123246
62.4448579251858
61.3280670414224
61.3412957689459
62.441350913779
64.0768781440956
65.7364434574651
67.396973198001
69.2929763261722
71.356048129318
73.1301698671018
74.327520226273
75.3022668349658
76.7817032410858
79.1475668761798
82.1551574314756
85.4196966998902
89.0084573644709
93.3514898133797
98.5932318040827
104.262874860488
109.747300425591
115.008095454349
120.643102711875
127.198759586624
134.561451401839
142.126588053281
149.455755894735
156.56063990282
163.497571082054
169.870344063076
174.936672824488
178.208733037908
179.805521409261
180.155741228924
179.473284963768
177.649528614841
174.589512528161
170.435554064399
165.346730710742
159.183016483049
151.614023040377
142.588826143179
132.572722642676
122.230030974874
111.962286131193
101.904158538812
92.3456292044964
83.9292581852196
77.2291304464241
72.1570949011816
67.9525297274096
63.8330623330331
59.5553510006021
55.2376542155654
50.7306686600378
45.4017168913862
38.6647806814818
30.6155173778863
21.9670118625475
13.3490172570046
4.8268675638298
-3.79782989588106
-12.344891764579
-20.1391104851363
-26.6013632649292
-31.8193605286113
-36.3987998909745
-40.8077510529636
-45.0419192163528
-48.982349440845
-52.9055449208271
-57.4227174102456
-62.8880023465081
-69.0180701903258
-75.2003173235111
-81.0940863316475
-86.7845559749209
-92.3595163751677
-97.5290349679691
-101.822557778448
-105.111739544823
-107.765163997723
-110.219564302367
-112.514125695029
-114.378251733008
-115.736011915051
-116.948060323311
-118.461071012919
-120.313178939787
-122.132045774965
-123.616988507704
-124.863826109635
-126.098220564806
-127.162933727104
-127.444727646036
-126.383672841701
-123.97550694625
-120.688991185808
-116.950785671623
-112.86475548824
-108.490331262264
-104.264789028835
-100.964889701721
-99.188369600705
-98.937413580963
-99.7542045701265
-101.19017389345
-103.037358011008
-105.119583837351
-107.016391566876
-108.141835514924
-108.108611271434
-106.941118659628
-104.911734679997
-102.245711986519
-99.0522071334831
-95.4887813003594
-91.8568438217843
-88.4590547944922
-85.4065347708663
-82.6378080069102
-80.1121540837013
-77.8983752323125
-76.0377180882531
-74.3944487147275
-72.743115722757
-71.0125896307141
-69.3628106619508
-67.9650873075184
-66.7515945154239
-65.4629142109093
-63.9449140896507
-62.3110974594029
-60.7453357033724
-59.1866858870582
-57.3109461616013
-54.8636017620982
-51.9528076414315
-48.9477984558809
-46.1079519491621
-43.3893932468063
-40.6414400558505
-37.9195713836676
-35.5148826420957
-33.6732409785539
-32.3638491844371
-31.378285257353
-30.6237613823275
-30.2555425846412
-30.5229148413178
-31.5530653318362
-33.3228448412778
-35.780970910154
-38.893216302793
-42.5302701013684
-46.3685335525682
-49.9691289900849
-52.9542061355646
-55.0673217543015
-56.0781508423722
-55.7270250728837
-53.8590635286676
-50.6145322954252
-46.4108852173449
-41.6800434873923
-36.634357533659
-31.3138137600706
-25.8211375714053
-20.4187318522904
-15.3473352684927
-10.595690250102
-5.92444797646099
-1.12776852241529
3.78237447225059
8.67400042890019
13.5095575953259
18.3697754546473
23.2498605987546
27.9077036947747
31.9791680941978
35.213831956024
37.5172333404305
38.7533092197362
38.6139224443963
36.8110151933147
33.4231989011347
28.9787562736323
24.1383688731616
19.3281013657829
14.743470909266
10.6800327555457
7.71562532182458
6.43179619961171
6.94228546772914
8.77875850179748
11.2988255552321
14.1811644555334
17.484182593238
21.2724543959896
25.3132084951649
29.217249956976
32.8261772388317
36.3454042930932
40.0463107605848
43.887446353349
47.4854817963065
50.4329125463928
52.5718729199894
53.951354036439
54.6185260917216
54.5652376249496
53.8824611438435
52.863664633723
51.8660102175102
51.0774827495265
50.474992179201
50.0038824931591
49.7136155954857
49.6593017036929
49.7293729254663
49.6988507516655
49.5148135059868
49.4668182015807
49.9739997795297
51.1800474632784
52.8126672474305
54.4670470719646
55.9561619433763
57.2875884508159
58.3072445897248
58.5033469898756
57.3008154005105
54.5699099216793
50.7714586290494
46.561027990061
42.305340717669
38.0535210324024
33.9380152863658
30.4517901482003
28.2100976112676
27.4533044561327
27.8772397764315
28.983824770697
30.5212401899041
32.5003832023264
34.8208871232227
37.024030872503
38.5156292927841
39.0073355418368
38.6618289347663
37.8083497497086
36.6162939801615
35.1179848274298
33.4816242681573
32.1041052566139
31.3457411602978
31.219910643686
31.4287263616496
31.6987389786806
31.9950345751024
32.3721596110756
32.7146418089765
32.7668396071484
32.4467879223898
32.0185156511741
31.8413744901378
31.9658035887247
32.0842502629471
31.9274563046209
31.6282379216383
31.5931997377104
32.0340951164853
32.7482885406024
33.4275281164037
34.0884932560683
35.0321471892209
36.3181365154819
37.3781745171724
37.2797763023951
35.4027078898176
31.8159078909327
27.018036084602
21.4548818815096
15.4278865853202
9.44225186978585
4.44848198744323
1.55124725976388
1.41742855013628
3.97543310141053
8.64051063133663
14.7184790091964
21.5561826087222
28.4471211433698
34.6256049393334
39.4807036309954
42.7370371678714
44.3596203887209
44.3289925214206
42.620903711885
39.4081115713225
35.1214121204001
30.1508532157421
24.5036797343316
17.9132947819102
10.3685118648177
2.43097140956946
-5.12589216650676
-11.9926924546531
-18.4906988134073
-24.9778602348336
-31.1995740366708
-36.4080388233125
-40.1350637395846
-42.6592829357969
-44.5614725330317
-45.9122791826311
-46.1269208961246
-44.6912044388552
-41.8483412987504
-38.3768695346073
-34.7571549524845
-30.8113719730024
-26.2690170743529
-21.472928596066
-17.2416013128863
-14.0392890609989
-11.5772061265908
-9.43436539908321
-7.89445909176619
-7.81499500081152
-9.5843803869875
-12.5049064272727
-15.4985907678858
-18.3161086713237
-21.6688364935462
-26.0252285467688
-30.609880312036
-34.0235220140732
-35.8497725181383
-37.2135186223093
-39.438495413452
-42.365636835775
-44.4498072875871
-44.5936726508516
-43.4616064475098
-42.6291975402031
-42.6850242926256
-42.7659700075949
-42.1108682689233
-41.4587299056821
-42.2065013229688
-44.2781714667371
-45.7054427506706
-44.9970320979796
-43.6073081031958
-45.1126137437883
-51.4539975049959
-60.4395975170154
-67.6540019704436
-70.8576737859584
-71.9432090383614
-74.3973098216729
-79.5509530474435
-85.9671585762326
-91.6714496953221
-94.6538035365141
-89.2824456231234
-62.8843760765884
0.798007401768956
110.84131258591
259.606250654312
424.082998081128
578.341974897336
706.605949898127
805.853770026692
877.176224842523
915.595254634235
908.326284680884
842.429966726634
714.563893541117
535.55822475343
328.341280667802
121.873965364501
-56.6354755359907
-190.061456534179
-277.399109090107
-332.854659540835
-376.367517403175
-421.140860119824
-467.638374142976
-508.414682781065
-538.159417456877
-558.826042556726
-575.67930120602
-589.997218525042
-597.133271779379
-591.845447499424
-574.444206045593
-550.864894763428
-527.095205777634
-504.533392632773
-480.98185513388
-455.076394192199
-428.48325118473
-403.731645749341
-381.064357544702
-358.399749655621
-334.145678709773
-309.087105001425
-285.131709045503
-262.872861537957
-241.217636301884
-219.34951139236
-198.204093333939
-179.433058902552
-163.256606039011
-148.064365131703
-132.290553656134
-116.132860813633
-100.964190232588
-87.3290266930978
-74.1915790656354
-60.3623921434728
-46.1507970495897
-33.0424868337213
-21.8250497140645
-11.5938791504667
-0.883070586244976
10.5872157805908
21.7712412387121
31.8198052237584
41.1755665231054
50.8172944327888
60.7357828978809
69.7337285737007
76.8603470979247
82.6139494781308
88.3425174680114
94.6227258347421
100.699815519461
105.644205312158
109.638772064893
113.696680992631
118.23101398108
122.430513542268
125.326422564536
127.188394796948
129.421968673663
133.061170012639
137.741525234022
142.380683461187
146.580423644399
150.8935246557
155.670319620497
160.109401535892
162.872878661852
163.554647666865
163.14054763422
162.873597434445
162.962801441051
162.719208488922
161.814731859131
160.925127320548
160.890564761135
161.522052746011
161.66917629484
160.517258760752
158.469023793769
156.491924681393
154.780177190318
152.433198509
148.514501370515
143.097008159482
136.990032644149
130.604007113499
123.511300071976
115.293851473275
106.544627100624
98.6740778859829
92.7147012988734
88.5795580216005
85.5966091584535
83.4986462801403
82.5598141860472
82.8123939413469
83.5424778287057
83.8676331780334
83.7065664130583
83.8754314391439
85.156916021684
87.5055293122801
90.3360899619982
93.4028837395161
97.0381124856814
101.445097606713
106.067513918882
109.988248536834
112.929528926989
115.576297515376
118.779461923666
122.63056549851
126.544683481244
130.153927071455
133.765624696731
137.761080119053
141.769123047215
144.793340817068
146.22339494663
146.45975888832
146.330475137481
146.019044453126
144.849870519251
142.168249844266
138.148726741231
133.492858880447
128.455446892107
122.524926816687
115.219409235077
106.979374232406
98.9775104681077
92.0348669700224
85.9545660141211
80.0253895566872
73.9656629901407
68.0976997694525
62.6363377506019
57.1559831558927
51.0185756310425
44.2155061585343
37.4890241183336
31.5286671948974
26.2395056747452
20.9627046598516
15.2727002133134
9.26369160529974
3.00378473837809
-3.97949014192003
-12.3337866464254
-22.0055617211309
-32.0045751329303
-41.2169968929835
-49.338194199806
-56.8229972891545
-63.9963747561041
-70.5205564503104
-75.9002005564692
-80.2987147609428
-84.4906145383223
-88.8939387249618
-92.8660822888498
-95.183825804493
-95.1806565228304
-93.2277810329943
-90.1035267386014
-86.1672444350477
-81.3865414525101
-76.0551578599859
-71.1104827665465
-67.5159892192461
-65.4413103535733
-64.2667054007303
-63.3903217307814
-62.82312110082
-62.904906305933
-63.6562407395808
-64.7085980519089
-65.891798656806
-67.607486597448
-70.3835518434113
-74.1329714947856
-78.0983886173513
-81.6047249193759
-84.6898433672766
-87.8409310518006
-91.2350745149988
-94.5158577644232
-97.3894788568362
-100.19141328391
-103.582117416001
-107.693772715121
-111.831788795727
-115.170902225905
-117.613842152568
-119.761397558445
-122.076448859903
-124.340062833495
-126.073665744697
-127.302060380188
-128.571986232324
-130.133588619196
-131.338694756718
-131.096114950222
-128.904839840529
-125.256953775126
-120.994650686091
-116.487238687523
-111.627487892803
-106.512041216409
-101.780845723718
-98.0894407448941
-95.3771870739073
-92.8956873477267
-89.9992130656261
-86.754973715562
-83.7191716445072
-81.3071884165636
-79.6121204542653
-78.7857235200981
-79.2626954383408
-81.3422693448381
-84.6037650263566
-87.9671501753679
-90.4116184589816
-91.50057353036
-91.1273413831456
-88.9641465515448
-84.5127348619655
-77.8061783887843
-69.8158461804551
-61.8690385718035
-54.6441703916447
-47.9368835568833
-41.4813040336488
-35.7703371254747
-31.7898023508967
-29.9609954831641
-29.6291465758983
-29.7757884853791
-30.0812866227173
-31.0058679693814
-32.8032095668121
-34.7522575008151
-35.63357225386
-34.9071924291581
-33.1622290944675
-31.3179754987318
-29.5878191296214
-27.4372925878862
-24.4545376152418
-20.9273881560821
-17.3969796427702
-13.8443828252043
-9.63770732320092
-4.34989474594252
1.57600471629046
7.11936098269968
11.5107722775571
14.5725418621789
16.3044829811071
16.4812897510198
14.9353827011272
12.1518483668252
9.27151469035222
7.33815359411104
6.64230692078018
6.91449325236051
8.01463313186474
10.1394033053993
13.2824913383721
16.7759787889055
19.7043025164974
21.8063839216384
23.7293986621659
26.2368037252698
29.3017400888075
32.1932767470244
34.4069962101313
36.2107525915125
38.0923927575666
39.8588499350961
40.63283852085
39.8437881465139
37.9872435087804
36.165491293298
34.947833887666
33.9476605704544
32.5956979212669
31.0743268539485
30.211506260907
30.5071995826385
31.5832839363356
32.7676813385334
34.0238129718846
35.9822451380571
39.0065120176118
42.4879622621116
45.2763802317793
46.7082540661628
46.9766540172726
46.4966866351666
45.2263352121839
42.8907291732811
39.7830019136038
36.9926629683314
35.6347166046743
35.958019790792
37.3778610564304
39.299982312055
41.6401900826955
44.4396012883379
47.2287180260649
49.1205201040352
49.5967752792785
48.9775287978355
47.9480880227946
46.7482049350994
45.058176975732
42.6753676294025
40.0282569299808
37.8235236835634
36.317615367919
35.2214257819797
34.3745482085731
34.2417574853312
35.4793757190291
38.0713842228492
41.1699670193124
43.9012576479607
46.1378238875953
48.2736375775379
50.3527106955768
51.7672281368223
51.9834115660861
51.3478190681211
50.8446122393552
51.005935298973
51.3045521572505
50.7870545848347
49.1483006139656
46.9160996522103
44.5942751790595
41.9549596465094
38.4258947694292
34.0303199007199
29.5854184746924
25.8457140145161
22.685664967316
19.3793612273039
15.6030711234522
11.8625068852045
8.85231970401858
6.69500361707898
5.13207283069153
4.37589652913992
5.33598030963829
8.71264379382824
14.0166801037484
19.8069987901077
24.9335398027382
29.2666893908607
33.0501796860671
35.835599609288
36.5474199950113
34.7382710251835
31.4252773441925
28.2819983941402
26.0075581085192
23.8009651580376
20.5566532234633
16.2816052962494
12.0020199096446
8.38179761645398
4.91726911857881
0.801386672382478
-3.63310923854024
-6.76677990764485
-7.10302926698923
-4.55961337248991
-0.170467963841503
5.25134459843888
11.7200145939601
19.2734410280924
26.9707570915779
33.1173111607059
36.4815865827843
36.9811173949291
35.0761678582809
30.8342952925093
23.9898101035871
14.8828604736189
4.91628894782741
-4.19192888269124
-11.4523199399981
-16.6589332480694
-19.5670902365805
-19.5407216398955
-16.3482467964434
-11.0901521488251
-5.87464197478987
-2.42645195601816
-1.24772057693652
-2.25198824497107
-5.81841565755484
-12.6347712030066
-22.3960099653727
-33.1641699664795
-42.5305870322801
-49.3761987064047
-54.1083625966157
-57.1375261868877
-57.6754494186486
-54.564636301379
-48.1239143360652
-40.483948943637
-33.7354781052519
-28.1325760908709
-22.6791694254663
-17.361981737874
-14.0196922642607
-14.4947686369255
-18.3226069529442
-23.0116897719597
-26.6840343250364
-29.664827769482
-32.8827608088318
-35.2615625680755
-33.942874050184
-27.6158930735226
-18.8247785226778
-11.8923141802264
-8.61171381831986
-7.13057424286337
-5.71778491937618
-6.56663281597804
-14.0038013424061
-28.3445963987638
-42.9921153627583
-49.5848584136209
-46.3384877191069
-39.8267543456065
-37.3103018875895
-38.1220483831796
-34.6477947253363
-22.4073465345752
-6.96270729994238
2.46479354452636
7.58292466486282
27.4328066899204
86.8706699188996
196.170601548443
341.338063120838
494.728227346633
635.105050393583
757.173274146493
862.469810646729
943.308916713398
978.178639088547
944.293176576027
835.239359503472
667.248401156536
469.600976539316
269.210542524017
82.1448812678039
-84.5276001451504
-226.97915003325
-342.137258425574
-429.299040548638
-491.780682413551
-535.733381222663
-567.299485520024
-590.765426122895
-608.425495321777
-620.943867979517
-627.496299235905
-626.410523460201
-616.819240241585
-600.165544450816
-579.829048845597
-558.890299639007
-538.150746931736
-516.335980037306
-492.062901943664
-465.399122340425
-437.615990209422
-409.880488336133
-382.547447196998
-355.590324484342
-329.24611801184
-303.957693926229
-279.870605399647
-256.752996672893
-234.503961255328
-213.492239068798
-194.141216274671
-176.204298416694
-158.654080028128
-140.391959763954
-121.00705266175
-100.812724916363
-80.3022428135604
-59.788778592698
-39.5950708099623
-20.360182593264
-2.90390245128918
12.2651965652812
25.2088219742051
36.293356073282
45.7659363428423
53.6750405487004
60.1195644074132
65.3770848021881
69.6893119696274
73.0189322832948
75.1752681182814
76.2123811811228
76.6036869713086
76.9424303962012
77.4989928559357
78.1325565890784
78.6037404400637
78.8612192132904
78.9747330954152
78.8899282611467
78.4100993985868
77.4822956728779
76.436112180269
75.8589377709185
76.2293713612455
77.6957574723907
80.1630026583708
83.4694368387681
87.3984618801879
91.5815147304798
95.5458666090236
98.9623985833202
101.834377819868
104.386145103942
106.761496132475
108.871879273878
110.539529679331
111.710356186228
112.443961694003
112.705752085474
112.270541505921
110.923553449488
108.763137320975
106.250674011572
103.921512520407
102.046521689936
100.57642014065
99.3789481673196
98.4794378531366
98.0631608936205
98.2937201035173
99.1868073812204
100.669555195847
102.719021291856
105.386439208889
108.649938236889
112.229636712572
115.552166365882
117.933823679369
118.87914271292
118.303316650631
116.543304825767
114.178514668821
111.814469432849
109.975610014703
109.109501029198
109.573436143113
111.511600140074
114.709963103081
118.62478917893
122.657184222132
126.494764962253
130.242580978776
134.250024652293
138.818163073398
144.041922969006
149.846559120241
156.065954610565
162.425890364737
168.485564876592
173.691441176839
177.577682891105
179.965229987998
180.996543381835
181.003226657982
180.336608117487
179.260164397166
177.896114956927
176.195792007213
173.96436970032
170.977464151381
167.131630319703
162.503545332446
157.274089933107
151.61791089268
145.673096890685
139.564552064417
133.360283785088
126.946919997395
119.986817126731
112.096910102435
103.14232519271
93.3628940187349
83.2006091306879
73.0206882642982
63.0194957739691
53.3520083452774
44.2194851537586
35.7246847786476
27.6581560253771
19.5539600792768
11.0759938353779
2.37766864852051
-5.95177901949646
-13.3083395266302
-19.4271594776056
-24.3585905270265
-28.2297185493579
-31.1835369480273
-33.5919604721922
-36.2097887635534
-39.9397168511088
-45.3310537259833
-52.2794859524434
-60.2007288236094
-68.4508350529077
-76.558647735579
-84.1388603493363
-90.7570981598657
-96.0240204879267
-99.8376833192995
-102.458268367788
-104.286268473024
-105.573051902071
-106.368465114301
-106.726002443165
-106.906061302989
-107.362869278946
-108.566627899664
-110.854393165847
-114.390328719152
-119.152536848757
-124.87090356889
-130.970569316747
-136.625079393156
-140.932933501722
-143.139187169303
-142.833650326858
-140.096490106401
-135.534860863348
-130.126949416851
-124.891831620042
-120.577539274725
-117.573472235272
-116.025374902682
-115.915956627982
-116.97069337319
-118.565967916046
-119.923347374396
-120.554716974764
-120.536623358103
-120.274132025874
-119.960483324936
-119.315924247947
-117.890959354236
-115.553277289054
-112.553524183201
-109.09209532275
-104.957117240695
-99.749221207777
-93.4802683361117
-86.8230529945277
-80.6582576407129
-75.3949025195773
-70.8224920714182
-66.6343827238395
-62.9901780290988
-60.4837189201051
-59.6173440120443
-60.4328012819043
-62.674280209277
-66.1673986385869
-70.8748158900202
-76.5657968121902
-82.5528788146978
-87.8537172275648
-91.6112963153027
-93.3544209442066
-92.9702536427443
-90.6195300458608
-86.753617774811
-82.0646549195633
-77.1767818135244
-72.2670585521036
-67.0379941174095
-61.1275542788731
-54.5095662311793
-47.4373246345193
-40.086953801452
-32.4870401325348
-24.9482580853007
-18.4540547672719
-14.3513874014156
-13.4604163829695
-15.4839714310103
-19.344764032836
-24.0483718883578
-29.1110068663845
-34.2019958963335
-38.6627095656311
-41.6884953961735
-43.0390319227148
-43.3694866653182
-43.671635914512
-44.4011400269602
-45.2616861249607
-45.8094156208466
-46.058505457449
-46.352226560747
-46.7694045528991
-46.9348674308759
-46.5201603931682
-45.747199587251
-45.1517736509533
-44.8243363519342
-44.0681153804738
-41.9351302563561
-38.0205682822864
-32.6064685926017
-26.1094076940806
-18.662999729883
-10.4100099260813
-2.0486788371088
5.23958154765168
10.5787000799071
14.0377636563084
16.3823896196487
18.2704574224716
19.8615588696803
21.1970936322096
22.6726388272248
24.8394409121798
27.7401667474888
30.6971334533891
32.9450209995682
34.3967024887261
35.6067819412308
36.9819708611373
38.2248403318294
38.6760262699886
38.0601684977131
36.6523864370248
34.6914275234789
31.8981329188648
27.8472924749665
22.8184756455636
18.073091462677
15.1531352471341
14.9443631261388
17.4491066328785
22.2755754895408
29.0244370506225
37.068489248982
45.1699972492602
51.6631485321293
55.197766172419
55.3079419467367
52.3006270590276
46.7914953987968
39.5143441900857
31.4620345835727
23.8603574518635
17.7426754348144
13.5705314623621
11.3962017451561
11.3405269438906
13.6795281855909
18.3532070020688
24.5774247394274
31.2106841329679
37.526621476517
43.4056750567752
48.6619025382247
52.4338144803583
53.6262068122779
52.0512088546628
48.8654136248479
45.619587761797
42.9495740481506
40.4466936919602
37.7875749080025
35.5803869302532
34.7356452984757
35.1341891547105
35.411363472504
34.3487299258306
32.2781977396678
30.7664024741702
30.9353023849345
32.4627406380815
34.405904742794
36.6332492876452
39.8926359976462
44.3948513114229
48.839393589655
51.3298533984813
51.1858410889969
49.4411201934907
47.4599545522194
45.487534958853
42.9433436522622
39.8773628454177
37.4335084259634
36.5476794463573
36.6120350816702
36.0276816065635
34.0676971705224
31.6237634783714
29.8406416010002
28.5614135552809
26.8910191704007
25.251210904931
25.9066881239841
30.6320534338978
38.1464704722142
44.8664556094356
48.58305607604
50.5321801994921
52.6899731728741
53.1092654570447
45.5053621136718
25.1927415147003
-4.10173236317213
-30.2125278502902
-40.5881168309624
-31.4777222459952
-10.1859860874489
10.8046854424735
22.0847520047248
22.1164146282872
17.7777572061666
22.800298460531
54.3922207395306
126.502741134933
241.234967500696
384.886483022665
534.157700380929
669.34341420685
783.364401324549
878.220631850724
952.645482768715
993.887210039755
982.483018315807
905.719917513712
767.258133877633
585.326626564727
383.461135644988
182.984719227942
1.06112909961433
-149.506522057409
-262.850011739683
-342.89899803422
-401.145235048642
-448.764117830329
-489.695655116574
-521.281339523151
-541.082477167452
-551.817797125665
-558.985591168955
-564.571477298169
-564.776212999614
-554.722611323099
-534.790991036695
-511.42582226983
-491.701272847526
-477.72082280332
-466.386863764226
-453.64490510234
-437.940278744053
-419.835667644068
-399.791560778945
-377.58013588809
-353.646346491849
-329.793930894205
-307.728588244594
-287.267642580493
-266.735980875042
-245.224669009806
-223.863587920104
-204.465520940008
-187.265508983898
-170.613831052484
-152.961010060142
-134.610110902608
-117.141707011358
-101.435949605973
-86.8709521476033
-72.5659534820913
-58.8598209354503
-47.0538537927252
-37.8418712133202
-30.5441795366485
-24.0978577321111
-18.412022485906
-14.2982855049231
-12.1509490510958
-11.1762525822495
-10.133660911953
-8.48813808774081
-6.39459212396844
-3.62986092790361
0.907641743072297
8.25913971980217
18.1420685149938
29.0009069451436
39.3415275521568
48.6763129148328
56.9867268994664
63.6333178797101
67.3942079513563
67.7666490353319
65.8725702923415
63.6830923308793
62.3829918221753
61.7942144504334
61.4219682951529
61.6335583403821
63.3910473600962
66.9227986102879
71.1502699566196
74.7165351779899
77.3706188364682
79.9799957589467
83.1914738778383
86.4634036301776
88.6661162051785
89.4183853429768
89.4334817696457
89.4944910445367
89.4564718020497
88.5777956372052
86.7028951553358
84.7131873042618
83.64269537006
83.5880298132929
83.7697496933458
83.5907973399229
83.3045395946012
83.5163208339407
84.3049801215561
85.1818849345496
85.9017982343238
86.9698873662392
89.1086471276871
92.3507162880152
95.9154025752551
98.9815960072633
101.322561387655
103.044057223697
103.940749435209
103.498898654566
101.633530366491
99.1567627293073
97.2469471868072
96.49048375171
96.6512378942306
97.3817896923442
98.8670622892222
101.521860728979
105.182717164237
108.971223541952
112.145567700265
114.915652760773
118.165179848048
122.387342210431
127.138631511455
131.64321355125
135.708751761993
139.753974184009
143.950575085092
147.659797528223
149.959639538696
150.629197799618
150.354537149344
149.915976548114
149.396049166751
148.361462298616
146.682456106998
144.867780267204
143.500441593406
142.56621714729
141.570960730312
140.254744954476
138.919105489911
137.932555341418
137.095670421809
135.720273158067
133.299636620236
129.863628769475
125.580755080472
120.22833640973
113.337610725216
104.865870927399
95.4601031674376
85.8647528479833
76.1721928757929
65.8732439823128
54.6465022560245
42.8579595004344
31.1253023684913
19.552909529266
7.70555350426163
-4.57985936240517
-16.5891166985294
-27.175900972044
-35.7819473243955
-42.8202343726496
-49.012967448282
-54.5787072375823
-59.2853195214991
-63.2001057018818
-67.0466653614468
-71.6169086896545
-76.9533366220683
-82.3393407417909
-87.1059184097967
-91.2462585860038
-95.1390085712487
-98.8636751617369
-102.071164446914
-104.55360079045
-106.681605088367
-109.058983481158
-111.815331813168
-114.456859756068
-116.45562198214
-117.788354820348
-118.745423531041
-119.350569719067
-119.259562103484
-118.317911852992
-117.003459128512
-116.088775907002
-115.913061354061
-116.21741946967
-116.763930168773
-117.88559731294
-120.169106252138
-123.634522151298
-127.502717888471
-130.913388537561
-133.69172094959
-136.152079531572
-138.180611787896
-138.835282483581
-137.093057159297
-132.895243761135
-127.208299211325
-121.0275140347
-114.567650914483
-107.608347585855
-100.448327045314
-94.1341064054516
-89.5862974990075
-86.6996662617157
-84.553727125169
-82.4702769149439
-80.6156473795887
-79.4913440073747
-79.101538916389
-78.93393408156
-78.7325258943372
-78.9552957535124
-80.2407783800766
-82.5552272639023
-85.140036923579
-87.3281882967924
-89.1584456887077
-91.0102166506654
-92.8084792815754
-93.9218536465769
-93.9241274122415
-93.190161962075
-92.4744863299982
-91.9617893502554
-91.002131255694
-88.8732928450951
-85.5876385395171
-81.7291527885176
-77.5995984136385
-72.8462256135672
-67.0580657334845
-60.4908615102572
-53.9029506691671
-47.6936798200045
-41.4960173495843
-34.7800735560171
-27.6688457222503
-20.886902944095
-14.9486481756394
-9.73767000109029
-5.08625667531035
-1.53860557913143
-0.127118377097455
-1.27003052147258
-4.14490294868489
-7.39002687376398
-10.3066626106656
-13.0729010692313
-15.7629387109273
-17.5565038465969
-17.3108714564523
-14.8667599775089
-11.4042705706388
-8.28449402327368
-5.7170957394413
-2.83277636607131
1.01719651657861
5.41786912243388
9.52208432668564
13.2314122255245
17.3101555049843
22.2466121069965
27.3306655369721
31.1421812612721
32.8383472350132
32.6672354527187
31.2262490125027
28.6175084075571
24.6644666661738
19.8069569037847
15.3280794990278
12.4855634350285
11.6364359516755
12.4626432746097
14.8948833484844
19.3761681256766
26.0489326871676
34.0143552971906
41.8116902400818
48.6204850484201
54.6278471273953
60.0583643125407
64.1979564845596
65.8480585777486
64.7565938628208
62.1617445262172
59.6246284516962
57.5542266640145
55.2893812715248
52.5842603789399
50.452697630371
50.1226446147141
51.3831006296871
52.5342299481213
52.1477691298968
50.4662002947381
48.6824690883335
47.095449557132
44.6285622020547
40.3966478097138
35.2293573161084
31.0178274214972
28.6042742760462
26.9436936575243
24.6861377798014
22.1405399264846
21.0120865870993
22.2150067553556
24.65632442418
26.652883167632
28.1137378011655
30.5005967296161
34.5054705359472
38.551238575872
40.2959928459176
39.3366356647599
37.5527563122229
36.5691693218717
35.7762607037367
33.79690330375
31.5989024380899
32.7831745174381
39.9082237173939
51.1336160458955
61.7276917479618
69.046662432092
74.7332367612642
80.8188722227842
84.2479972458684
77.3432023894491
55.3433426862106
23.3733508944399
-5.30680973030273
-18.9325486421447
-15.5470405978208
-2.59533550985743
10.1928384484918
16.8600937707257
16.3135957696227
11.7189595002733
12.0147945692263
33.0045938459401
92.0309823104873
196.392231411014
335.037191359239
483.149944032729
617.409456780315
728.22404813109
817.616512941176
886.100848721606
923.081252005102
910.898436405244
838.001155567866
708.129950660637
538.237682892831
349.852573391741
162.830811450306
-5.98890730316627
-143.805745725719
-245.673740721253
-317.360988898569
-371.67215370879
-419.410461567988
-463.149093663532
-499.730457336324
-527.799061866531
-551.121741700037
-573.845389602792
-593.83228569431
-602.794639910222
-594.024941370789
-569.546250595805
-539.000402449603
-511.692264593658
-490.201271869042
-471.284877229931
-451.447823653781
-430.436286730258
-409.846837769098
-390.148414538221
-370.304932705395
-349.844070936109
-329.936418855702
-311.839225937307
-294.941082895643
-277.235172698015
-257.737534454868
-237.734434906051
-219.251669965656
-202.689036238675
-186.511047672009
-169.162156786877
-150.653560880656
-131.974865463753
-113.437950686569
-94.3046984423712
-74.1243839625362
-53.8584986975699
-35.2140719842152
-19.0388100390544
-4.83590466227784
8.09907372856522
19.5519481485951
28.7760238363893
35.771769286016
41.6385614469599
47.4730834783218
53.2786372635915
58.341594488117
62.559393259359
66.928243059775
72.5143426893501
79.2339604577453
85.9975805744718
91.961571946704
97.2096578904498
102.024002737085
105.843934067521
107.448148566724
106.257582553367
103.128822744762
99.6183798068268
96.636192469502
94.125817338154
91.9978206426187
90.8978688623133
91.6779161055664
94.2409963957985
97.3350034098086
99.6744870372737
101.049498039135
102.094826451497
103.112139354386
103.511108018146
102.56000895195
100.39886847722
97.9488805445655
95.8329233811634
93.7307145474185
91.0187967800719
87.8638947813433
85.348645029385
84.4534653060431
85.1568928838661
86.7081368904662
88.6041942714852
90.9707369059243
93.9296498502125
96.9087365771582
98.9066876173349
99.4450467034951
99.0308532340494
98.5786716472492
98.5326819399684
98.7112682043358
98.8843584393998
99.182637318938
99.7925452204363
100.443799210544
100.495073844206
99.5996263605669
98.1366774088891
96.893827830801
96.4423925284866
96.9653043275181
98.5957492063821
101.61474655374
106.116459336018
111.587531055355
117.062597437037
121.780245429318
125.576817263126
128.581632650555
130.697411181716
131.613230227547
131.331211549418
130.433871621734
129.632914328848
129.132603839269
128.659469083667
128.164438987743
128.279589961142
129.863732646969
133.127713636362
137.395479097093
141.765801262415
145.799152525178
149.355567014598
151.866925315814
152.129386008307
149.073793478668
142.696680145579
134.057760795074
124.347665286704
114.114200006045
103.445689312795
92.6580480229218
82.4436058312471
73.2381714818688
64.6606059672583
55.829133142718
46.2405310610938
36.1816695586076
26.2467419712706
16.6467726480513
7.17779949356846
-2.22193889324917
-11.1728463704525
-19.2606346287878
-26.591442239382
-33.69415269649
-40.820144670266
-47.5052367894653
-52.9521235085664
-56.7632871255176
-59.1472949986366
-60.4456336525676
-60.7043636237724
-59.891468205353
-58.430303427744
-57.2428880246119
-57.1167931346907
-58.1052848268338
-59.6573774041164
-61.2715964009321
-62.8577397110975
-64.4497641115613
-65.7977798217394
-66.4946714402261
-66.5138985482996
-66.4156554664293
-66.866250097428
-68.0089109563912
-69.4414271663501
-70.8017322844912
-72.2151176354285
-74.0763989113694
-76.5161853498456
-79.2796901574058
-82.1551953933233
-85.3329714637079
-89.1554463347054
-93.5203541601984
-97.6673620821491
-100.618940940893
-101.773373084022
-101.044396659514
-98.5764689428189
-94.5602497170118
-89.4075503221385
-83.94766467625
-79.2219865583727
-75.9857656035355
-74.4310642728423
-74.372235920516
-75.5693696788358
-77.774243760457
-80.5581317601836
-83.3287883208862
-85.666726224078
-87.6023421265214
-89.4526791186403
-91.3836548901213
-93.2275380840065
-94.757438905282
-96.0292674555861
-97.3425927471532
-98.9176052387517
-100.77571809483
-102.996799010091
-105.94149831894
-110.010121161325
-115.13156524906
-120.600216730138
-125.488166007502
-129.138427362312
-131.167300614913
-131.106296998739
-128.351614590819
-122.68511708096
-114.772728853793
-105.905468920263
-97.1133627648292
-88.5897381849104
-80.036140231692
-71.4298153878982
-63.2236300466797
-55.7604542613567
-48.7400972982472
-41.5407553008428
-34.0867544361413
-27.1932164472966
-21.909354563348
-18.598291709254
-16.7949482414628
-15.901924706379
-15.7805603266255
-16.5304728689144
-17.8664359509724
-19.0208663939229
-19.3700103101099
-18.9982449702223
-18.4806484921553
-18.1734212522145
-17.9111143208347
-17.4342180772526
-16.9065634870178
-16.813628019618
-17.4139488003697
-18.5260575707077
-19.9457294050134
-21.8862858163671
-24.7718243971683
-28.5953418449402
-32.6806781015565
-36.1844307677875
-38.7030949706915
-40.2322555319568
-40.6343254597899
-39.4668511074669
-36.5210690640101
-32.3719116501336
-28.0998708536868
-24.3854980204866
-21.0445227734251
-17.5601513199976
-13.889680288377
-10.4676981714243
-7.42002470155289
-4.11981023023249
0.171892008095526
5.29766213886685
10.1504164138319
13.7641945960195
16.2661190997942
18.5325762850625
21.0267106088633
23.3477451924542
25.0921921198792
26.8757126274643
30.076887591119
35.4738064076878
42.40596564009
49.4947004048532
56.0181221669089
62.2330485160849
68.3059104472506
73.3038183855444
75.6124108486607
74.3152740852869
69.8604618414395
63.286172939972
55.1092388698539
45.3170049278836
34.3658547261418
23.7444662110087
15.2584259374773
9.88211346040606
7.53998899887355
7.88745178633017
10.8640215059751
16.2494045945337
22.9869016438683
29.4729943388739
34.6873429256329
38.7718115151068
42.2868015414274
45.1350707382956
46.6367139939009
46.6754670779244
46.2673258049183
46.5465088666941
47.3172601040344
47.1085083194184
44.8603152899428
41.205108096479
37.6899519220986
34.8852989339722
31.8045763686302
27.3945212097361
22.1294698264196
17.5515527833756
14.2978088997107
11.2331656112019
6.94295748692348
1.73159853496338
-2.45461265682361
-4.05119315413293
-3.13779195317425
-0.319866510380816
5.00550291334335
14.21394958767
27.0550621431526
40.5723151416809
51.3125214356408
58.3923928660498
63.3986776239909
67.0298034334495
67.0659114699381
61.096150363752
51.0698150990615
43.2843841944856
42.3539068740312
45.7909560465534
46.518866258353
41.5162809949401
36.3154762436471
38.6993575550799
48.133788054768
54.6839746868639
51.8758425406311
50.9361881189582
78.9809739495007
158.964122385759
289.354855796805
443.859334809624
591.811906940534
718.658180048805
826.42775230648
915.992175969676
972.340903278759
970.057140900721
893.716145453149
752.039144492664
572.043101395481
380.679739784363
192.822462976992
14.8487357734693
-144.883394777961
-273.270914713772
-360.895640618426
-411.295653335908
-439.903141351138
-463.222052845297
-488.892054838491
-515.040919219892
-536.936239395741
-552.667819229739
-563.096055621131
-568.655048361855
-568.017079383723
-559.80118200892
-544.460614464186
-523.999896756676
-500.439427718181
-475.19123995261
-449.584875843759
-424.973787649826
-401.774800441574
-378.849199530131
-354.601201138921
-328.890815826928
-303.4832421366
-280.353272758373
-259.797893785131
-240.563766327886
-221.69791541575
-203.762245946374
-187.99987415305
-174.683494237729
-162.799905615573
-151.364616265437
-140.552656289946
-131.190416259747
-123.372018414678
-116.063472273279
-108.163826025899
-99.5513236495956
-90.7361341238529
-81.6712525684741
-71.4141561246566
-59.1706136478892
-45.3692273439214
-31.3347749667689
-17.9566106077091
-5.05707386051941
7.77591557480039
20.0700410263834
30.6215024515584
38.795602039231
45.3160556683265
51.5072378487545
57.9228174756497
64.0533782666959
69.3895368506959
74.3819161956713
80.0220602441795
86.5934601376517
93.2239015226234
98.8301426368223
103.2642048911
107.248319438691
111.264776652069
114.875113496698
117.319290012917
118.558648275438
119.378880955174
120.424339957348
121.41676966349
121.540084212857
120.457203337116
118.656999825679
116.759719538322
114.763047722368
112.222764313964
109.079677419425
105.99593833176
103.743128412844
102.446028813563
101.651227260479
101.074662260171
100.997426408517
101.792000766444
103.257031793061
104.703745878686
105.718939021147
106.598179662221
107.855711620499
109.439476031511
110.687946169719
111.102046208716
110.927257307724
110.772637118722
110.748472404568
110.247921352137
108.680957844913
106.241063361059
103.734523928576
101.695428178671
99.9102916419919
97.9357888678479
95.9214322223662
94.6775558453794
94.9067257494671
96.5649014948472
99.1092257863588
102.23982595763
106.154262879402
111.027289533587
116.454672748987
121.622397637354
125.996503725757
129.666100649673
132.95779078627
135.891080579376
138.198815679643
139.826353722748
141.161203582868
142.617968063755
144.097526909786
145.044348534626
145.057327212859
144.28601288148
143.128361118359
141.66427659275
139.595599210051
136.771675729878
133.576808716606
130.611696021257
128.02406805411
125.326557467301
121.942008945699
117.805738377273
113.304362494039
108.693255658326
103.782665207164
98.2876372260505
92.3391786588626
86.4368453843318
80.8614339513158
75.2835629042531
69.0638706716397
61.8676656674827
53.8504434245783
45.2651575884611
36.0907481775102
26.2009811996726
15.8178849786605
5.57754966951494
-3.96067448376259
-12.7792868774185
-21.2657971687715
-29.6613777560685
-37.7986495684405
-45.4240323124221
-52.6158249425356
-59.6935687169788
-66.7200985634144
-73.2797051536342
-78.883914704625
-83.5314928422246
-87.7189809765586
-91.8817884803109
-95.9624943018052
-99.6203554737514
-102.755767449394
-105.62770543485
-108.407265795538
-110.78658221417
-112.217575977041
-112.534331636453
-112.187369785459
-111.784439544949
-111.497172755726
-111.04228422398
-110.195971224695
-109.131150008752
-108.140702310745
-107.149494156972
-105.713178687675
-103.565590401394
-101.044675844554
-98.8562179640221
-97.454474189397
-96.7679388710074
-96.5181618178901
-96.6265842569335
-97.1622462097065
-97.966975601487
-98.5593168791965
-98.5374018830184
-97.9990341712683
-97.433162865063
-97.2068789801478
-97.2782255767459
-97.42828453557
-97.5906735097577
-97.749475337565
-97.5389695224127
-96.1967584064895
-93.1321860568493
-88.53470137942
-83.2893321662184
-78.2744965764741
-73.8831614270144
-70.3089803857569
-68.1144315993367
-68.1787530839083
-70.9116023746848
-75.6421369607964
-81.0037915207061
-85.9639994463711
-90.3408241297654
-94.2548343556872
-97.2691734005631
-98.350094775115
-96.7464709845159
-92.725547432367
-87.266598733136
-81.0944868649858
-74.2259531173839
-66.5271410114457
-58.5100283347445
-51.3202797877702
-45.8980882877066
-42.3052230406262
-39.961888008569
-38.4083233184111
-37.6479189741438
-37.7811200760944
-38.5751586395745
-39.6151613829558
-40.8206452856511
-42.5854624635017
-45.3036837080358
-48.8691933645427
-52.7603049531556
-56.5262810567444
-59.9765635847196
-62.8444788964746
-64.501295220246
-64.295667352433
-62.2296389454571
-59.1090665751494
-55.8614667162362
-52.7496725490849
-49.3796624285682
-45.4310028269366
-41.1441757416324
-36.9434101775307
-32.7350882145582
-27.8962933906977
-22.1052387069059
-16.0422844097746
-11.0573200023795
-8.11288635496772
-7.16539803940961
-7.57914611830014
-8.9127286435094
-11.0564584193838
-13.644285511383
-15.6590758245356
-15.9108254954391
-13.9242089457009
-10.2123756813433
-5.64945467732691
-0.725942810792803
4.47847975096365
9.74924478864736
14.4695826461262
18.0305720293499
20.3627378156022
21.8609170072608
22.7916111003048
22.9680204939802
22.1240129532039
20.495807124756
18.855985345648
17.9702638315559
18.1770535049859
19.5581029785833
22.3215919384014
26.7291348902489
32.5679385099451
38.8812907560317
44.4279651402761
48.4307405387749
50.8029212578529
51.7164259872733
51.2031048876278
49.3549297135915
46.7831577024103
44.5538538631519
43.4765990982704
43.5283904278462
44.11136739138
44.8260982597315
45.8085528351455
47.2731515514784
48.9521999445701
50.2334650429095
50.8215492603446
51.0001344734662
51.0848342940741
50.7715119032535
49.2953646453177
46.2884548912787
42.2935539694057
38.3128522387158
35.0114078991947
32.6049196122453
31.471424889493
32.4644901975494
36.253016931787
42.3770179424644
49.2605679292243
55.3244806459773
59.9540031157406
63.24401697174
65.0210845121136
64.5817895883111
61.6019293824438
57.0072575220489
52.4860792618387
49.0271960356378
46.2092944401651
43.1248080582646
39.7786672294851
37.1883137652423
36.0828881988255
35.9312133530542
35.6111250758899
34.8574340947943
34.536768514148
35.2956503504249
36.3174363318074
35.9021528160849
33.2723116044762
29.376822063167
25.7025570138762
22.6701131290402
19.7213469932306
16.9262552731893
15.8066095612507
17.9892605621899
23.2009532914767
29.1975611939419
33.8978961232138
37.1495993102959
39.9447103140061
42.1855421863358
42.0678179530905
38.1082428504562
31.2932477193654
24.4188494074152
19.1793388961964
14.5686660738346
8.67749183834604
1.67716959700896
-3.85798025771511
-5.85333009411449
-5.26437089265429
-4.97008361908185
-6.3214206668931
-7.64542026106603
-6.52872187344717
-2.85553149185067
1.33970589927457
4.84342975814748
8.81397767584201
14.5129153819134
20.1807835125014
21.6933079215064
16.8796192520322
8.11424238230417
-0.667378206183031
-9.20478472870571
-21.3743977724411
-39.2824737524477
-57.9931651643575
-68.4573266150271
-66.5167300676728
-57.0063431571973
-45.8688564751937
-27.2697438242458
18.984765079291
113.195760100453
256.260593755363
424.155641812588
583.121260734616
711.687748428652
808.802219706669
881.671466092912
927.471088327928
928.45526967527
865.429388625445
736.000717544977
560.288964177124
369.930984872667
191.365136476452
36.9348690055021
-92.5047387447
-200.057960551087
-288.166708426878
-358.763507688245
-415.001214213171
-461.519753231582
-503.039296951165
-542.487988310301
-579.469687193625
-609.732200511072
-626.756045989346
-625.760422936596
-607.854876245092
-580.590107061888
-553.55936665205
-532.36286265109
-516.163639642026
-500.672036158297
-483.084586740979
-464.014372492119
-445.234979231918
-426.627983066911
-405.99957567593
-381.603765225059
-354.104966162236
-325.7967345649
-298.366462039327
-271.968052679304
-246.351130648147
-222.174818391009
-200.682240348767
-182.254433472267
-165.81822128815
-149.897670679593
-134.000492369994
-118.736421684355
-104.772016583804
-92.0962026323473
-80.4221013495186
-69.9360017623234
-61.2119329681806
-54.3415738087327
-48.4267867983854
-42.0968987228109
-34.3881272430851
-24.9618647871296
-13.6415689257282
-0.161185410270834
15.403751454858
32.155013346749
48.6643667595294
63.8372779589286
77.3182242703297
88.9695447446015
98.1982763172676
104.141826155775
106.576479104695
106.384741545194
104.916276735607
103.0027055061
100.861656151407
98.9678132338408
98.6490396318142
101.432858018758
107.748460407327
116.479398136984
125.893572822248
134.844930001405
142.899349875965
149.474348375502
153.351342263415
153.401695698397
149.738000158586
143.853500354137
137.481771976412
131.424947521215
125.573583104893
119.852718483666
114.771578999358
110.907130702836
108.097070950008
105.485927488815
102.435912555987
99.1844296036145
96.4492505643729
94.5041650446842
92.8693196615481
90.9311323044101
88.6419656224499
86.4345229587067
84.5693109677744
82.8626535785489
81.1859188450002
80.0542348289879
80.4562399805456
83.029993994967
87.5236938902883
93.1294191729966
99.2158564176178
105.57146845796
111.987674112787
117.888008455143
122.611283690524
126.048734938276
128.82060272935
131.720159618757
135.043650349437
138.532129569048
141.875882575538
145.08642520849
148.314294510825
151.462634063259
154.191482053594
156.341459068844
158.212233934034
160.297577011282
162.772343644635
165.335001127542
167.547943728768
169.208637332155
170.312028431982
170.753033646245
170.264403685503
168.735999683872
166.49899506113
164.146049616478
162.028575103393
159.987918456916
157.599635124061
154.595399305114
150.955792263844
146.635253182942
141.364705208383
134.855937724048
127.179565831942
118.829868734188
110.357724776783
101.975122512907
93.5570805078017
84.9819504604655
76.3774146533318
68.0170034706002
60.0689014492225
52.5438701878377
45.4761753953414
39.0463615029603
33.4411110649625
28.6040989810114
24.1806118131046
19.7185623932733
14.8930045730292
9.54705965248377
3.61559894450198
-2.87301743363951
-9.70018803235956
-16.4567082597577
-22.7499446681629
-28.4515242849889
-33.7258787715485
-38.8219779065374
-43.8829538214104
-48.9709957608782
-54.1914050260507
-59.6548111589897
-65.2524593463163
-70.5336670579674
-74.9288048514231
-78.166467473236
-80.4709945658773
-82.3472154386242
-84.2190548232533
-86.3289673582417
-88.9490198582121
-92.5420863060459
-97.5634141866426
-104.057580276767
-111.510784707386
-119.170615929561
-126.52265574877
-133.436217902936
-139.874579837362
-145.558105962211
-149.997610959357
-152.861922378412
-154.251290537815
-154.567560365477
-154.141064614707
-153.036896724232
-151.231692387166
-148.919291845713
-146.569812665196
-144.659137154482
-143.349931377931
-142.443181772532
-141.626667205653
-140.765431528622
-139.985153154661
-139.530964380782
-139.575081447897
-140.135251411083
-141.120336874531
-142.401596620216
-143.803507644231
-144.994489060907
-145.369206308294
-144.073973757342
-140.264118806625
-133.498227044561
-124.007419876353
-112.619742020588
-100.393875969743
-88.276952238408
-77.0533457729905
-67.5069354890895
-60.4511209842777
-56.4272760041271
-55.3081817327856
-56.2623900084627
-58.2270293371958
-60.4976328940368
-62.8901660855421
-65.379346642535
-67.6854047617659
-69.313299991078
-69.9932459335144
-69.974822994615
-69.7838581533498
-69.6871439579802
-69.4689941031123
-68.7676421340772
-67.56516656342
-66.2525932222828
-65.2064718797583
-64.3932005196919
-63.4683913584825
-62.2339548679261
-60.8969914153479
-59.839149196681
-59.2059586027602
-58.8185682063042
-58.4785845291601
-58.2414298083804
-58.2933040095
-58.5859650381469
-58.6952476718543
-58.0897671120881
-56.4971251915404
-53.9673521387287
-50.6408456498774
-46.5842587069105
-41.9120148248265
-36.9852559392999
-32.3538992353499
-28.4454920950361
-25.3473156687416
-22.9147117142502
-21.0233852402576
-19.6250072365441
-18.5715013101113
-17.518008261211
-16.1150056057324
-14.28199491186
-12.1979976796687
-9.9935667362552
-7.53565758046232
-4.59788842282854
-1.20116015244824
2.3393673278625
5.75562901545718
9.12445400095504
12.7136607188381
16.5502328358792
20.2758853440965
23.5139731595984
26.304679121001
29.0417249241077
31.960687594334
34.81324774146
37.1457285780365
38.8353927478887
40.2038357034132
41.569406671922
42.8299366190806
43.6320126761028
43.9149002317441
44.1121606505189
44.7232173911768
45.784863312157
46.9107305216769
47.8340746267572
48.7403844612309
49.9674040105317
51.5009164506773
52.9728934231904
54.188947572797
55.4713079154739
57.3095597644858
59.72605062147
62.1775980455738
64.1446733830413
65.6570639926495
67.0733751518103
68.4175656794917
69.1889324865819
68.9578283624537
67.9943670718591
67.0652499053012
66.5793502273091
66.1323262466469
65.0335911801449
63.157144380388
61.0441315656145
59.1584722101633
57.3043938974479
55.0002844046036
52.3284422811265
50.1166393231376
49.1513878782786
49.388659545377
50.1473439198404
50.9993306004727
52.1774237448046
53.9967158940959
56.1340661240997
57.8174476374316
58.7330063605798
59.424399503983
60.5732791567538
62.0509167913261
63.0010434006983
62.8788010600863
62.0632722783097
61.1779714252841
59.9990696227184
57.4851352118469
53.0438243901393
47.4477908279348
42.1317822683652
37.6699983181495
33.3828737248378
28.6401044767747
24.1923212021611
21.7106213175674
21.9773732082395
23.9867087107302
26.1450622752332
28.0715524563702
30.6620258958707
34.2938911524298
37.5285322358217
38.1483626382293
35.3936635499905
30.6435507249648
25.6917832194016
20.8204841385343
15.1113287132295
8.48351620671622
2.63325872209359
-0.544170360095958
-1.11087112216552
-0.997500693940072
-1.6987537653743
-2.67900557132426
-2.47941948402923
-0.90834488881616
0.766310208410733
1.9340708418609
4.02349433486521
8.85427489301311
15.8196478271071
21.7549889209119
24.0977143875035
23.4085181428636
21.7505261637361
18.8694192970349
11.5945100411117
-1.83441383602021
-17.6570494784434
-28.7458133070411
-31.6878665569957
-30.4415504126375
-31.1759691916198
-33.6497088936409
-30.0656364115867
-14.4613337375896
7.73976290388336
23.0386602555599
25.6635486517456
29.9752963566976
64.3183982625399
149.361191528686
280.680680660272
431.972732265934
574.784095459132
694.867876416574
790.692067403523
859.444276300473
888.157892794934
860.012256613525
768.454966878688
624.167834412926
448.953408795159
264.397682696781
86.246679607773
-73.5786475899976
-204.302807254236
-298.647946940396
-357.742967858066
-391.929759783034
-415.254498832612
-438.291462083636
-464.992127907529
-494.267282172427
-522.769341345
-546.31831184825
-560.7835629745
-563.823684282843
-556.429411711872
-542.096094324255
-523.971694758555
-503.167546849726
-480.25432551111
-457.780876389995
-439.915498606199
-428.750579987135
-421.402168843512
-411.80674746683
-395.883694419248
-374.692585611893
-352.36922438814
-331.490659110218
-311.123313434345
-289.232952668619
-265.949482499833
-243.613045919327
-223.859812895559
-205.603062386757
-186.343795960909
-164.999918299913
-142.832240511045
-121.770203941689
-102.645551513879
-85.4473552117105
-70.6323475479826
-59.1120831092619
-50.6410166997749
-42.9291986980305
-33.2005588292327
-20.7542716697782
-7.53354858291168
4.05733528381817
13.559105833058
22.3678187025223
31.5533269587827
40.4613698767861
47.7597077595239
53.3927081190288
58.8520644322394
65.4701721222435
72.9898785365205
80.1870969577037
86.5851486800519
92.9477081896936
99.969924102107
107.022724040906
112.717251593881
116.612045587262
119.842495995609
123.82949723164
128.689667353786
133.306128732068
136.841482790521
139.664858138636
142.547076569155
145.313734025929
146.839981258567
146.452758633472
144.913927490491
143.67863075654
143.344230449693
143.210407436051
142.390318528522
140.93550317197
139.5376109069
138.335711403097
136.54397169536
133.472613067035
129.604491269187
126.262591952609
124.223095835315
122.98694940251
121.547303593506
119.564490703294
117.422095769414
115.218921102864
112.209805154794
107.595061609011
101.699430300972
95.9651066641622
91.6557598587416
88.8129689463316
86.6731820965082
84.8854978593996
83.9095500675485
84.145564262442
85.0750667857152
85.6849758642862
85.7253360270667
86.1902069988046
88.3485455550862
92.4736074731726
97.7680030919564
103.436673343008
109.452949027734
116.091553001756
123.002217020982
129.20036260922
134.086691783081
138.183446019769
142.588154379557
147.780850237107
153.227589478646
158.165264739532
162.45031072492
166.37534742609
169.820692678243
172.025261461835
172.405845907972
171.383737174439
170.080551454691
169.181202586135
168.342879014948
166.822427078111
164.428698538778
161.544015953907
158.263968479606
153.924710464119
147.77766866312
139.992053258202
131.626512363352
123.481583082342
115.20117870136
105.722680988873
94.4959953457385
81.9603876275209
68.7820060082223
54.9849980046621
40.2240063628223
24.8912721534601
10.558701419075
-0.996824608997119
-9.17638093768799
-14.8117715847519
-19.1190425228136
-22.7029450060121
-25.7320656769616
-28.7966759335659
-33.0864273696104
-39.4822316078754
-47.6523163856585
-56.317433400606
-64.4196144096102
-71.8449313900875
-78.9735076490118
-85.8021961842592
-91.8095536542298
-96.6424776308527
-100.598798830935
-104.202615319509
-107.432993152914
-109.663527045089
-110.449175374895
-110.190619206631
-109.865788748459
-110.204388141517
-111.325301932978
-113.154047737652
-115.879108251899
-119.715721153356
-124.27837038345
-128.494594413938
-131.346140098478
-132.644319812863
-132.968609638394
-132.930880364744
-132.716538868076
-132.382808350459
-132.328082276888
-133.126800891373
-134.840553247578
-136.721223542584
-137.804096382086
-137.765811300817
-137.06682059714
-136.287181471124
-135.541935825033
-134.664527429153
-133.768774536671
-133.29393842883
-133.378178559083
-133.391870544706
-132.348803041218
-129.809421646645
-126.234294768345
-122.411004240564
-118.710847849222
-115.067897007929
-111.559861174764
-108.664508840774
-106.737363530392
-105.372466579973
-103.56592231427
-100.621309112676
-96.7769291294213
-92.852267006113
-89.405768781763
-86.4328698300001
-83.8469512228626
-81.9402338351575
-81.0968725784344
-81.1059697691578
-81.0461315898457
-80.0300390344684
-77.9861863338079
-75.5748453168399
-73.4021641708975
-71.5264334356467
-69.7803496667474
-68.3143984346998
-67.4964963102277
-67.2374172544132
-66.6877918408841
-64.8627223490764
-61.5596977713342
-57.4992079062284
-53.5393671528396
-49.9326459798737
-46.4725941832167
-43.1892415601008
-40.5506060170239
-38.8308842485827
-37.4869473080504
-35.4760374159205
-32.288277820006
-28.5302306338534
-25.3898875490254
-23.6255705442624
-23.207307578795
-23.8328421023553
-25.4480005853565
-28.0138941862682
-30.8723531126317
-32.6770050269742
-32.173252764399
-29.0288192305124
-23.8377253691444
-17.4184738692505
-10.2970184828069
-2.85951767362859
4.30074067211827
10.5270878931155
15.6376330854255
20.1035335978226
24.5124927663672
28.9025553610056
32.7583775316982
35.630232121719
37.5574344469104
38.7890549013454
39.2762821639756
38.7312053086255
37.2493533352176
35.6394405805457
34.8792755866685
35.2270027967617
36.0226323050115
36.4147804679307
36.1354589009473
35.445563919608
34.4784060424001
32.9719475708651
30.803527552612
28.5920948182575
27.4510421074388
28.0398266122197
30.0013151864323
32.4418839986757
34.8416235707156
37.3032540905356
39.9666601382521
42.5134411394302
44.5152152583877
46.1735821782052
48.3777357505376
51.8366335293247
56.2701358787226
60.646045991326
64.1789027442226
66.8861712792719
69.1177313495765
70.820215379773
71.5996712166124
71.5065082522068
71.4052779387745
72.2566862806313
74.070997994239
75.811654337334
76.3989852009343
75.6071588360349
73.8248392563421
71.1471750244464
67.1283872030346
61.5977138006435
55.4264427954836
50.0590776602094
46.1742647464901
43.0442663324239
39.403660544313
34.8093434237285
29.8912348912183
25.3227152394371
20.9641354652387
16.3574260193484
11.9197247969646
9.17612158370925
9.53395297448936
12.9756484400679
18.2162858150255
24.0844883741991
30.4121865297009
37.4366812340197
44.6764014584924
50.8879940778662
55.2177424051572
58.0113762728054
60.1478708903861
61.7188672246371
61.7990832999421
59.6678006820337
55.9220517523642
52.0164993529747
48.8123716699176
46.038521777961
43.357785398515
41.5239631059305
41.8682138833905
44.5360333524545
47.7110836524779
49.0187260495809
47.5779207655529
44.2638463973597
39.9539174137117
34.1091048766898
25.6234183587417
14.8963257654012
4.38722733212971
-3.20566244671714
-6.9208939683927
-7.26243626395585
-4.36024668656873
2.51607661932108
13.0099673850923
23.9349842184644
30.8069986239086
31.6392596896981
28.4104220242636
23.7753958054162
16.6698554298931
2.84372612941056
-19.0225439989545
-42.4852719337652
-56.7113716624094
-55.9077189258659
-44.295876833894
-29.262300723871
-8.30141964438717
35.7874665449206
123.481489119428
259.535103619753
424.367664176518
584.945060653535
715.46273370623
808.72239872462
868.913941608536
895.326436801311
874.94777661369
791.912158971467
644.384738795966
452.436059477337
249.688260699636
66.4383635077446
-82.0693852574009
-195.431602861016
-280.115193927867
-342.392717542468
-386.794026171512
-418.257236701003
-443.652734849096
-470.41808357904
-503.236868694125
-541.232637010875
-577.805703304068
-603.800054195042
-612.63013141214
-604.198383660072
-584.61364404093
-561.667486778472
-539.659043911078
-517.84997819805
-493.422138844024
-465.534049397456
-436.384407178357
-408.743821109378
-383.184138281051
-358.10145672879
-332.095232503922
-305.659740399294
-280.362588968371
-256.892658504924
-234.526497828571
-212.482130210619
-191.175321215548
-171.677058307182
-154.143335310258
-137.349174883828
-119.99119673083
-102.116738872275
-84.8969233141739
-69.1118758121326
-54.3306486966114
-39.7847586577912
-25.691056018044
-13.2090725947525
-3.0314454600235
5.57886228687565
14.0250254976354
22.7875411865385
30.9375038103243
37.2749189712947
41.6169066783433
44.6967782115595
46.9923863743799
48.1354127194666
47.6897037753347
46.2315523794239
45.2497185221191
45.902467805136
48.1143520527288
51.0245455133351
54.0937543868893
57.4661853761719
61.3064764256521
65.2162312041787
68.6446266084848
71.7602028779391
75.5335283362793
80.7736656588324
87.245224649028
93.9212035234648
99.9857816203939
105.290078730813
109.773318037995
112.797100403796
113.474863076303
111.71244366446
108.617600578651
105.62560522105
103.281977059981
101.071163285668
98.3895281724975
95.3776034078548
92.6047302124537
90.1405890278974
87.3393823734811
83.694693523497
79.6805028422243
76.4606756938215
74.7648932190206
74.2643088978808
74.1252561334877
73.954642676516
73.9591876169128
74.2602018095151
74.4160345322885
73.8619916148649
72.6893540984468
71.6878856912304
71.5257405581535
72.0699188050184
72.6701493742642
72.9912379710881
73.3178140041074
74.015932366297
74.9751722545008
75.8496623532788
76.7883993607604
78.6193874309915
82.1210096097604
87.2137217387917
93.0537453724654
98.8973458353067
104.669937265356
110.617623341823
116.632289618581
122.226745623431
127.210320404876
132.127793479338
137.793177381145
144.42291236098
151.406615464332
157.952508345065
163.765651360102
168.95847794699
173.455967758949
176.80671409491
178.696815269514
179.4420623857
179.704850924139
179.706599049122
178.917404375265
176.631767928983
172.715484230202
167.611871590465
161.686158978988
154.851631586534
147.00809203517
138.678335280727
130.887429440057
124.283763672265
118.522632329312
112.671755550512
106.159187030203
99.1495014487006
92.0073223653384
84.6702175034841
76.8004066184505
68.485185509531
60.4762699747032
53.5317662849206
47.6021719031482
41.8438583204423
35.43433894322
28.2091881110757
20.4494173835952
12.2695980467017
3.5094989690523
-5.73942788868002
-14.765587415032
-22.6497810034381
-29.0478123453268
-34.4149326604921
-39.4306728102567
-44.3656239467004
-49.1282916236063
-53.7821539446812
-58.7167594193536
-64.1910521932378
-69.8930354320675
-75.200362128543
-79.9020479004928
-84.4872928112054
-89.6208594775312
-95.4521139714363
-101.596634191033
-107.732518749363
-113.956822998842
-120.406966649435
-126.685030126962
-131.942939326996
-135.643991985569
-138.105878909938
-140.154547019399
-142.301709395162
-144.408933648283
-146.132468221951
-147.456333931928
-148.595146325683
-149.461522928577
-149.495169939236
-148.150178485065
-145.437798672277
-141.844059926889
-137.772175498169
-133.259242279157
-128.28547485594
-123.156733713134
-118.3724374989
-114.181688436892
-110.544821905498
-107.671093372468
-106.405177247681
-107.774043678174
-112.054308171035
-118.423758650178
-125.60958224977
-132.705445054419
-139.131743294661
-143.893316877828
-145.335554567773
-142.069131109186
-134.198952806445
-123.417695138468
-111.747755668637
-100.284412913925
-89.241820654043
-78.97136147286
-70.4549023166619
-64.5423239739595
-60.9100011719654
-58.1656429159617
-55.1236597100598
-51.80225597807
-49.0215448982996
-47.1881933410768
-45.7780715802061
-44.0492225778311
-41.9457503427356
-40.0010993443361
-38.4383361654837
-36.7320727046276
-34.2590625791673
-31.2000555962699
-28.5033741007683
-26.9274603745011
-26.3469275729427
-26.1218369100667
-25.9413224499751
-26.0035839243569
-26.371784160984
-26.4996515441384
-25.6925030714367
-23.971603309413
-22.1961673035276
-21.2121053554098
-21.0425545025672
-21.0664434687893
-20.8449904074207
-20.4616645324662
-19.9805788137475
-18.8859598630917
-16.4278131778271
-12.5571260107057
-8.25071583702381
-4.72289982224407
-2.42414308127201
-0.993338867220253
-0.0930490094536509
0.0631424623614625
-0.794384952604439
-2.19898758054195
-3.0555419222074
-2.68176719818138
-1.52851316707548
-0.637878947551965
-0.461250869163695
-0.462188598619585
0.080763958471465
1.18026693726532
2.33000202134206
3.48579938421334
5.47119809849438
9.17104309302761
14.4670700731684
20.2488051841031
25.5018254598389
30.1467489649162
34.6677860847166
39.1192496910454
42.8232425192181
45.0889318871873
45.938979921426
45.8796272879264
45.0696769419554
43.0473584097795
39.4152254999458
34.605468151429
29.7498523457081
25.850764011162
23.3020794203975
22.2321485939331
22.9773365446137
25.8546918924496
30.466465461466
35.5488742100177
39.756353115485
42.5504953566148
44.1939769021816
44.9935825090803
44.8739607953553
43.8321591233687
42.540591917835
42.0913979071238
43.0262024980586
44.8391373658491
46.6283396449502
48.1177277492765
49.791307641837
52.0408892297914
54.5096942316553
56.5129700023703
57.9282058233935
59.2777108506723
60.8123199014349
61.8158313098004
61.1594257671622
58.5225924960608
54.7775182194454
51.0680771352075
47.7817848875395
44.7089751262236
42.0561404700048
40.7901280639388
41.6660892232313
44.1205262090691
46.5443245988871
47.7573255697957
47.9517175684027
48.0156292578651
48.1986938034036
47.8740394789862
46.6412909273983
45.190022331909
44.633448800278
45.0766543700283
45.2871130957268
43.9821574216541
41.1714460985725
37.9185772828937
34.9298551227678
31.8574943408239
28.1724896183128
24.3055137202641
21.3724032207904
19.7354288275472
18.3173066078515
15.6959442472577
11.6771221191445
7.37001157388286
3.73095671084822
0.550862179645236
-2.76566860610643
-5.75797848694135
-6.93098228238991
-5.45117429415222
-2.38021474366054
0.269993900954958
1.59226491038653
2.3659851022927
3.4418083187448
4.09997210511341
2.64731601508027
-1.43121844856076
-6.60787487380469
-10.9981244265352
-14.4926477840917
-18.5117971530001
-23.5899883574269
-27.9111635577809
-28.8251437864271
-25.5540994931229
-19.7022431680119
-12.9961796055231
-5.31298569380215
4.30870136417912
14.9890553141655
23.3917245141625
26.3954518581497
23.9477852663562
18.5481049123334
12.0374224530867
3.88583267631743
-6.73383455748125
-17.8419856620134
-24.9073305160011
-24.7218153693336
-18.4071900142398
-9.8821549328974
-1.66774152225149
6.80733429593356
16.4484081916615
24.9760832317696
27.2619630852328
19.3213504524162
1.55293390862562
-21.5942132867786
-43.749039465577
-57.8453055130727
-57.4291434056718
-40.7781915963613
-15.8797274072914
1.24726212952176
-0.959845119907015
-14.4632716545829
-9.81290223949907
45.3551423250177
160.705514060242
313.930787022053
467.887552427341
598.537618395935
706.81467491213
803.798878130887
886.150068472245
928.538152031066
901.50656875949
796.668983684323
634.48567699207
448.858581034616
265.702347476066
95.4050290484369
-58.6697156082989
-190.223195022962
-291.153928784746
-360.612252136565
-409.049803518826
-451.026822991921
-494.172294172163
-535.800689122749
-569.443672053564
-592.791872026722
-608.511701843956
-618.751076961793
-621.112146388715
-610.988655768262
-587.166871217524
-554.248218747491
-519.718499037043
-489.272971033013
-464.718592206894
-444.930813122024
-427.458219124075
-409.346333226098
-387.966977534259
-362.525882304271
-334.995911311804
-308.867810632371
-286.409100590659
-267.151842088974
-249.168232015376
-231.531765953121
-215.101643278051
-200.960396176886
-188.679672263053
-176.571846369667
-163.430988291703
-149.474396665135
-135.439329401545
-121.246854147964
-106.072064980145
-89.6417169461766
-72.9054328741044
-57.0979076901275
-42.3914070949297
-27.9050058132076
-13.0643917839692
1.44492462530331
14.3376889551026
25.1247919260876
34.4802722197035
43.2206677254321
51.3343730488095
58.3467947394104
64.4742236222252
70.9475212623869
78.9606086182551
88.483780478374
98.3607714657347
107.494360282368
115.631186540431
122.903236702359
128.9444247279
132.895862813168
134.359668340659
134.054989948276
133.273308923924
132.740751201141
132.20960704495
131.147075527403
129.549225385638
127.882032012027
126.372414822916
124.694806254569
122.494916888578
120.034914384499
118.075434927428
117.111234920986
116.901726646848
116.828300319297
116.555492657672
116.162829539235
115.696948941857
114.875211374446
113.415779663445
111.55783741467
110.016901476291
109.329946136436
109.344838035849
109.445064131507
109.190108005918
108.575684479291
107.668957963018
106.204032183034
103.748718995898
100.265491455195
96.3342316876549
92.7049089537311
89.6817186230791
87.0415800635659
84.5247916816338
82.2650708699004
80.6736714473761
80.01336464115
80.2506707877712
81.3463455917563
83.537533221597
87.1725889906946
92.2481673621183
98.1973642513414
104.191639870898
109.630572914839
114.330772752073
118.340542670611
121.739455106673
124.710253552142
127.743599751628
131.621316899545
137.071583019684
144.367609928674
153.201018796931
162.87678731067
172.604298076757
181.663825717706
189.41924165923
195.281965269958
198.719983030546
199.336418565261
196.988744969819
191.874524328084
184.488762895338
175.433158242327
165.213027107066
154.218114201657
142.910855287085
131.983022196162
122.214197242135
114.075158834699
107.445565504696
101.75341861682
96.4166127172627
91.1514978130258
85.8866810271705
80.4851355660853
74.6803182910066
68.3322979469911
61.6792996409838
55.228337409975
49.3366526179984
43.8939356759796
38.4072221869583
32.3641482073863
25.5075699742101
17.8341730575673
9.45930312767262
0.571398042877394
-8.50536390731783
-17.3021019901199
-25.3442868111325
-32.3417818034069
-38.2763182460015
-43.3539019039437
-47.9003869263175
-52.2526299699341
-56.632250850718
-61.0231384467236
-65.1568472759507
-68.6732299270983
-71.3540740724477
-73.2312774076721
-74.501501562554
-75.3969670663079
-76.1873333714621
-77.2741053006629
-79.1645101098859
-82.2295653448064
-86.4402431713256
-91.3666155957779
-96.4689643432073
-101.393587324656
-105.99277087979
-110.117920067428
-113.491445715074
-115.839739404354
-117.126823690888
-117.59296658562
-117.539706458617
-117.11657325282
-116.368196266165
-115.487437494716
-114.964774216478
-115.425340634404
-117.280107529045
-120.505412893152
-124.713704713071
-129.38214404456
-133.993005373072
-138.003142528116
-140.786902251275
-141.734014868148
-140.504197067986
-137.242601995553
-132.549065866164
-127.184893376809
-121.720556334844
-116.376343708567
-111.136203876058
-105.975287258438
-100.962048594526
-96.1611503956112
-91.5068021255989
-86.8662688881215
-82.2903668704166
-78.1875603729955
-75.1763601761337
-73.6901847911062
-73.6908886036923
-74.7573875768549
-76.428939807424
-78.4281381362914
-80.5600368530946
-82.4811682970267
-83.6855525003232
-83.7827154173212
-82.7742946005909
-81.0164736584922
-78.9094758703925
-76.659409304417
-74.3552697000441
-72.2278504773084
-70.7542629825033
-70.4618714292991
-71.622474106559
-74.1236035083199
-77.587213556984
-81.5605933667877
-85.5951362638546
-89.2100859149974
-91.8710479046851
-93.073406370448
-92.500217497221
-90.156628939823
-86.3910881027589
-81.7580133720897
-76.7562741434481
-71.5886806713843
-66.130197615565
-60.1528785995831
-53.6099766643736
-46.7006780227719
-39.672133740611
-32.6380047849907
-25.6982098379452
-19.2638077165466
-14.1579066273678
-11.2320276090021
-10.7823979294709
-12.3402819949487
-15.0521165494314
-18.2334102599508
-21.5166129848885
-24.5266836214932
-26.5972201826748
-26.978639061825
-25.3603836917425
-22.107123754159
-17.9185807623544
-13.2857442279508
-8.32402629767441
-3.08150339620234
2.13775663322112
6.85281112585827
10.761662219483
13.9142371328799
16.5152578158248
18.6510460322068
20.2911010158933
21.5088607717562
22.5682115760091
23.7280451985714
25.0234877978872
26.3203623794394
27.5576939164915
28.8264179357072
30.1634295828013
31.3609493706317
32.1103709092685
32.3568400296766
32.4199680860333
32.6952904385218
33.2854062387473
34.0213871037559
34.8513179284688
36.0996241426319
38.2513014278562
41.5076966740048
45.6418467524732
50.296323276093
55.3138248197009
60.6738563989952
66.1322763792703
71.043823918955
74.6168047539869
76.3280774348942
76.0797369244945
74.0441284018011
70.5009604875932
65.8715612002529
60.801936528021
56.0570862681352
52.2659759360396
49.7740248520664
48.7008288564871
49.0143866902436
50.4596199957885
52.4860680749208
54.4251270111693
55.8498240842044
56.7298715970071
57.1781912719511
57.104831365956
56.2511707394068
54.5888463439871
52.5379022009196
50.6321870125764
48.9841192366684
47.2325576077121
45.0903935510323
42.8208933747172
41.0112786048203
39.8979933785327
39.1088193419932
38.1877013859821
37.2546532967314
36.9430924816265
37.6679234447932
39.1512250324659
40.8114462987769
42.4948304818987
44.569100105639
47.2382387272222
49.9865448121447
51.9201166044962
52.6030810786989
52.3329938941714
51.5510319947377
50.240889640245
48.1599531879109
45.5573530629021
43.295367691458
42.075556647838
41.755545398734
41.7153849633517
41.8109569085198
42.5562449850276
44.1785828563116
45.8755115915975
46.5829160337974
46.5555665106755
47.6108104147714
51.2109942382492
56.3739629353007
60.1191169894226
60.4181709454203
58.4440614607336
57.3186767696015
58.4831927867353
59.7519156203833
57.3972849238968
50.0412085774919
40.0380507790326
30.9360823411531
24.0680479438188
18.0810207408101
11.5261893907263
5.07716045945638
0.745957531250021
-0.640467974627335
-0.408691856837052
-0.362874496670024
-0.788284942346827
-0.698390068698771
0.179263175829576
0.454081907460377
-1.5129081045381
-5.67111815475363
-10.350406008529
-14.2200980704158
-17.5647656850957
-21.2779120130655
-25.045590564065
-27.2654283407422
-26.8996315517989
-24.8266610986917
-22.8624394213063
-21.6897728484579
-20.3878415482479
-18.131020206073
-15.7266640578621
-14.8603689021037
-15.9934503645679
-17.7233392103437
-18.5331604180596
-18.6703459129903
-19.6611929781044
-22.0761741733091
-24.5189402982253
-25.241180721378
-24.3088920824607
-23.4856757133178
-24.0127487321099
-25.2408214327595
-25.8440576872567
-25.7465147875385
-25.8760471707835
-25.9942135155478
-23.9220701852449
-18.0010079956145
-10.1200916104834
-5.10347017917441
-6.28624183355024
-12.0051781842174
-17.1466646121156
-18.1689428411007
-16.1425085128701
-15.1088103541521
-18.6723259711542
-28.7484317275003
-45.7219067012916
-66.08913306241
-77.6712579628506
-59.1464428432974
10.2071661974984
135.169908818171
297.345690011732
465.061340078646
613.255870360037
735.314028888391
836.151614140058
914.846785392705
955.616972840539
936.629818003322
847.38691499535
697.578064581172
510.742038968761
311.677825763959
119.899720726283
-49.1120439081598
-182.99409151621
-277.229957897669
-340.229462654294
-389.806202275356
-441.00825212683
-496.046847427398
-546.107964299073
-582.515154312428
-605.155688530933
-620.142047579623
-631.161774649376
-635.270344081294
-627.449494376823
-607.643740369539
-581.786450955719
-556.180090924687
-532.298209314403
-507.677739268146
-480.773217790804
-453.389775533757
-428.186844803117
-405.094018421557
-381.344252307798
-354.828338238042
-326.423600595429
-298.709037825793
-273.17773126997
-249.507057014494
-227.246521942065
-207.085544735643
-189.830588927352
-174.682399984755
-159.495800477063
-142.999717460932
-126.197058599441
-111.096761943411
-98.3251170920313
-86.5563069160408
-74.3235006938015
-61.7794365748309
-50.2100126000292
-40.1101541971991
-30.4198758266451
-19.8618888345843
-8.5422102876733
2.2722133357375
11.8082406104656
20.6427593093066
29.7010321070883
38.8493096378217
47.0186985514144
53.6810853422044
59.6645691741443
66.1809550232568
73.3216984302371
79.9796109789549
85.2693703927
89.57369168062
93.8931244411746
98.45040862713
102.466143430657
105.424708215396
108.130204569125
112.085979503507
117.903547940686
124.705076294259
131.202053517864
137.011237581115
142.560141610351
147.848448342981
151.825850463301
153.29343171284
152.206248361916
149.716166943256
146.910225788657
143.830360476178
139.915271637941
135.141872733366
130.315847880873
126.17760169077
122.570649736521
118.787757984242
114.612223250445
110.662697797168
107.601794290768
105.269819922415
102.86792179432
99.9087375892257
96.6762162654958
93.6539609799757
90.7780311015113
87.5665796717067
83.9486881970049
80.6409905136425
78.5091821457283
77.698535753151
77.6196978155616
77.7492491265757
78.168569779905
79.1845976988499
80.6481445008945
81.9809022375816
82.9219325297912
83.9802534214285
85.9306243180231
88.9528256090867
92.492991578405
95.9726154557865
99.3640147154849
102.875941249491
106.242614977078
108.687767788202
109.736744483243
109.862496452683
110.087552820607
110.992327525157
112.36077331941
113.87294982965
115.883188895637
119.204133558949
124.127453076916
129.943914164184
135.612426345381
140.746826371021
145.666123830701
150.45492908438
154.264636216434
155.796869150852
154.420067744021
150.587965393756
145.134577926422
138.421659288454
130.417055989714
121.50200722198
112.832085175832
105.657285207788
100.356934915688
96.3142494476122
92.7027055137169
89.1707999169671
85.6642004487621
81.8121313306615
76.8468194838027
70.2519321158263
62.3186110642017
53.8754203764624
45.5114840759409
37.2346631781489
28.9073812947802
20.8020492705416
13.5217579891138
7.41591836318427
2.28420254877194
-2.25225773929614
-6.23429079297656
-9.40476356237176
-11.7523214229417
-13.8377115973883
-16.4709261310374
-20.1380423559518
-24.8468155848418
-30.4584603046882
-36.9481927899646
-44.2171269749272
-51.7695351066386
-58.7997232919485
-64.6893352646981
-69.3529866586008
-73.0585379290774
-76.0238548755885
-78.3313158542976
-80.1936900442004
-82.0732122095578
-84.3543915811327
-86.9367573120873
-89.3123515411965
-91.1049395348039
-92.4374982971326
-93.6963992808791
-95.0370717791532
-96.3016058330198
-97.4461957777563
-98.8581312425138
-101.050123524513
-104.043017977848
-107.209236168177
-109.815937869885
-111.641242513923
-112.950346581717
-113.925237799916
-114.307480962986
-113.697649206088
-112.09018196244
-109.931493264847
-107.623140889024
-105.103798752921
-102.021316411716
-98.2466933997185
-94.0854187534395
-89.9813292778578
-86.1532737886694
-82.6131635414387
-79.4456335291835
-76.8997703283646
-75.1756980527164
-74.2621459378974
-74.1006736429181
-74.8399497616597
-76.7595299216057
-79.8908101411003
-83.8252031371087
-87.986437737662
-91.9992564998532
-95.6138279529808
-98.2577178238795
-98.8955159346686
-96.5965164132833
-91.3053046891297
-83.9437350615195
-75.7012109272884
-67.3314401835598
-59.2340118389378
-52.066763357688
-46.9191368145624
-44.6290823902491
-44.9771504947995
-46.7612517719755
-48.7508845828805
-50.4759490496437
-52.0350004932838
-53.3224441222202
-53.7434571200319
-52.7865280948483
-50.6801596767946
-48.2417477944683
-46.0639386972659
-44.0270924412755
-41.7020104890161
-39.084915951042
-36.7300937909977
-35.1597670040622
-34.3461002244303
-33.9059163041411
-33.6824264686036
-33.9057697308195
-34.7341470032682
-35.8303136694684
-36.5809420082077
-36.7009436258159
-36.4510000249659
-36.2145278996868
-36.0223652824758
-35.6488303221775
-35.0970749009407
-34.7453768147281
-34.8883355992403
-35.2603675418104
-35.2102935785707
-34.3623887110433
-32.9433666322928
-31.362733660087
-29.5949503954642
-27.1698357983225
-23.7835253112885
-19.7274693083657
-15.5664687559538
-11.4814623667265
-7.14564290201923
-2.32626547529128
2.5333595899398
6.4916024316956
8.85057838124845
9.59988299989711
9.12503854009241
7.67369133694657
5.30700466902472
2.3488018454109
-0.345066454518275
-1.74720138957215
-1.28833528129078
0.929695061784173
4.47859292782078
8.98820218238808
14.127157371703
19.3684608931648
24.0248180370024
27.6184238043077
30.1351881893044
31.8349833472751
32.8760923460129
33.2431045797359
33.0210115496033
32.5605270632314
32.2351236985355
32.0925944848395
31.9039443012718
31.5946229493389
31.4942259404995
32.0348415584635
33.2500562474019
34.7183437978989
36.0367839785859
37.219791377024
38.5158668249948
39.9116680348429
41.02006691018
41.5435807261767
41.7225090270371
42.1618022913856
43.2223032998722
44.7245915693737
46.3018258536235
47.8942734899539
49.7202971977861
51.79034620376
53.6646237452757
54.8322280895776
55.2382627666785
55.2583637522787
55.1431162031711
54.6687231311914
53.464912633222
51.581768145083
49.5219955946526
47.6751333910112
45.9096084894925
43.8932490838643
41.7363177343809
40.0795006996623
39.445612885095
39.651158929043
40.0350287182048
40.2233122352712
40.4577197110926
41.0882905040971
41.9308888614846
42.3704061554207
42.1020630433621
41.5403611065088
41.3331176317421
41.5755072661135
41.7111977893563
41.2182012456611
40.173545068191
38.9873005250103
37.7185728340747
35.9375495149929
33.3479370579653
30.339600143987
27.7049643614079
25.8499059936852
24.5000439239629
23.2476875701261
22.1739803580076
21.7003288734392
21.8834943781362
22.1447856033388
21.8586784919526
21.0620821684694
20.3491327901999
20.0770855706363
19.9245058889473
19.3802049324668
18.5007123493992
17.9118292972929
18.0434498798562
18.6255171598282
19.1310134281837
19.5691007300108
20.5333715174355
22.3946169372893
24.6936200198298
26.5556264059116
27.5947350669082
28.1146135458237
28.3609416673786
27.8885395987341
25.9881261239628
22.6784558477642
18.9314369546146
15.7452953391523
13.2095814390802
10.7613230414126
8.27157272710281
6.47321735809651
6.09318689878508
6.81051528793346
7.47399501730249
7.38685528070932
7.01715803347059
7.19159390893627
7.82645043871246
7.90210601116209
6.76281307646959
5.02879917052329
3.8648917814625
3.52943496086055
3.14140021352144
2.02236810274969
0.828265490990212
0.876180537896204
2.45086590073252
4.31190912299839
5.11171996161838
4.88686139735805
4.62213254285674
4.44931061430164
2.95882563110455
-1.29945010999563
-8.03002670717458
-15.5491076841329
-22.8809996919603
-30.7061848126648
-39.6679999105318
-48.2230500861571
-53.2127266771365
-52.9104325789493
-48.750992805116
-43.2735111699772
-36.804275952201
-27.5504487013578
-15.6059421979849
-5.73289972112536
-4.330895947691
-13.0789218273223
-26.763083999
-38.5728321439013
-46.7440422837362
-53.5388619412034
-56.189343858481
-40.3482306505773
13.8896547011317
116.539083665726
257.643001897254
413.315551176733
562.110440763574
694.972168220958
809.400451035011
896.293687946053
936.185858726064
910.847192368471
818.642627952379
677.478321304828
512.476061205798
341.368173241704
171.446114945666
7.84888627633764
-139.21671499521
-257.647551514067
-342.863397553419
-401.808840667543
-446.521524452274
-484.339709449787
-515.014406210371
-536.324025833819
-550.195686436151
-561.878563236873
-573.795138934939
-582.024623829995
-579.883704410124
-564.666379638458
-540.328457059854
-513.891048026317
-490.050477961077
-469.34957819479
-450.387189193533
-432.375906040241
-415.302441828038
-398.674122215876
-381.288927591299
-362.405717449606
-342.506703999208
-322.502171329771
-302.500323450274
-281.864076483823
-260.449702180441
-239.274200660614
-219.638570447691
-201.828036263714
-185.072532682187
-168.766198777268
-153.302627507215
-139.445082175257
-127.109059154331
-115.178668493265
-102.583672974032
-89.2344733400086
-75.6787237130427
-62.0697360643843
-47.896370985325
-32.8239906769627
-17.4663701125163
-2.99589688150744
9.94885772666589
21.6721013736945
32.6753695867501
42.8016997392118
51.4171058815003
58.3575442859962
64.329226521987
70.1666835495562
75.8717296843069
80.672290242882
84.0380920278244
86.3706443503107
88.5230963278969
90.8111295181751
92.795800835613
94.0833943546305
95.0695765385045
96.6501318257162
99.2627583863745
102.461582869184
105.514487766057
108.22073010523
110.932683399589
113.83874976347
116.490172285223
118.171484138742
118.599077641419
118.057605317537
116.875326477261
114.993378436357
112.189599926618
108.601353363195
104.806241086485
101.345282537071
98.3228809232311
95.5808191325954
93.142887603655
91.2766146911909
90.0896874034008
89.2672811583708
88.3951789057715
87.5020957714612
