Value(bpm)
64.133611691023
64.2218590714697
64.3096551920822
64.3962990291031
64.481082133007
64.563288934078
64.6421972084555
64.7170787083543
64.7871999596702
64.8518232295247
64.9102076654712
64.961610607097
65.0052890695847
65.0405013974681
65.0665090853263
65.0825787605144
65.0879843212491
65.0820092214638
65.0639488918462
65.0331132843977
64.988829525733
64.9304446622153
64.8573284779249
64.7688763644357
64.664512219466
64.5436913497267
64.4059033517534
64.25067494323
64.0775954980447
63.8878836122416
63.6853460051679
63.4739551675724
63.2575928702353
63.0400425866098
62.8249866557394
62.6160078798468
62.4165952517262
62.2301535285933
62.0600164086845
61.9094631224196
61.7817383197165
61.680075218211
61.6077220737229
61.5679721454048
61.5637734721869
61.5940829050651
61.6556647343095
61.7453336769863
61.8599490698994
61.9963872126588
62.1515169931881
62.3221786351353
62.5051655052681
62.6972090042491
62.8949666371699
63.0950134209674
63.2938368336618
63.4878355439602
63.6733221773323
63.8466823291475
64.0060812812825
64.1508965846432
64.280539150409
64.3944339902531
64.4920227267539
64.5727661375173
64.6361467159455
64.681671230375
64.7088732622573
64.7173157031801
64.7065931898622
64.6763344558263
64.6262045782727
64.5559070987785
64.4658615956362
64.3618081961747
64.2519274391391
64.1443122523828
64.0469489844382
63.9677333788854
63.9145060199647
63.895106919981
63.9174493859304
63.9896139694872
64.1199641891811
64.3172868560713
64.5909613039805
64.9511637330763
65.4091125080682
65.9727300833897
66.6369330794939
67.3941272112195
68.2364840194727
69.1556586626742
70.1425128774479
71.1868429633229
72.2771160308366
73.4002215163301
74.5412491368896
75.6833089323774
76.8074135420932
77.8932868315935
78.9291080738767
79.9094026765117
80.828879723273
81.6823759482158
82.4649196654138
83.1717960264589
83.7986121934902
84.3413608967456
84.7964807776699
85.1609119098497
85.432190351422
85.6101535552704
85.6974640590904
85.6975470421895
85.6143758374978
85.4523931213693
85.2164293831514
84.9116209919189
84.5433299541645
84.1170671717541
83.6384206869799
83.1129900628141
82.546890517022
81.9496751349559
81.3318943670468
80.7035720672223
80.0741743631836
79.4526065518302
78.847231045949
78.265903184517
77.7160220536809
77.2045939212475
76.7383064244597
76.3236122411926
75.9668053731182
75.6714185110224
75.435394362672
75.2562571911091
75.1318248664929
75.0601792690323
75.0396406437593
75.068745317787
75.1462262875728
75.2709962626178
75.442132816538
75.6588653493263
75.9205636080725
76.2263590218459
76.569786140042
76.93973858026
77.3246064315638
77.7123246206216
78.0903393446687
78.4456134631195
78.7646748984223
79.0337117879683
79.2387171568162
79.3656841693244
79.4008505403868
79.3314856133743
79.1571128247626
78.8894253029203
78.5410266008822
78.1246669496625
77.6530162251865
77.1384783179028
76.5930478820077
76.0282082927052
75.4548680850497
74.8833321656984
74.3233036156287
73.7839118513167
73.2736245275026
72.7961552382412
72.3500508476132
71.9336836533169
71.5455384138273
71.1842017790471
70.8483528041792
70.5367544153524
70.2482457133774
69.9817350171904
69.7361935614909
69.5106497741648
69.304184068592
69.1159240941291
68.94508185606
68.7917308526677
68.6567220694261
68.5409467857186
68.4453132161062
68.3707520759655
68.3182224887779
68.2887182828262
68.2832747333891
68.3029758159769
68.3489620469577
68.4224390003867
68.5246866043202
68.6570693367969
68.8209090813648
69.0152066057067
69.2369420249705
69.4830130513468
69.7502748869902
70.0355178877237
70.335447814475
70.6466687735996
70.9656690226048
71.2888098846758
71.6123180726609
71.9322817689525
72.2446508395489
72.5452492559839
72.8303198546383
73.0969082247318
73.3420914747714
73.5629118569065
73.7563939809286
73.9195644798967
74.0494740335672
74.1432215878575
74.1979805348898
74.2110265408173
74.1797666303223
74.1017690605373
73.974842332465
73.799726795382
73.5814083081607
73.325263310132
73.0366612294962
72.7209159978054
72.3832456164599
72.0287397660639
71.6623352349303
71.2887987798802
70.912716918839
70.5384920865741
70.1703445569272
69.812319541155
69.4681812177817
69.1395182638021
68.8261567555446
68.5278842770313
68.2445054308224
67.9758414721409
67.7217299882779
67.4820246221049
67.2565948387454
67.0453257346721
66.8481178887074
66.6648872546167
66.4955650951923
66.3400979579389
66.1984477688663
66.0709643616815
65.9592400573517
65.8651194771395
65.7904509747409
65.7370973374353
65.7069475961641
65.7019300338058
65.7240265121437
65.775288273728
65.8578534160545
65.973966283571
66.1259990797171
66.3164760686866
66.5481008177156
66.8234105997237
67.1405841657773
67.4947891941997
67.8810334320427
68.2941610375643
68.7288016169343
69.1793260644621
69.6398099912423
70.1040058280141
70.5653249495472
71.0168313755508
71.451248737537
71.8609822387077
72.2381992323833
72.5772073349463
72.8758336123043
73.1322931470935
73.3449170642426
73.5121693128117
73.6326628575002
73.7051750027595
73.7286615730748
73.702269680863
73.6253488288179
73.4974601163931
73.3183833500865
73.088135446499
72.8092310588588
72.4890969779887
72.1356850367795
71.7567744482716
71.3599134963196
70.9523786061096
70.5411496736301
70.1329002718451
69.7340012344864
69.3505361239896
68.9883271954287
68.6529706523409
68.3498802355271
68.0843354314448
67.8593480641089
67.6719378790473
67.518279514905
67.3947167857269
67.2977287731784
67.2239006333395
67.1698986025312
67.1324488112286
67.108319616878
67.0943072492102
67.0872246281185
67.0838932662227
67.0811382070614
67.0757859761679
67.0651745550301
67.0502599347037
67.0335609668002
67.0175984804074
67.0048886324972
66.9979444077723
66.9992790039688
67.0114111039355
67.0368720494677
67.0782149515752
67.1380257978329
67.218936650129
67.3236410661547
67.4549119263591
67.6154365972166
67.80516276089
68.021855077935
68.2632201310765
68.5269465516762
68.8106875029973
69.1120445493899
69.4285529158088
69.75766818877
70.0967545537033
70.4430747046116
70.7937815996337
71.1459122698126
71.4963831593811
71.8416825467074
72.1773850328143
72.4987886779544
72.8010466522405
73.0791874581663
73.328142247335
73.542779480006
73.7179470014681
73.8485213896455
73.9294641667334
73.9558841706316
73.9231050601774
73.8267428692902
73.6652787143418
73.443852734106
73.1687740401803
72.8464380198424
72.4832437679887
72.0855224299784
71.6594770051778
71.2111336950509
70.7463044981785
70.2705604614992
69.7892147899311
69.3073148883481
68.8296423507707
68.3607191482613
67.9042762612307
67.4623585150478
67.0366530484851
66.6287644846376
66.2402255791864
65.8725082630341
65.5270350370174
65.2051906999308
64.9083344141559
64.6378121360561
64.3949694613
64.181164958876
63.997784092302
63.846253853086
63.728058156899
63.6442464532442
63.5942792439175
63.5773792762736
63.5928752728111
63.64019514317
63.7188600779006
63.8284794296799
63.968746301404
64.1394337723563
64.3403917037867
64.5715440739957
64.8328868006413
65.1244860146529
65.4464767560088
65.7989628698061
66.178952769371
66.579596375683
66.9935109173607
67.4129454784067
67.8297530867474
68.2353812065608
68.6208831624849
68.9769530697483
69.2939866437524
69.5621697667238
69.771595858028
69.9124119083793
69.9749915070926
69.9512758837871
69.8448654700316
69.6660782208975
69.425591703996
69.1341758464133
68.8025256878424
68.4411277521682
68.0601603686687
67.6694268061935
67.2783190685232
66.8958096120825
66.5304680380773
66.190499918141
65.8838052738435
65.6180532024859
65.3982746769651
65.2219931721484
65.0855361786463
64.9854377901528
64.9183992287396
64.8812542811823
64.8709389683015
64.8844649196428
64.9188960501733
64.971328239421
65.038871800601
65.1186366006373
65.207719753619
65.303195861423
65.4021700247179
65.5039771496692
65.6108461283737
65.7252263239936
65.8496049754008
65.986513924612
66.1385383632964
66.3083277198685
66.4986088420761
66.7122016721063
66.9520376634737
67.2211812531941
67.522854781491
67.8604673477689
68.2375879774603
68.653768070479
69.1015323302286
69.5724008910084
70.057446507083
70.5472371158764
71.0318011201313
71.500619042209
71.9426455524049
72.3463658855007
72.6998902441864
72.9910888571629
73.2077688479145
73.3379259482371
73.3757140423573
73.3280928213398
73.2041578765127
73.0133995541805
72.7655220279582
72.4702843334541
72.1373663983055
71.7762615222205
71.3961954394862
71.0060710727001
70.6144373698044
70.2294801903926
69.8590330393796
69.5104809237937
69.187049290355
68.8873415971723
68.6097844170063
68.3528850049096
68.1152224717508
67.8954398704734
67.692237093951
67.5043644979589
67.330617175298
67.1698298178251
67.0208721123443
66.8826446242274
66.7540751294417
66.6341153804582
66.5224160472732
66.4210991983585
66.3328275261841
66.2602480629195
66.2060038622204
66.1727477787911
66.1631584085353
66.1799583027867
66.2259346294019
66.3039625229334
66.4170314478107
66.5682749953666
66.7610046515549
66.9987482124856
67.2845176350938
67.6140219629424
67.9786546256206
68.36948193916
68.7772007157487
69.19207209683
69.6038803274523
70.0019197820361
70.3750139589922
70.7115702005846
70.9996734762752
71.2272216082085
71.3821027552715
71.4524881940115
71.433745248573
71.3338669768421
71.1625791631452
70.9298975097437
70.6459468087987
70.3208068610674
69.9643873193113
69.586332009819
69.195952002097
68.80218577558
68.4135842602394
68.0383182699459
67.6842058565765
67.3587573034553
67.0679378300167
66.8128866604787
66.5937376347959
66.4107192724327
66.2641593637925
66.1544903313456
66.0822554541483
66.0481160649692
66.0528598476427
66.0974103841531
66.1828381270455
66.3103730039783
66.4814188987201
66.6975702980744
66.960267241294
67.2667293434455
67.61125223718
67.9879537478399
68.3907582186851
68.8133380017808
69.2490647529565
69.6909716736128
70.1317282218228
70.5636291192968
70.9785996848008
71.3682195974524
71.7237670996825
72.0363411107209
72.3008332260074
72.5186837790725
72.6921786735351
72.8238301603428
72.9163456072571
72.9725964134384
72.9955877133477
72.9884294359721
72.9543091994568
72.896467432157
72.8181750229804
72.7227137201088
72.6133590569544
72.4927930279345
72.3619447013385
72.2214153135308
72.0718061056658
71.9137168714487
71.7477446056893
71.5744822553788
71.3945175741424
71.208432080116
71.0168001165632
70.8201880138951
70.6191533511752
70.4142443146861
70.2060504875657
69.9967558590175
69.790373440073
69.5909296303122
69.4023608461876
69.2285243183189
69.0732130695912
68.9401749063416
68.8331353353177
68.7558244163695
68.712007675486
68.7055213365607
68.7403122864331
68.8204833714017
68.9501090098142
69.1280720768077
69.3479447315919
69.603052349751
69.8866305522686
70.1917596147633
70.5113113683335
70.8379092598277
71.1639026489075
71.4813567257726
71.7820596186516
72.0575482997844
72.2991547651206
72.4981054861544
72.6494502400047
72.7558809886145
72.8211690222782
72.8492640701552
72.8442513734536
72.8103121331337
72.7516879764761
72.6726499172587
72.577472127648
72.4704107017261
72.3556874745626
72.2374788690498
72.1199096761507
72.0064228654892
71.8973929558154
71.7922820182
71.6905592885532
71.5917008010693
71.4951889169941
71.4005119328065
71.307163765292
71.2146437112164
71.1224562794825
71.0301110937873
70.9371228638815
70.843011423584
70.7473601281338
70.652390423454
70.563944834738
70.4880776083964
70.4308006942508
70.3981105570102
70.3960251770473
70.4306314409457
70.5081434276649
70.6349724857715
70.8178104860725
71.0637282462496
71.380291895915
71.7757009345794
72.2549416884101
72.8074461188096
73.4182136351701
74.0714202702705
74.7501680435919
75.4362978969775
76.1102793140361
76.7511932125661
77.3368266159961
77.8438972730295
78.2484230402587
78.5262437988824
78.6566865646521
78.6438571813067
78.504515359757
78.2565815481516
77.9185476383108
77.5090245719009
77.0463745426323
76.5484331717983
76.03232076338
75.5143372889242
75.0099330965744
74.5337462891436
74.0996979923018
73.7196667929859
73.3948436674128
73.1221269240288
72.8986851795745
72.7219398001969
72.5895335121315
72.4993027432932
72.4492531086822
72.4375375492734
72.462436713163
72.5223412327828
72.6157356057848
72.7411834319945
72.8973075617775
73.0826984820725
73.295923848159
73.5355753365623
73.80025834116
74.0885809088262
74.3991431838149
74.7305273075922
75.081287738185
75.449941969742
75.8349616491634
76.2347641025486
76.6477032324737
77.0703533867213
77.4939041902556
77.9081563898157
78.3024811813235
78.6658543692488
78.9869220323999
79.2540999235361
79.4557078738388
79.5801390724992
79.6160622568997
79.5526526418759
79.3798449612403
79.0928185030337
78.7045787487088
78.2326539130605
77.694439638321
77.1068899206045
76.4862877179784
75.8480921031987
75.2068555420003
74.5762030288833
73.9688641881435
73.3967497906605
72.8710651912312
72.4024547383952
72.0002645738626
71.6649716703004
71.3924930679587
71.1791147710449
71.0214885803673
70.9165817516541
70.8616331425499
70.8541147216666
70.8916975153559
70.9722212299954
71.0936669184888
71.2541321662105
71.4518083591294
71.684934052233
71.9499914147629
72.2404480605694
72.5493299145289
72.8694467025866
73.1933595091015
73.5133625230917
73.8214803282701
74.1094822058909
74.3689148895246
74.5911550125251
74.7674821000661
74.8891723631173
74.9479019907632
74.9422412749901
74.8777282929121
74.7604459579102
74.5966439298336
74.39265763417
74.1548369857668
73.8894856882157
73.602811522123
73.3008876488235
72.9896246488565
72.6747527885027
72.3618138597707
72.0561596642136
71.7624177657342
71.4838193467209
71.2233304256659
70.9838475011993
70.7682148859296
70.57924410364
70.4197353532019
70.2925011127276
70.2003920347673
70.1463253694273
70.1333162495742
70.1645122840928
70.2432320359172
70.3727428041668
70.5512496874197
70.7721909226861
71.0288129389984
71.3142737876499
71.6215773657223
71.9435201746523
72.2726512677019
72.6012464466217
72.9212980718194
73.2245220341962
73.5023834767742
73.7461427234026
73.9471680851003
74.101701333069
74.2106443915913
74.2752569052086
74.2969721079468
74.2773793732309
74.218206023132
74.121298726519
73.9886047992539
73.8221536965731
73.6240389596384
73.3964008463238
73.1414098420438
72.8612691178208
72.5589861285191
72.2386328576827
71.9042638829157
71.5598167105065
71.2091003844031
70.8557885222108
70.5034164347116
70.1553819697953
69.8149497238207
69.4852582804126
69.1693301658496
68.8700842491046
68.5903503612803
68.332879797072
68.1000289756005
67.8936180000903
67.7154298611105
67.5672694176377
67.4509802137151
67.3684625125537
67.3216927539991
67.3127446912857
67.3438125210054
67.4172363885175
67.5355307325802
67.7014160314833
67.9178546331832
68.1880643668376
68.5122767366195
68.8844480931596
69.2976902110267
69.7448983416804
70.2186645537318
70.7112039126179
71.2142949919535
71.7192368758316
72.2168253728317
72.6973515787468
73.1506261422025
73.5660325409623
73.9326446420945
74.2432611366264
74.4984325934759
74.699899958733
74.8497009986414
74.9501390060988
75.0037499417635
75.0132688017811
74.981595956966
74.9117641418153
74.8069066909866
74.6702275308603
74.5049733393139
74.3144090051972
74.101839211321
73.8706099671149
73.6240278225343
73.3653399178046
73.0977227944809
72.824274170807
72.5480075363795
72.2718493986442
71.9986390017302
71.7311303354274
71.4719962575824
71.2238345656874
70.9891758719339
70.7704959172402
70.5702433663279
70.3908410090519
70.2346915793022
70.1041936391089
70.0017591033646
69.9298324769473
69.8909119650617
69.8875726796597
69.9224922358136
69.9984791143926
70.1185042645475
70.2857365355327
70.5035711035259
70.772772410164
71.0875383401766
71.4410583502625
71.8263612780593
72.2362399199405
72.6631880415387
73.0993508980041
73.5364908591744
73.9659701523515
74.3787530247573
74.7654297521507
75.1162648364382
75.4214173861862
75.6755262633476
75.8787802417717
76.0319124605301
76.1358804300275
76.1918517122245
76.2011878310573
76.1654267589321
76.0862643340376
75.9655349620499
75.8051919454727
75.607287765493
75.37395461617
75.1076177412783
74.8132238223547
74.4971548133142
74.1656602453064
73.8248067620763
73.4804603367379
73.1382784520868
72.803711421999
72.4820120239031
72.1782526611281
71.8973493695339
71.64409211698
71.4231810106409
71.2392550665532
71.0947396738117
70.9874655192165
70.9148122076801
70.8742848178283
70.863490828797
70.8801194313455
70.9219229195592
70.986699920451
71.0722802708207
71.1765113955433
71.2972460803961
71.4323315666169
71.5795999243688
71.7369239145759
71.9026050298359
72.0751176051474
72.2529104844362
72.434403404636
72.6179848136646
72.8020103694296
72.9848021566117
73.164648660504
73.3398055383523
73.5084972282946
73.6689194339881
73.819242519201
73.9576246214553
74.0822708436583
74.1914048071475
74.2832487699581
74.356031151985
74.4079949908705
74.4374071758256
74.4425683971106
74.4218237309944
74.3735737615944
74.2962861225605
74.1885073236568
74.0488747105238
73.8765915373868
73.6739288118894
73.4443595376499
73.1913459231342
72.9183141154937
72.6286352547082
72.325609876833
72.0124555846533
71.6922978523774
71.3681637927708
71.0429786894689
70.7195650829611
70.4006441945503
70.0888406469962
69.7871520956927
69.4996411556277
69.2304243464662
68.9835073791976
68.7628106003982
68.5721985415561
68.4155135191595
68.2966133844655
68.2194136941118
68.1879347681068
68.2063543267271
68.2790666618208
68.4107496139835
68.6064313993582
68.8677011769354
69.1866395505658
69.5537602081137
69.9593593596649
70.3933842370787
70.845326695196
71.3041442539817
71.7582121435885
72.1953108293155
72.6026540101331
72.9669620846514
73.2745854311802
73.5116831742355
73.6688116204839
73.7500992922354
73.7627009191645
73.7141945710311
73.6124483744055
73.4654996955848
73.2814495382953
73.0683739301126
72.8342532020808
72.5869193407876
72.3340210317282
72.0830056223894
71.8411170070001
71.6148100640412
71.4046345326457
71.2079342457083
71.0220891127358
70.8445420389448
70.6727917949724
70.5043877857574
70.3369266126857
70.1680503368334
69.995446359482
69.8168488395444
69.6300415665635
69.4328622029613
69.2232078006834
68.9998011420653
68.7662723197979
68.5280790242953
68.2905408096026
68.0588323305423
67.8379894532656
67.6329228274806
67.4484384327934
67.289264722009
67.1600861320933
67.0655829164215
67.0104774701444
66.9995875773039
67.0378873107319
67.1302656792787
67.2756811663336
67.4675493599877
67.6991207116996
67.9636036477678
68.254087840366
68.5634804676583
68.8844558502827
69.2094193604462
69.5304869038653
69.8394815588802
70.1279490978614
70.3871940844212
70.6083380048413
70.7840332641608
70.9148671701133
71.0040066641889
71.0548105793859
71.0707906197749
71.0555748873729
71.012874125727
70.9464511953167
70.8600941639856
70.7575932729008
70.6427219291076
70.5192217824267
70.3907918689199
70.2610668651778
70.1322867592669
70.0042736542533
69.8766065643826
69.7488706019615
69.6206569329783
69.4915627811899
69.3611914788018
69.2291525618715
69.0950619085438
68.9585419181857
68.819221729432
68.6767374750771
68.5307325716595
68.3808658851079
68.2277489177438
68.0738106520646
67.9216460938926
67.773804182144
67.6327903311803
67.5010708130251
67.3810789046956
67.2752227426995
67.1858948484903
67.1154833152124
67.0663846773796
67.0410185214869
67.0418439374453
67.0713779589804
67.1316605341327
67.2221375704427
67.3415172351906
67.4885638936254
67.6620871432225
67.8609313857061
68.0839659927943
68.3300759747876
68.5981530767329
68.8870872410373
69.1957583884594
69.5230284816604
69.8677338472192
70.2286664491429
70.6031962615361
70.9858729214061
71.3706917393473
71.7513833089778
72.1214117990201
72.4739849630861
72.8020770738579
73.0984658805556
73.3557844648587
73.5665885176886
73.7234390703803
73.8190000909015
73.8461884960136
73.8029565802234
73.6967601123963
73.5363601159635
73.3306372385842
73.0884747973372
72.8186630874445
72.5298255369563
72.2303664452113
71.9284394238714
71.631935262703
71.3484877516526
71.0854959825773
70.8501618025426
70.6489246661587
70.4815323254186
70.3438014187411
70.2316329585996
70.1410387178397
70.0681146257517
70.0090189935425
69.9599552596796
69.9171590383985
69.8768893250239
69.8354237616868
69.7890578978216
69.7341083922967
69.6669200987201
69.5844695350286
69.4869156827711
69.3754692328786
69.2513447770104
69.115755681174
68.9699100421078
68.8150070771044
68.6522339500273
68.482763031404
68.307749586273
68.1283298799233
67.9456196887834
67.7607132014719
67.5746822933774
67.3887574389655
67.2060874777873
67.0309341417278
66.8674898398148
66.7198732147008
66.5921467814034
66.488339375336
66.4124733603322
66.3685966752937
66.3608199507125
66.3933591068815
66.4705840596491
66.5970744155078
66.7776833476876
67.017511709338
67.3164927796364
67.6663166103462
68.0578278562365
68.4815772685738
68.9277084614894
69.3858691276303
69.8451496667415
70.2940532125629
70.7205017427133
71.1118832307665
71.455144526943
71.7369337078186
71.943793911007
72.0658738009867
72.1076392543732
72.0776068390091
71.9847292534134
71.8382293827574
71.6474535697465
71.4217472755736
71.1703548919486
70.9023442631342
70.6265555330693
70.3515732631851
70.0857203647619
69.8370722341211
69.6134707948532
69.4194443202829
69.2528427375058
69.1107764686487
68.9904546045908
68.8891664711259
68.8042657610659
68.733157012837
68.6732842663984
68.6221217685103
68.5771666327105
68.5359333856896
68.4959503517174
68.4547578407776
68.4099144566436
68.3605759081999
68.3095581053465
68.2601747894001
68.2157207991366
68.1794752705387
68.1547079870748
68.1446888598036
68.1527005485875
68.1820542803782
68.2361089784141
68.3182938882899
68.4321349749897
68.5812854717751
68.7695422931327
68.9977078470044
69.259910750057
69.5493224799024
69.8589448892013
70.1815588657346
70.5096865681896
70.8355684177137
71.1511563171188
71.4481247318391
71.7179012731086
71.9517182454426
72.1406862301691
72.2758901542293
72.3504419501896
72.3670268547093
72.3314360496209
72.2496815404755
72.1279145424025
71.9723532743672
71.7892207227672
71.5846930397478
71.3648588369969
71.1356893061136
70.9030188471177
70.6725357170103
70.4497821163446
70.2401404290477
70.0468314982084
69.8693979883171
69.7070368625293
69.5589767728148
69.4244749646241
69.3028144292088
69.1933012808406
69.0952623389524
69.0080428976796
68.9310046674553
68.8635238752399
68.8049895116837
68.7548017150527
68.7123900661691
68.6785775195051
68.6564585022232
68.6493397823618
68.6605424510389
68.6934180662182
68.7513681688121
68.8378673653775
68.9564902620945
69.110942644387
69.3050974294308
69.5430360803992
69.8290963691233
70.1679276180111
70.5637789557778
71.0118195634744
71.5007720144816
72.0187188788899
72.5530807145592
73.0905217568419
73.6168997562086
74.1172674307993
74.5759335910554
74.976591660629
75.3025218181831
75.5368701108962
75.6630035347297
75.6693583876065
75.5648141288018
75.3644718355032
75.083931970814
74.7389414233862
74.3451027024868
73.9176496518071
73.4712897878802
73.0201101339166
72.5775413743932
72.15637420068
71.7688216905657
71.4266222849421
71.1407842560188
70.9131364169547
70.7367283332539
70.6045833824411
70.5100041968783
70.4464958169897
70.4077028249883
70.3873591499943
70.3792496826833
70.3771831775158
70.3749761669888
70.366447773025
70.3454253793679
70.3057611271304
70.2428827067478
70.162070894147
70.0724554463629
69.9830968337837
69.9029657351808
69.8409554217307
69.8059168134739
69.806715940626
69.8523140371193
69.9518712322619
70.1148758101014
70.3513023217773
70.6718035458832
71.0877931294155
71.6011759465251
72.1968078419375
72.8573125346685
73.5642626473742
74.297852038239
75.0366552920823
75.757494399851
76.4354379060521
77.0439604020673
77.5552889398447
77.9409563934349
78.1725691441722
78.2309261043717
78.1284818451343
77.886340406702
77.5267532572543
77.0724119715777
76.5458582138622
75.9690260393055
75.3629191518647
74.7474165607123
74.1411942499233
73.5617477319373
73.0255001596239
72.5479824180679
72.1423416402108
71.8079468466022
71.5382210165615
71.3270724131401
71.1688326209212
71.0581708629497
70.9900205233194
70.959515921925
70.9619378584005
70.9926668197538
71.0471430523138
71.1208329487775
71.2092014061641
71.3077222614257
71.414099682214
71.5297475438192
71.6564510598727
71.7960290756505
71.9503401545341
72.1212897138628
72.3108382890498
72.5210110227948
72.753908497654
73.0117190557522
73.2967327798048
73.6113573458434
73.9580729206233
74.3350463887923
74.733022267681
75.1416769960804
75.5502341696499
75.9474432337521
76.3215904948797
76.6605460357833
76.9518498107067
77.1828393697528
77.3408202536192
77.4132780887615
77.3881288362934
77.2570990588919
77.0291941272966
76.7193525383873
76.3426602491669
75.9140685478832
75.4481751096833
74.9590651886965
74.4602103467054
73.9644201380373
73.4838411290258
73.0299973940709
72.6138670426255
72.2459902435196
71.93599861498
71.6841557398337
71.4837694936209
71.3283253756592
71.2115964343164
71.12757119329
71.0703938558158
71.0343154992704
71.0136553693091
71.0027716908805
70.9960416465296
70.9878503385936
70.9725886558298
70.9446604622274
70.9007201310324
70.8448208758949
70.7825287548218
70.7193772755189
70.6608618004332
70.6124425502388
70.5795560635527
70.5676350179916
70.5821364192336
70.6285783205355
70.712585447353
70.8399443756722
71.0166692580328
71.2486329618681
71.5342420253233
71.8653485437664
72.2334515066046
72.6298004519555
73.0453091104817
73.4704890913996
73.8954057544795
74.3096590606651
74.7023926119088
75.0623342164207
75.3778710773894
75.6371620300874
75.8301562975982
75.9578813583439
76.0257015585197
76.039331340659
76.0047431946655
75.9280872007629
75.8156184987928
75.6736339597025
75.5084188877646
75.3262041860384
75.1331340866736
74.9352442892985
74.7384501584552
74.5482363885017
74.3688609003223
74.2042524215832
74.0582827638829
73.9347848723165
73.8375747304984
73.7704771411455
73.7373555070396
73.7421458600285
73.7888955296104
73.8818070121216
74.025287803138
74.2240052202641
74.4797982113234
74.7851711334632
75.1307458499518
75.5069195711323
75.9037675543636
76.310969223265
76.7177598385435
77.1129105919331
77.4847404533025
77.8211632126175
78.1097728464721
78.3379695282861
78.4949752316385
78.5821231191015
78.6058660301894
78.5730148639279
78.4906227464208
78.3658904311632
78.2060831616736
78.0184602706105
77.8102182111348
77.5884472278758
77.3601014897095
77.1319822291632
76.9106586008484
76.6991877332962
76.4959214297446
76.298909817614
76.1062450991913
75.9160586820326
75.7265192775276
75.5358319172864
75.3422378404542
75.1440152066384
74.939480589024
74.7269912006278
74.5049478036724
74.2719289419126
74.0300356815315
73.7850708996636
73.5428763485299
73.3091421702938
73.0894167906031
72.8891251623634
72.7135948753008
72.5680897915443
72.4578510559848
72.3881455612468
72.3643222228341
72.3918767465256
72.4765008958727
72.6199414275376
72.8152004110778
73.0542036587658
73.3288297908178
73.6308178486206
73.9516922647386
74.2827057468231
74.6148012843571
74.9385949790879
75.2443817089787
75.5221657275805
75.7617181358101
75.9530496790139
76.0929146914575
76.1839952228055
76.229382436383
76.2323562209781
76.1963469111284
76.1248986930701
76.0216353156028
75.8902286024845
75.7343701416342
75.5577464112213
75.3640174974923
75.1567994666298
74.9396276698078
74.7157923343864
74.488429913434
74.2606040402573
74.0353049363092
73.8154507851565
73.6038914212149
73.4034141908343
73.2167518605284
73.0465924706064
72.8955910615493
72.7663832348183
72.6616005492416
72.5838069096965
72.5341908628362
72.512801870006
72.5197167828107
72.5550786812799
72.6190979631334
72.712053838062
72.8342962449871
72.986248215222
73.1684087098518
73.3813559655839
73.625751389918
73.9023440538849
74.2116249708266
74.5487392337439
74.9044145483208
75.268928861777
75.6321815517339
75.983678759204
76.3125470075827
76.6075778497738
76.8573059807166
77.0501225359696
77.1744241285928
77.2187965465649
77.1722446552626
77.0302857614516
76.8039162065196
76.5067643230807
76.1525110142876
75.7546714996108
75.3264266921371
74.8805038128361
74.4291037789928
73.9838715867871
73.555905275992
73.1557990172631
72.7937162888945
72.4794899088636
72.2211367950478
72.0181542602239
71.8674885266459
71.7663584753623
71.7122200582099
71.7027333184082
71.7357330786408
71.8092026860908
71.9212503061424
72.0700873403052
72.2540086132716
72.4713740319799
72.7205914685637
72.9997623785504
73.3036933177064
73.6251935671031
73.9568181529958
74.2908567400038
74.6193174797615
74.933927404286
75.2261509344412
75.4872280106815
75.7082331056598
75.8801559233973
75.9940039132714
76.0409278187125
76.0155114276977
75.9222513437717
75.7677640176724
75.5588809631247
75.3025479861635
75.0057355615694
74.6753616284391
74.31822745676
73.9409667042578
73.5500073517252
73.1515458799127
72.7515328287546
72.3556687517633
71.9689993465343
71.5934736960042
71.2297259298584
70.8783611632881
70.5399634270765
70.2150985302961
69.9043169489469
69.6081567407904
69.327146488755
69.0618082773685
68.8126607087308
68.5802219666
68.3650129392527
68.1675604139279
67.9884610093169
67.8289067707488
67.6904215667326
67.5745417411377
67.4828229501071
67.4168514479471
67.3782562629065
67.3687223819377
67.3900050919277
67.443945657531
67.5324885537385
67.6577005160057
67.8217917238806
68.0271394977341
68.2758834437621
68.5644637730145
68.8850290810029
69.2294189595922
69.5891849762092
69.9555376602176
70.3193138426097
70.6709666538424
71.0005807623566
71.2979154538326
71.5524778540755
71.753627935281
71.8907158791852
71.9533170743727
71.9373524451966
71.8499014295489
71.6995267578881
71.4950146241981
71.2452353298782
70.9590244974773
70.6450863246763
70.3119192548306
69.9677635729601
69.6205698078151
69.2779864240081
68.9473651022444
68.6357819023294
68.3500504112517
68.0941100335017
67.8666616543261
67.6659094119311
67.490155225618
67.3377864809446
67.207264976213
67.0971169767923
67.0059242478204
66.9323159562631
66.8749613507745
66.8325631428036
66.8038515253345
66.7875787768642
66.7825144079755
66.7875787956213
66.8025076734135
66.8273371953092
66.8621127895977
66.9068888753138
66.9617290015859
67.0267060083331
67.1019022090258
67.1874095963317
67.2833300715695
67.3897756990086
67.5068689861721
67.6347431914299
67.7735426603068
67.9232252288265
68.0818326751481
68.2462923121988
68.4134627371923
68.5801413202993
68.74306279781
68.8989009297477
69.0442733737943
69.1757499154514
69.2898641685742
69.3831288198684
69.4520544351068
69.4931717736841
69.5030574723736
69.4792758529629
69.4243281431772
69.3423830758306
69.2376417636162
69.1143069841187
68.9765585419792
68.8285337819681
68.6743132269744
68.5179112302718
68.3632714732212
68.2142671067846
68.0747053262503
67.9483361815207
67.8388654583859
67.7497487320931
67.68250135259
67.6376708420919
67.6158367732468
67.6176230935103
67.6437025098334
67.6948012538464
67.7717042809191
67.8752609637275
68.0063913494159
68.1660930593487
68.3554489220602
68.5756354436759
68.8279322361942
69.1131172488709
69.4276616774259
69.766042484179
70.1225497499632
70.4912559569384
70.8659866210823
71.240300729754
71.6074821398223
71.9605432222842
72.2922420837489
72.5951146344231
72.8615225868134
73.0837181420803
73.2544123102413
73.3716591469829
73.4369442616453
73.4520387417182
73.4189281532876
73.3397857929082
73.2169452669774
73.052872937477
72.8501407297158
72.6113997442685
72.3393550547702
72.0367420086024
71.7063042815717
71.3507944816007
70.9754021260882
70.5899010777064
70.204216092279
69.8278518269574
69.469910613471
69.1391341261119
68.8439664485048
68.592636651523
68.3932597867502
68.2539561560068
68.1829898415515
68.1889288049154
68.2808304491743
68.468417365679
68.7553659039399
69.1312897978309
69.5840940485031
70.1015219344958
70.6708781970271
71.2787903034154
71.911010300062
72.5522633926209
73.1861525545229
73.7951309788302
74.3605557303273
74.8628360920723
75.2820131654682
75.608125136775
75.8438109919729
75.9931966682401
76.0611079944309
76.0529594388495
75.9746402006605
75.8324015320163
75.6327486762508
75.3823402075766
75.0878969126587
74.7561217112234
74.3936315097082
74.0069657294856
73.6039401517167
73.193532842114
72.7844117550061
72.384867517409
72.0028308364407
71.6459072978447
71.3214276680128
71.036512232656
70.7981482337932
70.6132800889345
70.4889127911151
70.4322297093076
70.4507269660895
70.550692265635
70.7291882013526
70.9801646355832
71.2978465884419
71.6766163352646
72.1109017328235
72.595073558515
73.1233505374619
73.6897114172589
74.2878140892801
74.9109223686364
75.5518416409027
76.2028666871941
76.8559274123057
77.5027597817579
78.1345959396952
78.7421366391308
79.3155866849447
79.8447157852886
80.3189472918288
80.7274765674551
81.0594196305278
81.3039912815204
81.4507101516501
81.4899901296236
81.42274170736
81.2612170738425
81.0187156294286
80.7087753309123
80.3449336776713
79.9405334155255
79.5085744935226
79.0616114649054
78.6116938420096
78.1703458806309
77.7485818192873
77.3569521596675
77.0032578827883
76.6873143557452
76.4074296169086
76.1620448603
75.9497216151097
75.7691302667014
75.619039746411
75.4983082414309
75.4058747963182
75.3407516948105
75.3020175251996
75.2888108449186
75.3003309759028
75.3362894666596
75.3972054331795
75.4837207387139
75.5965337932735
75.7364040695866
75.9041570740258
76.1006898294637
76.3269769349366
76.5840772762055
76.8731414720565
77.1954201537419
77.5522731897049
77.943300078341
78.3589764888749
78.7866092291294
79.2129507763971
79.6241745123457
80.0058960955739
80.3432465855522
80.6210017554659
80.8237705340147
80.9362430593497
80.9434954057394
80.8313449169701
80.5923370984272
80.2387571694042
79.787324664876
79.2548953126254
78.6581102945503
78.0131174116228
77.3353646901608
76.6394629056012
75.9391107553297
75.2470748853878
74.5752164777114
73.9345564089575
73.3353718769327
72.7858447742321
72.287370866724
71.8396571133569
71.4425607815147
71.0960954164482
70.8004379945941
70.5559374844164
70.3631250163344
70.2227258978255
70.1356737520133
70.1031271096806
70.1264888478562
70.2074289456957
70.3478610910947
70.5464960656083
70.7964781147136
71.090441002647
71.4209337270076
71.780330272285
72.1607539580989
72.5540170692294
72.951577100855
73.3445114767456
73.723512976833
74.078908308006
74.4007022240595
74.6788085888069
74.9080395110704
75.0892465470743
75.2238434909402
75.3134506327925
75.3598736911744
75.3650818402692
75.3311852684233
75.260412680324
75.1550891219525
75.0176144672294
74.8504428602261
74.6560633590267
74.4370602684776
74.1973724800333
73.9420284559725
73.6759868851414
73.4040832926464
73.1310204429719
72.8613650711162
72.5995504999166
72.3498847059573
72.1165634299543
71.9036879862359
71.715287506499
71.555345453004
71.4278293411318
71.3359939920687
71.2811366709991
71.2643113035912
71.2866888827452
71.3495703283792
71.4544008523883
71.6027860845736
71.7965102596074
72.037556818817
72.3281318459773
72.6706908362324
73.0679693953399
73.5230180069298
74.0363544857923
74.5989851558257
75.1994435890813
75.8255703214182
76.4643900256811
77.1020265531144
77.7236633866309
78.3135582327103
78.8551209367664
79.3310633747931
79.7236281797975
80.0149009734149
80.1925982818802
80.2630986846838
80.2374488839554
80.1274145094823
79.9452172948203
79.7033006086432
79.4141296098554
79.0900296187823
78.7430639915169
78.3849509615237
78.0270176146233
77.6801883805106
77.3545885867328
77.0555633714969
76.7856263014836
76.5472309299094
76.3428316039137
76.1749063548768
76.0459814984043
75.9586581919842
75.9156412755196
75.9197708083714
75.9740568197598
76.0817179119167
76.2462231703496
76.4692189052572
76.7461708569034
77.0714061256059
77.4392306045802
77.8438558453189
78.2793335780016
78.7394978831326
79.2179154183526
79.7078444758375
80.202203978294
80.6935538065069
81.1740887495948
81.6357285123382
82.0702253143907
82.4690687137781
82.8235269016438
83.12472536887
83.3637452581183
83.5317409674271
83.6200756294665
83.620472011276
83.5251752177165
83.3271224151208
83.0215156359744
82.6179577832252
82.133918050419
81.5867608601793
80.9933795813907
80.3699906229152
79.7319997149617
79.0939340506205
78.4694324796451
77.8712855465342
77.3115176146739
76.8015043953438
76.3521101668322
75.9696818121456
75.6500772204461
75.3879446944337
75.1783236486251
75.0165754197297
74.8983234676985
74.8194014536687
74.7758080062836
74.7636672501619
74.7791943840216
74.8186657718248
74.8783931561714
74.9547143007635
75.0446648827168
75.1463307929168
75.2578769350673
75.377454491357
75.5031963887733
75.6332136537483
75.7655926760135
75.8983934093825
76.0296485421763
76.1573636730479
76.2795185289063
76.3940692603426
76.4990268883654
76.5929782350786
76.6747852047096
76.743313080753
76.797432555122
76.8360237190574
76.8579803560606
76.8622145150257
76.8476613366308
76.8132841008075
76.7580794578444
76.6810828004972
76.5813826817833
76.4591970109606
76.3168714707656
76.1569924418935
75.9821323261849
75.7948389932349
75.5976270127717
75.3929706488448
75.1832985702507
74.9709902151769
74.7583737365524
74.547725447743
74.3412706856433
74.1411899025685
73.9498896007503
73.7701729825761
73.6048368868334
73.4566404533633
73.3283174456352
73.2225905322965
73.1421875484884
73.0898598060845
73.0684025771327
73.080677937772
73.1296402323884
73.2183645020092
73.3500654719339
73.5259649026568
73.7428140688861
73.9968266863535
74.2842192913255
74.6011722969083
74.9437946582397
75.3080920621512
75.6899387079475
76.0850528847549
76.4889766778498
76.8970602503293
77.304451244808
77.7059372147147
78.0949984232329
78.4643921852289
78.8066366230753
79.114053382763
79.3788240486365
79.5930625755239
79.7489036800394
79.8386064787933
79.8546718891643
79.7899714495023
79.6378843174557
79.3936671247969
79.0639282890658
78.6610778824003
78.1975755517862
77.6856875690152
77.1373300232209
76.5639520492938
75.9764570628531
75.3851588057651
74.7997683435089
74.2294079242066
73.6826477239116
73.1675618797524
72.6914718324071
72.2563909618828
71.8604568162661
71.5018695180434
71.1789823559169
70.8902874708526
70.6344031426133
70.4100624699889
70.2161032675994
70.0514590270705
69.915150811391
69.8062799690303
69.7240215694581
69.6676184745165
69.6364281480759
69.63023601185
69.649042087213
69.6929009271929
69.7619212942298
69.8562667739068
69.9761566891912
70.1218673246215
70.293733473128
70.492150321636
70.7175756953373
70.9705326845894
71.2516126828918
71.561406611334
71.8972744296436
72.251888787734
72.6173076079191
72.9852688981988
73.347171403335
73.6940746767317
74.0167206476397
74.3055786840922
74.5509158349365
74.7428933407255
74.8716896117207
74.9276486814635
74.9019902623654
74.7958164318211
74.6186546580056
74.3805509741001
74.0916444661122
73.7620211902495
73.401595826843
73.0200214854735
72.6266269188457
72.2303795761423
71.8398724170239
71.4633321829907
71.1086468416896
70.7834101382489
70.4939719052564
70.2425400056251
70.0303610617048
69.8587643059306
69.7291791709154
69.6431542364634
69.6023778505829
69.6087007959329
69.6641614392546
69.7710138822594
69.9317597321123
70.1491842330648
70.4263976544361
70.7667275433319
71.1680287853747
71.6206992351723
72.1143261788876
72.6380173695105
73.1802787511043
73.7289231473542
74.2710149674014
74.7928571487615
75.2800272279793
75.7174694283232
76.0896487851221
76.3807714108837
76.5774437149965
76.6819732266067
76.7034496615952
76.6515828643942
76.5364897879482
76.3685160601362
76.1580818346879
75.9155548392497
75.6511519743303
75.3748695478722
75.0964412883498
74.8253226691259
74.5706997800325
74.3396303009877
74.1307667135987
73.9405695591688
73.7655981911869
73.6024949362593
73.447972572081
73.2988049693672
73.1518207241915
73.0038996378893
72.851971920957
72.6930200062076
72.5240828556559
72.3422626359988
72.1452971893986
71.9370383480552
71.7249328091228
71.5163112198291
71.3183357523475
71.1380154240476
70.9822351326044
70.8577977844428
70.7714791917361
70.7300958097495
70.7405858851837
70.8101051992989
70.9461393410864
71.156612022763
71.4441759843345
71.7982936402646
72.2064198770367
72.6556654908792
73.1326127026502
73.6231740881511
74.1124998359472
74.5849402555981
75.0240717232073
75.4127945394274
75.7335102170498
75.9683832498114
76.1004879454234
76.1273860403097
76.0593247282098
75.9076151694168
75.6839958733586
75.4003985612521
75.0687477706191
74.7007977181733
74.3080076013932
73.901454660101
73.4917829800468
73.0891851888785
72.7034138227425
72.3437788062707
72.0164476705063
71.7228625919735
71.4640693567812
71.2411639613294
71.0553058194513
70.907731734145
70.7997708232918
70.7328606184502
70.708564591137
70.7285914034036
70.7948162307505
70.9093045677199
71.0743390026499
71.291494684299
71.5557680782005
71.8592086283582
72.1937081768739
72.5509279310958
72.9222310845828
73.2986340020614
73.6707778211397
74.0289227573759
74.3629676239553
74.6624970455458
74.9168585069051
75.1152707596394
75.2496905139657
75.3222234377256
75.3375755956129
75.3007371949527
75.2169100567905
75.0914397477193
74.9297537115363
74.7373063864915
74.5195319588452
74.2818051013057
74.0294097856616
73.7675160482453
73.5011644267512
73.234507355708
72.9683068158455
72.7024111389706
72.436673161703
72.1709501979711
71.9051039920745
71.6390006772112
71.3725107390154
71.1055089836673
70.837874510145
70.5694906862061
70.3002451276947
70.0300296807823
69.7587502711568
69.4879702749145
69.2226797709226
68.9681571713654
68.7295303571878
68.5117981509745
68.3198587797989
68.1585450019253
68.0326657684077
67.9470545237998
67.9066245220316
67.9164318506515
67.9817472304639
68.1081381054276
68.3015520000605
68.5639549339996
68.8863372153792
69.2578660394847
69.6674375766151
70.1035254572683
70.5540627344574
71.006360763007
71.4470699577348
71.8621884138818
72.2371247475065
72.5568210621288
72.8059404891444
72.9691211401425
73.035239274339
73.0095854799145
72.9020850077349
72.7231436653541
72.4834337332897
72.1937061135056
71.8646326910013
71.5066808336071
71.130020238954
70.7444610214154
70.3594210275895
69.9839198532918
69.6265968629814
69.2957445212631
68.9969435984624
68.7295529514292
68.4920786780899
68.2831331799155
68.1014244273576
67.9457463047314
67.814969896834
67.7080355986392
67.6239459455565
67.5617590754857
67.5205827456226
67.4995688370306
67.4979082886389
67.5148264098024
67.5496409801011
67.6019980479813
67.6716601545426
67.7584143183655
67.8620707911012
67.9824619296067
68.119441157352
68.2728820071175
68.4426772377195
68.6287380181262
68.8309931728917
69.0493884833211
69.2838860392188
69.5344622215318
69.800074830964
70.0767842862833
70.360035255135
70.645125437784
70.9271984365468
71.2012430619621
71.462099628922
71.7044737874643
71.9229583794418
72.112063708164
72.266256448903
72.380007211514
72.4478464931286
72.4661193879026
72.4412249603816
72.3832811305242
72.3024579322368
72.2088944601304
72.1126493039168
72.0236793641952
71.9518464574525
71.9069510349953
71.8987925749391
71.9372567477914
72.0324303057599
72.1947458259233
72.4343681400339
72.7499200266032
73.130736321156
73.5657825725719
74.0437116348881
74.5526988936572
75.080309716253
75.6134028159675
76.1380749281088
76.6396534531547
77.102744372763
77.5113425921089
77.8490789693033
78.1077200596668
78.295535163428
78.4232682297359
78.5021286338989
78.5436345687133
78.5594862957176
78.5614722934567
78.5614099983722
78.5711218820343
78.602447085934
78.6672887579024
78.7776969904028
78.942943085473
79.1624853537325
79.4338650070348
79.7547501526311
80.1229018348741
80.536142121133
80.9923237808331
81.4893011919554
82.0249021858612
82.5969006120851
83.2029894723608
83.8406283282628
84.504900174635
85.1886444746855
85.8841583451211
86.5832156405878
87.277041388853
87.9563027514695
88.6111194304532
89.2310965188639
89.8053826694707
90.3227560808281
90.7738708933615
91.1597143826569
91.4847973687408
91.7540558171701
91.9727849946024
92.1465765286891
92.281259382062
92.3828461151546
92.4574855464802
92.5114226630036
92.5509476517791
92.5820635905326
92.6105193430065
92.6420709363831
92.6824906632576
92.7375745551977
92.8131571190198
92.9151334715337
93.0494891065185
93.2223376675154
93.4399079185226
93.7032515765216
94.0038646439548
94.3321057625621
94.6781127095874
95.0317519397683
95.3825885807894
95.7198784274058
96.0325836744458
96.3094141146977
96.5391031012147
96.7181157288173
96.8530427746011
96.9513420400379
97.0206301344096
97.0686307913729
97.1031348084546
97.1319721469757
97.1629965042817
97.20408252473
97.2617501029436
97.3316660747965
97.4043298500634
97.4701567460426
97.5195123208219
97.5427353272899
97.5301798068586
97.4722761906377
97.3596108489815
97.1830361778882
96.9390475778975
96.6377346686344
96.2912255408154
95.9114734358591
95.5101639908341
95.098652749254
94.6879313884231
94.2886206533537
93.9109878168981
93.564875825727
93.2499169795564
92.9481525412676
92.6402933790496
92.3075625457678
91.9317532652589
91.4953582768241
90.9817630262549
90.3754927674902
89.6625005395644
88.8304796089117
87.8695994856631
86.7876500436105
85.6123109860609
84.3709097882719
83.0886801000039
81.7885364605317
80.4910008931561
79.2142504097635
77.9742555743078
76.7849836366044
75.6586443031413
74.6059611734999
73.6364567215693
72.7586962545771
71.9750780732627
71.2775188768421
70.6576774769833
70.108080230345
69.6219789212699
69.1932323079602
68.8162068056839
68.4856927843787
68.1968337274355
67.9450660935667
67.7260681879316
67.5357167137568
67.3700499647235
67.2252368484464
67.09775255532
66.9850353616032
66.8848192631575
66.794879825874
66.7130265916564
66.6370970274364
66.5649519442665
66.494472335245
66.4235575917666
66.3501250644189
66.2721109379586
66.1874723893733
66.0941909942246
65.9902773394432
65.873850393695
65.7458171889122
65.6105816027672
65.4727108462647
65.3366983958672
65.2069638245292
65.0878586701964
64.9836780982341
64.8986781652673
64.8370985736863
64.8031909174466
64.8012525609959
64.8356664662852
64.9109474922187
65.0317959438624
65.2026568153739
65.4221689279458
65.6850568303737
65.9859682885312
66.3194745971181
66.6800071233866
67.0618018974362
67.4588526326981
67.8648729462862
68.2732688877071
68.6771231661481
69.0691926749463
69.44192102502
69.7874677910251
70.0989252589267
70.3755054872051
70.6186032278581
70.8297704020858
71.0106994141369
71.1632074844761
71.2892210151309
71.3907602611287
71.4699245557139
71.5288783079038
71.5698379602301
71.5950600634831
71.6068305950294
71.6074277351972
71.5985006827883
71.5810646888983
71.5561117675549
71.5246363664035
71.487633425839
71.4460967137602
71.4010174379468
71.3533831362735
71.3041768435324
71.2543765325035
71.204954826118
71.1568789770756
71.1111111111111
71.0683727923857
71.0284400466724
70.9908551464994
70.9551628036412
70.9209098956259
70.8876452512394
70.854919494254
70.8222849447148
70.7892955771822
70.7555070353694
70.7204767026226
70.683763827668
70.6449297050017
70.603587880808
70.5612247090089
70.5217072029725
70.4890410479403
70.4672199399941
70.4602356412252
70.4720925595244
70.5068269132174
70.5685306216817
70.6613801676004
70.789670807301
70.9578566668938
71.1705974599
71.432812805603
71.7475065890606
72.1080497394877
72.5049456393071
72.9283699801131
73.3680769559827
73.8133308590827
74.2528662658571
74.674880661102
75.0670637324285
75.416667509721
75.7106209203889
75.9356910881722
76.0788386465125
76.1355229115396
76.1141038339684
76.0244599952451
75.8767816878413
75.6814042386628
75.4486671731635
75.1888013095097
74.9118444490058
74.6275852182549
74.3455338397848
74.0749181527249
73.8247030472602
73.6035673514994
73.4155517060632
73.2573782231312
73.1252217110136
73.0153688908426
72.9241940479698
72.848138770153
72.7836954830455
72.727394571825
72.6757949388859
72.6254778931705
72.573044298144
72.5151149234265
72.4483342440919
72.3708162855878
72.2854658039702
72.1961521063183
72.1067091947439
72.0209337006112
71.9425868523829
71.8754003791068
71.823086269245
71.7893503390476
71.7779096155829
71.7925136069579
71.8369696169506
71.9151723648823
72.0304574757736
72.1796956459303
72.3560772246997
72.5526854449443
72.7624903561255
72.9783150840772
73.1928156174384
73.398474888134
73.58761203122
73.7524077038623
73.8849462001445
73.9772748053262
74.0214803825264
74.0107522455881
73.9469375350328
73.836429209363
73.6857751092057
73.5015665925885
73.2903743551316
73.0586960752467
72.8129160190701
72.5592763983081
72.3038600242863
72.0525836408996
71.8112012415867
71.5853166724424
71.3803722286189
71.1994339743861
71.0418283552429
70.9065921902806
70.7928166372836
70.6996419134263
70.6262524529028
70.5718724518924
70.5357617573624
70.5172120615036
70.5155433682122
70.5301007020777
70.5602510338894
70.6053803998133
70.6647694352927
70.7365312330567
70.8181141908135
70.9069451348572
71.0004302954242
71.0959508536323
71.1908603807015
71.2824842181365
71.3681208527423
71.4450453394102
71.5105148172243
71.5617761503307
71.5960757039798
71.6106972320189
71.604771329616
71.5804468810783
71.5401738670197
71.4864149963495
71.4216356467951
71.3482954921863
71.2688418368873
71.1857046561019
71.1012933240929
71.0179950006409
70.9381746392335
70.8641765783591
70.7983276796793
70.7426580551828
70.6967244346777
70.6588245067531
70.6272589774081
70.6003386478392
70.5763817864853
70.5537123133226
70.5306587865012
70.5055541842616
70.4767364763032
70.4425499784401
70.4013474824803
70.3514931498462
70.2913668123466
70.2204106471815
70.1412304241386
70.0570080239148
69.9708985079404
69.8860270878687
69.8054889215407
69.7323516664215
69.6696607261605
69.6204471406155
69.5877380940121
69.5745700497342
69.584004563645
69.6191468813042
69.6831328082408
69.7767504398289
69.8968611301693
70.0399732974529
70.2025855982459
70.3811649486991
70.5721279455536
70.7718257226437
70.9765323516538
71.1824369552502
71.3856397455774
71.5821522300735
71.7679018377612
71.9387412104923
72.0913135781656
72.2259865147993
72.344196892273
72.4474264554112
72.5371952752081
72.615055730602
72.6825870491431
72.7413904557002
72.793084969392
72.8393038808482
72.8816919348795
72.9219032377824
72.9615999039221
73.0023565807749
73.0450805396138
73.0903912992807
73.1389107298576
73.1912647133305
73.2480837487925
73.3100036692033
73.3776664725834
73.4517212710936
73.5328253621204
73.6216454262585
73.7188588579596
73.8251552356153
73.9413694510758
74.0692908745194
74.2111498680814
74.3692254856895
74.5458531217074
74.7434353877728
74.9644547456269
75.2114880683705
75.4872233429135
75.7944787748943
76.1362246157758
76.5156081023999
76.9359195579703
77.396256346835
77.8884048292198
78.4030875393007
78.9305460687199
79.4604876446644
79.9820560858608
80.483830868486
80.9538582966879
81.3797186839361
81.7486329250871
82.0476107959557
82.2644067757455
82.3974147644242
82.4530497545106
82.438393898101
82.3609043407766
82.2282933882134
82.0484196269618
81.8291921972261
81.5784896430864
81.3040940734843
81.0136407835047
80.7145830251724
80.4137873174574
80.114234469731
79.8167654544662
79.5221737246541
79.2312291193456
78.9446787311539
78.6632479023353
78.3876413388337
78.1185443326656
77.8566240840689
77.6025311159208
77.356900774052
77.120358248753
76.8938263940676
76.6787600061897
76.476644275789
76.2889421596559
76.1171000332796
75.962553844838
75.826735775858
75.7110814242182
75.6170375364236
75.5460703283306
75.4996744469431
75.4793826407823
75.4865873114061
75.5194436663664
75.5733514760904
75.6436356931326
75.7256120035039
75.8145692861594
75.9057578523884
75.9943835463568
76.0756078347918
76.1445540296521
76.1963197712977
76.2259958498383
76.2286913581708
76.2007749885006
76.1440017742233
76.0616388061522
75.956981842051
75.8333348589663
75.6939924629299
75.5422251902806
75.3812677172483
75.2143099467591
75.0444909045681
74.8748953506538
74.7085529958702
74.5484403097568
74.3976457813396
74.2596988657528
74.1381778411322
74.0366315634399
73.9585972935357
73.9076218676087
73.8872863080119
73.9012340650341
73.9532031900599
74.0470628701013
74.1868549073805
74.3768409118465
74.6215320872568
74.9216680872862
75.2694589826118
75.6558668954698
76.0715856228107
76.5069493475589
76.9518630409464
77.3957568982884
77.827567839004
78.23575153457
78.6083285376367
78.9329677938616
79.1971123191128
79.3917558685775
79.5190460964582
79.5835924739824
79.590351256994
79.5445495376991
79.4516128266641
79.317097763044
79.1466311984307
78.9458565520054
78.7203880094561
78.4757728484787
78.2174619283144
77.9507317247272
77.6803303979314
77.4107093002706
77.1461974989569
76.8910067871855
76.6492405952065
76.4249071882201
76.2219368932361
76.0442031675784
75.8955474074293
75.7798074951035
75.7008501990935
75.6626056434299
75.6676386613781
75.7145871648897
75.8015260967061
75.9266429943221
76.0882185123152
76.2846084627275
76.5142271239937
76.7755316092092
77.0670071193364
77.3871529374903
77.7344690477433
78.1074432867597
78.5038021716476
78.9164132624958
79.3359341866796
79.7526158263666
80.1562967791047
80.536418400552
80.8820676910024
81.1820503826444
81.4249959670741
81.5994954035901
81.6942708551831
81.6983780085141
81.6061279876884
81.4266981194098
81.1723612812362
80.8555623812689
80.4887159516107
80.0840417156644
79.6534391089175
79.2083999174848
78.7599568962886
78.3186654239645
77.8946148949713
77.497466574103
77.1360125179002
76.8134013766323
76.5295058884174
76.2842509894506
76.07766306669
75.9098722675742
75.781115540921
75.6917404627039
75.642209912119
75.6331076766934
75.6651450805002
75.7391687472673
75.8561695981577
76.0161150647498
76.2147995925405
76.4470619699558
76.7077039126943
76.9914456664402
77.292888323801
77.6064830279426
77.9265074415273
78.2470500296291
78.5620028352723
78.8650635096428
79.149747387491
79.4097325101834
79.6402986716665
79.8372556322956
79.9964178112368
80.1136397591376
80.1848559991174
80.2061244128571
80.1736725367043
80.083945964778
79.9336578946478
79.7198387056704
79.4398843404712
79.0932726858136
78.6916056716618
78.2513511959584
77.7884644454525
77.3182533412145
76.8553297624643
76.4136192871327
76.0064227148034
75.6465233257335
75.3463352053273
75.1180898881552
74.9740609760742
74.9268292682927
74.9846978440387
75.137193294716
75.3694952794288
75.6669788964036
76.014923055309
76.3982749415454
76.8014698946738
77.2083095273457
77.6019035533614
77.9646824809225
78.2784888671457
78.5247539737517
78.68683145542
78.7645607614596
78.7660130800483
78.6997834943665
78.5747890920672
78.4001274580178
78.1849536195572
77.9383774988861
77.6693828560282
77.3867678215555
77.0991064448559
76.8147302253572
76.5417050537126
76.2850737174572
76.0443541597472
75.8184736622918
75.606397894035
75.4071271067899
75.2196926914512
75.0431540644304
74.8765958579137
74.7191253909997
74.5698704017825
74.427977023071
74.2926079867179
74.1629627761477
74.0397723358802
73.9262408960958
73.8257682036745
73.7417279807591
73.677481638813
73.6363950277829
73.6218582769852
73.6373088552294
73.6862580619453
73.7723212607954
73.8992522854869
74.0709825885828
74.2915341581425
74.559188625766
74.8639378076359
75.1949327314636
75.5409925803743
75.8905381777837
76.2315587783265
76.5516154276224
76.8378844026911
77.0772439785527
77.2564069012798
77.362099419132
77.3812855108326
77.3048282806
77.1391818936628
76.8953945188476
76.5847739879388
76.2186836361913
75.8083704601897
75.3648274448691
74.8986901607929
74.4201662950726
73.9389957803392
73.4644385988962
73.005287112485
72.569899839828
72.1659418475418
71.797789865195
71.4680472752242
71.1792902019724
70.9341195696259
70.7351962005185
70.5852782905051
70.4872618180266
70.4442245903738
70.4594748043559
70.536605208505
70.6795542123317
70.8926756110026
71.1807900106774
71.5443579169104
71.973684951783
72.4575709575464
72.9844138495413
73.5420347013912
74.1175365788884
74.6972019155068
75.2664351659447
75.8097589120414
76.3108723240867
76.7527806437544
77.1180028773051
77.3907292522711
77.5700858699312
77.6628634150968
77.6765839761504
77.6192974576762
77.4994261318972
77.3256214324678
77.1066366157233
76.8512177472007
76.5680143987771
76.265510519884
75.9519752075349
75.6354326645873
75.3238192705355
75.0253217743155
74.7479692006425
74.4995741633994
74.2877882413699
74.1201724255093
74.0042824405256
73.9477694228978
73.958497250528
74.0446787961303
74.2150345688192
74.4789786958801
74.8467637797815
75.32058569361
75.8853448294604
76.5234906494242
77.2166110336861
77.9450800524698
78.6877870538301
79.4219633052625
80.123128052139
80.7651793413408
81.3206552731909
81.7611872938743
82.0592312811672
82.2093540245021
82.2274710121952
82.1316535600026
81.9408573281311
81.674447155466
81.3518032593669
80.9920179506811
80.6136852547791
80.2347808233133
79.8726263758945
79.5439315255631
79.2646206151171
79.0413690750394
78.8704310258232
78.7477304982296
78.6694220091398
78.6318463783258
78.6314917020333
78.664958751175
78.7289302200506
78.8201433834514
78.9353658313401
79.0713740451961
79.2249367121101
79.3929408986546
79.5724743990522
79.7606041039316
79.9543464362992
80.1506616548522
80.3464503733191
80.5385524087981
80.7237480806122
80.8987620820597
81.0602700398553
81.2049078592932
81.3292952353228
81.4303002965081
81.5050598815909
81.5507496144025
81.5645914884833
81.5438743958779
81.4859761053591
81.3883864141485
81.2487311422449
81.0647965861395
80.8345540014409
80.556183644296
80.2284463346474
79.8563617793859
79.4500130086405
79.019374864212
78.5740814998383
78.1233848111746
77.6761364446259
77.2407910730479
76.8254286014828
76.4377931323359
76.085346837429
75.7753373216703
75.5148775964818
75.3100780817402
75.1609714655004
75.0653929023622
75.0214220041576
75.0273633921233
75.0817243086081
75.1831949366675
75.330631019787
75.5230384357127
75.7595594288403
76.0394602469511
76.3621199619505
76.7269610875769
77.1293042216209
77.5574104361922
77.9984038579611
78.4388232105599
78.8645923714659
79.2610396440617
79.6129712991278
79.9048043201431
80.1207617209326
80.2451311898264
80.2625841366147
80.1587411761967
79.9311124158066
79.5944363394594
79.1652860310598
78.660322054221
78.0959620772583
77.4881216712084
76.8520261064567
76.2020892449962
75.5518531797305
74.9139809947437
74.3002947186842
73.7218509978733
73.1890153723417
72.7077312164225
72.276270034127
71.8922711920221
71.5536098112837
71.2583737379807
71.0048434178978
70.7914742731907
70.6168812416982
70.4798251922693
70.3792009730818
70.3140268862823
70.2834354126976
70.2866650359013
70.3229651500271
70.390326151496
70.4857487654821
70.6062438609726
70.7488374829909
70.9105503671533
71.0883799376761
71.2792847375569
71.4801713001236
71.6878835234012
71.899194652918
72.1108020143477
72.3193246640433
72.5213165495808
72.7139536133357
72.895413069765
73.0639351234365
73.2177426050465
73.3550473560186
73.4740575095391
73.5729856524663
73.6500578370672
73.7035233944829
73.7316654834805
73.7328122887722
73.7053487634269
73.6477521883379
73.56021698049
73.4456827310155
73.3073648940315
73.1484836054471
72.9722448155337
72.7818242828186
72.5803544461324
72.3709141390438
72.1565210692284
71.9401269544058
71.7246151858519
71.5128008794493
71.3074331719034
71.1115237320501
70.9300970755041
70.7689047876366
70.6336215590988
70.5298811871529
70.4633234721765
70.4396501725743
70.4646906015489
70.5444778721393
70.6853373096844
70.8939891800501
71.1776686664085
71.544267022571
72.0020607418136
72.5484109088472
73.1678993052102
73.8437115149388
74.5579260571926
75.2912428015362
76.0227945873903
76.7300614392769
77.3889106408185
77.9737872664077
78.4580774879894
78.8146599876402
79.0168661071066
79.0544560178338
78.9441069381722
78.706397481804
78.362797662494
77.9350546398664
77.4446896064016
76.9126159840772
76.3588791310951
75.8025106042671
75.2614857234422
74.752771447269
74.2924519348862
73.8958005881853
73.5709957891809
73.3162843228386
73.1295026455135
73.0088906001631
72.9530637092697
72.9609911699362
73.0319789449582
73.1656574870703
73.3619737570757
73.6211873056579
73.9438702879026
74.3309113729015
74.7832621248909
75.2951013509632
75.85269299939
76.441197750459
77.0448774219255
77.6469795671539
78.2296882908003
78.7741530465364
79.2606076940196
79.6685909118767
79.9772757713825
80.1659105650088
80.2151066581347
80.1237437940438
79.9091062808591
79.5900965403263
79.1859735428988
78.7159148889482
78.1986715627894
77.6523176624239
77.0940915678923
76.5403211373009
76.006423489524
75.5069694770077
75.0558037476778
74.6652252311027
74.3366556382053
74.0653183482267
73.8467259727927
73.6767110016875
73.5513710731625
73.4670212207649
73.420151989201
73.4073925386967
73.4254780422387
73.4712208324129
73.5414848814082
73.6331633044729
73.7433068498445
73.8707562579153
74.0155559355022
74.1777950215754
74.3575863243761
74.5550665721182
74.7703967450891
75.0037624908352
75.25537462465
75.525469718134
75.8143107791751
76.1221880273076
76.4494187431799
76.794709542688
77.1517261038085
77.5129493994407
77.8705756498938
78.2165125090126
78.5423917515572
78.8395999511918
79.0993284676273
79.3126437112297
79.4705781071892
79.564241433336
79.5849513467001
79.5272783854432
79.3967858219654
79.2017694879801
78.9507132082529
78.6521642965363
78.314626476117
77.9464713946722
77.5558690399317
77.1507366664342
76.7387053241807
76.3271027327448
75.9229510550629
75.5329567742954
75.1623804609518
74.8145331824341
74.4924810727347
74.1992175725301
73.9376879628289
73.7108159311106
73.5215322643156
73.3728058584784
73.2676773392018
73.209295703767
73.2009585287365
73.2461564420834
73.3485853620945
73.5076960104109
73.7143161987056
73.9582413967752
74.2291198864493
74.5163590356286
74.8090599727582
75.0959824141727
75.3655420361233
75.605843052268
75.8047484978743
75.9499900731903
76.0293182127287
76.0315114786818
75.9568852163464
75.8141962910204
75.6126473799414
75.3615597762795
75.0702443691549
74.7478954590506
74.4035080306179
74.0458181493118
73.6832654409106
73.3239761498946
72.9757650346598
72.6461543166787
72.3423471442966
72.068601652027
71.8253277804358
71.612710305824
71.4309961444933
71.280497788863
71.1615971549791
71.0747498935766
71.020490223871
70.9994363574995
71.0122965897321
71.0598761464865
71.1430848891454
71.2629459950786
71.4198257808287
71.6100462914984
71.8285616730307
72.0702690969603
72.3299711327035
72.6023441833714
72.8819141290746
73.1630396395656
73.4399037546157
73.7065144205328
73.9567147071637
74.1842034028308
74.3825665859564
74.5465644370567
74.6759506944488
74.7718285641605
74.8354081633089
74.8679953702401
74.8709804712093
74.8458267655878
74.7940592804602
74.7172537321527
74.6170258572939
74.4950212200037
74.3529055852586
74.1923561391878
74.0160657879161
73.8300460358053
73.6408917584927
73.4550678506746
73.2789101729112
73.1186375423425
72.9803742324969
72.8701825753837
72.7941054571443
72.7582187639945
72.7686941695591
72.8318730650733
72.9543529343836
73.1410828648168
73.386715575467
73.6824780000629
74.0195186977835
74.388793433141
74.7809686293632
75.1863457386538
75.5948082958395
75.9957941582468
76.37829593935
76.7308928616668
77.0418171182917
77.2993110726453
77.498347170172
77.6414990394518
77.7320136468648
77.7733971487654
77.7693680054384
77.7238114181886
77.6407360072693
77.5242334908416
77.3784419631771
77.2075132117653
77.015584364345
76.8067540230666
76.5851063922414
76.3548417166738
76.1201230317302
75.8850167811468
75.6534909661509
75.4294175446041
75.2165788142747
75.0186775378045
74.8393506046596
74.6821860770986
74.5507435318142
74.4485776858406
74.3792651591367
74.3453283906737
74.345702845107
74.378659213931
74.4425509122017
74.5357998094506
74.6568830880331
74.8043210727255
74.9766659014924
75.172490930136
75.3903807837023
75.628921985583
75.886694111686
76.1622097702504
76.4523184187712
76.7518408554935
77.0553263517285
77.3571504446746
77.6515115848974
77.9324363140617
78.1937936447417
78.4293192603338
78.6326500341232
78.7973691762263
78.9170620518994
78.9854229053936
78.9999611145944
78.9649367876893
78.8854671486379
78.766790847087
78.6142132750497
78.433058394009
78.2286275738308
78.0061656974646
77.7708345755224
77.5276935463389
77.2816870111393
77.0376385694262
76.8000940623912
76.5723782957758
76.3572633418399
76.1574648762024
75.9756547087021
75.8144731334796
75.6765430148537
75.5644856197713
75.4809382519156
75.4285737922795
75.410122307072
75.4283949475933
75.4863088074456
75.5843252250178
75.7151620777092
75.8700435930832
76.0401057850703
76.2163495841358
76.3896146240906
76.5505745328073
76.6897547358195
76.7975737218914
76.8644084199271
76.880683783592
76.8369858718192
76.7248255845912
76.5457521844749
76.30911470686
76.0245329057112
75.7015675448391
75.3496171432868
74.9778393846927
74.5950965062953
74.2099233180938
73.8305160937502
73.4647403965223
73.120155923091
72.8040566315351
72.5234520353449
72.2819373582748
72.0785994863107
71.9123234752834
71.7821216808454
71.6871249471199
71.6265749017067
71.5998172371569
71.6062958766232
71.6455479364874
71.7171994117656
71.8209615213717
71.956627660163
72.1240707876935
72.3226213549661
72.5495989752821
72.801886637575
73.0763280501063
73.3697053524451
73.6787193150894
73.9999721116955
74.3299528212264
74.6650258819629
75.001422775316
75.3352372631385
75.662424535621
75.9788269110218
76.2810014703437
76.5664998470764
76.8328999258368
77.0777472227042
77.2985668491377
77.4928771148031
77.6582047269932
77.7921015069573
77.892162502655
77.9560453341155
77.9814905628589
77.9663435518229
77.9097136430397
77.8142821102362
77.6834716586698
77.5207642587474
77.3296719546885
77.1137106095837
76.8763767864666
76.6211278738036
76.3513654837579
76.0704220839293
75.7815507685365
75.4879180331006
75.192622710428
74.8999599878367
74.6160224801029
74.3468795005065
74.0984345359697
73.8764554004389
73.6866129838884
73.5345283077086
73.4258278809105
73.3662076860766
73.361506515944
73.4177898438292
73.5414459643946
73.7392016047529
74.0116198336535
74.3485905952686
74.7389315749614
75.1712071956537
75.6335708225343
76.1136397392303
76.5984059893295
77.0741877255093
77.5266268029367
77.9407388638397
78.3010219216701
78.5916310384622
78.800987048892
78.9310327428351
78.9867465758896
78.9735799956016
78.8973575369016
78.7641800414921
78.5803335169713
78.3522056373358
78.0862113615963
77.7887286435779
77.4660447482639
77.1243132952628
76.7695349583037
76.4076980698973
76.0447084961476
75.6862577381926
75.3378250790129
75.0046906154524
74.6919555472248
74.4045690698608
74.1473613663056
73.9250823692352
73.742446170183
73.6041811821113
73.5150864220317
73.4797540503907
73.4970400778355
73.5609738803252
73.6655760221954
73.8049467475089
73.9732043876345
74.1644333417306
74.372641302312
74.5917257202518
74.8154497649258
75.0374282367275
75.2511240277232
75.4498557955134
75.6275061326069
75.7823245909312
75.9143434377242
76.0236442886428
76.1103529290532
76.1746382866257
76.2167112135068
76.2368230905354
76.2352642672411
76.2123623524333
76.168480371053
76.1040148036194
76.0193984976673
75.9159312846626
75.7966974574529
75.6649907251405
75.5240752006002
75.3771763185592
75.2274746032391
75.0781022039166
74.9321421001003
74.7926298712483
74.6625579283876
74.5448821159805
74.4425306112869
74.3584039903473
74.2946242105577
74.2520594303639
74.2314911202402
74.2337370217691
74.2596561452643
74.3101541477138
74.3861891443541
74.4887780147782
74.6190032732681
74.7780205832543
74.9670670077103
75.187470101231
75.4403882767918
75.7223463225445
76.0257685336145
76.3427388331925
76.665087298459
76.9843670054329
77.2918486829465
77.5785347781304
77.8351945178254
78.0524213331176
78.2207135722227
78.3305787429797
78.372744684499
78.3441120050603
78.2515909634943
78.1032522261049
77.9073111601157
77.6720217827601
77.4055875865995
77.1160900055113
76.8114345853468
76.4993143803335
76.1871897142514
75.8822832170196
75.5915889586031
75.3217802399489
75.0776189048912
74.8624252321541
74.6794603873479
74.5319916230357
74.4233234691269
74.3568320646178
74.336003036703
74.3644734800908
74.4460787612534
74.5849050772726
74.7853489474716
75.0521851221014
75.3889808255266
75.7878345947342
76.2355636759139
76.7185066321324
77.2223784988365
77.732152635506
78.2319956616034
78.7052632375212
79.1345652194834
79.5019083607548
79.7889229797287
79.9771766427134
80.0510922587583
80.0137592348093
79.8769073844621
79.6529411435735
79.3546261796323
78.994840161579
78.5863626758041
78.1417072142979
77.6729956648848
77.1918738075918
76.7094649887643
76.2363583722268
75.7826248667588
75.356668293218
74.963548526254
74.6077016136822
74.2934678394458
74.0251429270627
73.8070337355163
73.6435189180027
73.5391153126548
73.4985511730942
73.5268477421733
73.6294111473095
73.8121371811497
74.0815070647108
74.4383897352104
74.8693817049916
75.3587617000709
75.8902258921261
76.4466487422969
77.0099112110778
77.5608061295737
78.0790334295837
78.5432992864049
78.9315325296052
79.2212283813413
79.3899282300796
79.4237051536477
79.333700485737
79.1366485521584
78.849921069328
78.4911080470439
78.0776711920643
77.6266760241029
77.1546033261961
76.6772364263651
76.2096181891711
75.7660703657192
75.3602679031165
75.0052803220281
74.7081617443421
74.4667347620258
74.2782543059912
74.140246012745
74.0504742611535
74.0069140906843
74.0077263846029
74.0512358019681
74.1359110239571
74.2603469468304
74.4232485086892
74.6234158824181
74.8596065426428
75.1272936686435
75.4182331121624
75.7237812361412
76.0350281059525
76.3427706136129
76.6375069556678
76.9094543244297
77.1485916348586
77.3447288109773
77.4876035650335
77.5670057006262
77.5729303471479
77.4998396473299
77.3550273952033
77.1484189940501
76.8900679818074
76.5900130801356
76.2581613044063
75.9041977970789
75.5375219400401
75.1672084933873
74.8019919924535
74.4502723868862
74.1201398906481
73.8194162930779
73.5542996297469
73.3266315295387
73.137505893028
72.988101400798
72.8796959867769
72.8136824955937
72.7915857759414
72.8150815028978
72.8860170717764
73.0064349664882
73.1785990792693
73.4050245493569
73.688511287224
74.0296422397209
74.4207350969001
74.852176182046
75.3140110038143
75.7958398955588
76.2867386000559
76.7752069924505
77.249150002233
77.6958953352706
78.1022527098792
78.4546188932234
78.739131745266
78.9441030109826
79.0711215172084
79.1270125703514
79.1190614308053
79.0548817429857
78.9423003956218
78.7892550890945
78.6037065131116
78.3935662690424
78.1666410077433
77.9305927187257
77.692914710104
77.4607925274974
77.2382682916025
77.0263375883327
76.8258517279504
76.637651274954
76.4625689221586
76.3014325240719
76.1550682936719
76.0243041696246
75.909973364078
75.8129181044615
75.7339935862608
75.67407215757
75.6337406233637
75.6114329869035
75.6046710568278
75.6109959845122
75.6279627322
75.6531323911747
75.6840660921055
75.7183204898999
75.7534448197959
75.786979531546
75.8164565144137
75.839400927274
75.8533343356309
75.855655828437
75.8434594301896
75.8138088511954
75.7637986165868
75.6905685881596
75.5913204905724
75.463336259248
75.3039979752838
75.1108090983906
74.8814166543804
74.6136339814341
74.305463591897
73.9551358422179
73.5651154591611
73.1470741799588
72.7135514629223
72.2765596120964
71.8475603964557
71.4374799693043
71.05675763192
70.7154244913914
70.4232089387989
70.1896670445966
70.0243373916022
69.9369215411751
69.9374933007092
70.0362776303313
70.2318824432876
70.5100093177573
70.855839825652
71.2543787358313
71.6901832617635
72.1471527933665
72.6083834459262
73.0560952217446
73.4716418933026
73.8356145762761
74.1280489720816
74.3287430226584
74.418602808661
74.3952255209834
74.2707545966955
74.0584913657614
73.7721344944547
73.4254911896873
73.0322371582749
72.6057287169358
72.1588671877549
71.704013272949
71.252947499436
70.8168719947612
70.406448691944
70.031869436214
69.7015700710345
69.4149479848455
69.1680800896648
68.9572679299226
68.7790074806178
68.6299552882084
68.5068991202222
68.4067325624772
68.3264331225992
68.2630434967462
68.2136557371063
68.1753981238459
68.1454245989353
68.1209066622529
68.0994364042339
68.0821689708219
68.0720887185814
68.0721951407081
68.0854953821056
68.1150145733051
68.1638088938877
68.2349814681848
68.3317012512689
68.4572251311188
68.6149235553444
68.808310090795
69.0410754456142
69.3171266310746
69.6389265252129
70.0000322987609
70.3907912528205
70.8011751837273
71.2207041029592
71.6383961150689
72.0427489076782
72.4217569563614
72.7629686401689
73.0535870269257
73.2806170221985
73.4310598090527
73.4921530177213
73.453873736265
73.3212362594289
73.1055436125055
72.8184779804514
72.4718496619928
72.0773954439153
71.6466153752515
71.1906486475079
70.7201874030537
70.2454259564352
69.7760420987223
69.3212068028531
68.8896186802211
68.4895598743178
68.1280694567638
67.8056296625982
67.5200817717969
67.2694251861493
67.0518093726699
66.8655167825976
66.7089476325136
66.5806062886734
66.4790890350358
66.4030730383775
66.3513063514929
66.322598818774
66.3158137682116
66.3298603906898
66.3636927994709
66.4166367753892
66.4885599769773
66.5794037003218
66.6891401198057
66.8177719027499
66.9653319496899
67.131883257288
67.3175189018274
67.5223621421495
67.746566641792
67.9903168109655
68.2538282698933
68.5373484359325
68.8411046230616
69.1629498428952
69.4973034477773
69.8381236262672
70.179129336639
70.5137914010428
70.8353353462513
71.1367571783447
71.410853224073
71.6502650012168
71.8475397790109
71.9952070475365
72.0858705301219
72.1123152209579
72.0704007441327
71.9655600430791
71.8054067997149
71.5977044731985
71.3502585180592
71.0708249017238
70.7670357905474
70.4463425330015
70.1159754854293
69.7829198050025
69.4539060696791
69.1354144617149
68.8336912511326
68.5547762181359
68.3035617161785
68.0816160033279
67.8898617188239
67.7292690336946
67.6008658233295
67.5057484993657
67.4450936410047
67.4201705875176
67.4323551793334
67.4831448657058
67.5741754336779
67.7072396573831
67.8843082204443
68.1075533296814
68.3780895739348
68.6915401181919
69.0419318842843
69.4231485490777
69.8288642596212
70.252487037052
70.6871127482892
71.1254909118452
71.5600039664594
71.982661906474
72.3851143489323
72.7586821114396
73.0944102110055
73.3840493277361
73.6251375565361
73.8176942397144
73.9619545228502
74.0583582194997
74.1075423490798
74.1103318139804
74.0677284172696
73.9808984459365
73.8511590614444
73.6799637493637
73.4688870831288
73.2196090539203
72.9342301950386
72.6180874100637
72.2782039592138
71.9214378125728
71.5544266468453
71.1835661460095
70.8150006056912
70.4546247281257
70.108095487111
69.7808530118974
69.4781495710168
69.2050859193214
68.9666544946944
68.7677892093409
68.612937699557
68.5024141139793
68.4345339682262
68.407768475175
68.4207445591356
68.4722288773668
68.5611135609943
68.6864034184255
68.847204380875
69.0427129997848
69.2722068309198
69.5350355606458
69.8306127471252
70.1584077844359
70.5165549146286
70.8985261724269
71.2965690871068
71.7025904087866
72.1081233766335
72.5043136201643
72.8819260375727
73.2313750798396
73.5427807181898
73.8060519396111
74.0109988624045
74.1474734697101
74.2055432871494
74.1798486636023
74.0770789769353
73.9063176749769
73.6768965314731
73.3982408391937
73.0797370234712
72.7306243942818
72.3599114989226
71.9763165364846
71.5882305654855
71.2037017691292
70.830438814516
70.475831319803
70.1469293622032
69.8490589546157
69.5858130723004
69.3606735719333
69.1771335255382
69.0387404490785
68.9491435395249
68.912145619525
68.9317607294995
69.0122785929081
69.1583375278638
69.3750078090544
69.6678880273968
70.0432176908772
70.5062846901738
71.0494382379099
71.6583862925177
72.318072141421
73.012428871675
73.724153011277
74.4345463690755
75.1234419877391
75.7692331582605
76.3490255835323
76.8389312139799
77.2145171857138
77.4517596924209
77.5431497258167
77.5044801134392
77.3544979606394
77.1127360428594
76.7990111220465
76.433016109335
76.0340141131699
75.6206348991883
75.2107689576081
74.8215512608195
74.4694257017964
74.1702818265322
73.9393789372161
73.7814979798596
73.6884798461593
73.6517478219624
73.66304299697
73.7143075610041
73.7975882463612
73.9049581030102
74.0284556109819
74.1600407711056
74.2915682919126
74.414778314261
74.5213052837105
74.6031028948502
74.6600319018209
74.6993251985669
74.7285536653493
74.7553257920222
74.7872749654083
74.8320622840641
74.8973950569315
74.9910612346775
75.1209802528122
75.2952711414789
75.5223392927506
75.8109839978501
76.1682971332303
76.5887682494292
77.0620894374096
77.5776171470316
78.1242324740063
78.6902216926
79.2631867928076
79.8299907451709
80.3767432992779
80.8888337540593
81.3510171637965
81.7475686407044
82.069022669079
82.3242283194447
82.525773093655
82.6867585572601
82.8206508028402
82.9411707869969
83.062227980536
83.1978995908938
83.3624570244395
83.5704413115606
83.8367899680283
84.175617301259
84.586528015691
85.0600144385411
85.5862521649192
86.1550833661789
86.7558896332593
87.3774864556114
88.0080420925805
88.6350246864905
89.2451823353059
89.8245614035088
90.3616790559748
90.857233192088
91.3153006054378
91.7402678104154
92.1367978940183
92.5098002322007
92.8644039787135
93.2059361322606
93.5399048938586
93.8719889478293
94.2075169747245
94.5478881635227
94.8925994831009
95.2411210617704
95.5929068085903
95.9473938329852
96.3040019200077
96.6621330664564
97.0211710833928
97.3804812727917
97.7394782674468
98.0978096074012
98.4551704012694
98.8112476838736
99.1657204180021
99.5182595180053
99.8685278965227
100.216180535644
100.560864583801
100.902080752367
101.236532910248
101.558257715979
101.861053636137
102.138593592915
102.384451011909
102.592134190153
102.75512909302
102.866950486666
102.921230947238
102.916804883438
102.863380925061
102.772144805998
102.654305689271
102.521026397193
102.38337811637
102.252319356707
102.138698643378
102.053276571386
102.000814751266
101.968075548307
101.938495104707
101.89555593913
101.822803391987
101.703915212643
101.522823151727
101.263884144213
100.912096753195
100.45655418314
99.9026497231572
99.2607605603853
98.5413480450983
97.7548022106606
96.9113087920605
96.02073867907
95.0925596955292
94.1357697925314
93.1588618828244
92.1717237977276
91.1875410942458
90.2189396512127
89.2774933493451
88.3738073855263
87.5176244395521
86.7179482732725
85.9831806839139
85.3212690883243
84.7398633499421
84.2464817731416
83.8466938406851
83.5323065931013
83.2898167570475
83.1063945337525
82.9697086562114
82.8677701656173
82.788814803266
82.7212209290617
82.6534611084865
82.5740862960664
82.4717419262675
82.3352244363617
82.1572290224663
81.9399349324175
81.6870274224852
81.402210698151
81.0891792337628
80.7515924403873
80.3930527801156
80.0170873384037
79.6271327926377
79.2265236554775
78.8184836254728
78.4061198442735
77.9920511574098
77.5768560135983
77.1604586788155
76.7427890332788
76.323782903812
75.9033819828064
75.4815337459597
75.0581913685019
74.6333136396472
74.2068648750346
73.7788148269479
73.3491385921292
72.9178165170264
72.4853124910649
72.0566458618392
71.6391371498909
71.2397987304836
70.865339793658
70.5222122930349
70.2166676679004
69.9548235545506
69.7427401874034
69.5865067337347
69.4923384171116
69.4666859838823
69.5163598878306
69.6486725602673
69.8690005370695
70.1708116401429
70.5440561983642
70.9786789599861
71.4644131737791
71.9906000702729
72.5460346692317
73.1188402370895
73.6963756399838
74.2651814722743
74.8109720781289
75.3186812592488
75.7726198360526
76.1627717302188
76.491154636727
76.7616198777145
76.9784418036569
77.1462528345973
77.2699797567816
77.354783047088
77.4060007287144
77.429097976344
77.4296234063643
77.413172723504
77.3853601618659
77.3513610369188
77.3135291645073
77.2730998764161
77.2313013319327
77.1893566717697
77.1484837848679
77.1098954611099
77.074799925727
77.0444017516421
77.0199031469531
77.0025056162104
76.9934119960795
76.9938342859969
77.0052365018565
77.02943383139
77.0682827837949
77.1236627094913
77.1974833734601
77.2916935592022
77.4082907788317
77.5493321850267
77.7169468041611
77.9133492375458
78.1408550101321
78.4018950726675
78.6970569707356
79.0215022783921
79.3693356251028
79.7344860063725
80.1106724486494
80.4913785974168
80.8698370949338
81.2390247697206
81.5916697499684
81.9202716237251
82.2171356848218
82.4745645473614
82.6886148474164
82.859578013127
82.9881053085251
83.0749937977742
83.1211773454554
83.1277167562886
83.0957892174978
83.0266772094878
82.9217570493519
82.7824872272632
82.6103966883976
82.4071254842766
82.1746943990744
81.915282207815
81.6310777964904
81.3242671317271
80.9970217123592
80.6514882109782
80.2897793237592
79.9139658260288
79.5260698129732
79.1280590896543
78.7218426620865
78.3091741026051
77.8904948026052
77.4653459098526
77.0332799835524
76.5938817501234
76.1467685177665
75.6915905751944
75.2280315631647
74.7558088078983
74.2746736059762
73.7844114508878
73.2848421920593
72.7758201179211
72.2573030996127
71.7323658344221
71.2081505728535
70.691704852991
70.1896725445555
69.7083221406636
69.2535856928784
68.8311068172828
68.4462965614227
68.1043963199172
67.8105474118112
67.5698673842289
67.3875335908955
67.2688751246712
67.2194728143247
67.242154836337
67.3307392416823
67.4775998187825
67.6753035262074
67.9164863004741
68.1937458933055
68.49955044358
68.8261624214082
69.1655783717974
69.5094855461446
69.8492370365834
70.1758474013258
70.480010956863
70.752341947964
70.9878149684151
71.1859813421773
71.3467135104042
71.470009251225
71.5559904272062
71.6049007310849
71.6171024736049
71.5930724708576
71.5333971006015
71.4387666073775
71.3099687446631
71.1478818487
70.9534674429368
70.7282393382979
70.475845068346
70.2004748284549
69.9062515830262
69.5972083452135
69.2772705322501
68.9502431639666
68.619802619454
68.2894926225826
67.9627241048614
67.6427785910765
67.3328147663648
67.0358779100574
66.7549119192437
66.4926425563696
66.2494594188883
66.0238487795715
65.8142987755293
65.6193540594584
65.4376091231477
65.2677023994427
65.1083110737792
64.9581465470738
64.8159505007974
64.6804915226884
64.5505622579604
64.4249770561783
64.3025700883314
64.1821939121205
64.06271846618
63.9430304759383
63.8220332551375
63.6986468877369
63.5718087750536
63.4404745325984
63.3036192201761
63.160238887494
