Value(μV)
-234.420288085938
-224.024932861328
-210.196228027344
-200.9453125
-195.699935913086
-170.522171020508
-140.003662109375
-120.357368469238
-99.5666351318359
-76.9638671875
-61.2277565002441
-52.0722045898438
-47.3990592956543
-42.630542755127
-35.5731353759766
-34.2379531860352
-40.0555419921875
-33.3796195983887
-12.7796258926392
-2.8611102104187
-2.09814739227295
1.9074068069458
7.24814605712891
11.5398111343384
14.0194396972656
24.0333251953125
31.1861019134521
27.2759170532227
37.9573936462402
61.4184989929199
70.6694183349609
70.2879409790039
76.7731246948242
86.7870101928711
96.8962631225586
105.670333862305
112.346260070801
121.597183227539
127.700881958008
128.177734375
133.041625976563
139.431442260742
142.864776611328
148.491622924805
140.575881958008
127.510147094727
132.755508422852
130.561996459961
123.790702819824
117.973114013672
109.866630554199
116.828666687012
118.068481445313
117.973114013672
127.986999511719
118.068481445313
101.283302307129
98.5175628662109
101.569412231445
109.199035644531
118.831443786621
126.842552185059
140.003662109375
143.341613769531
133.232360839844
143.055511474609
152.974029541016
143.055511474609
135.616622924805
131.611068725586
132.850875854492
129.894409179688
119.59440612793
114.444404602051
107.387001037598
106.433296203613
109.96199798584
100.329597473145
91.8416366577148
88.4083023071289
84.0212707519531
86.1194152832031
94.2258987426758
107.86385345459
123.218475341797
131.611068725586
137.714767456055
152.211059570313
163.560134887695
158.791610717773
145.725875854492
141.052734375
146.393478393555
153.355499267578
166.039764404297
176.435134887695
177.865676879883
178.247161865234
172.048095703125
164.036987304688
161.748092651367
153.83235168457
139.812911987305
130.085144042969
121.978668212891
116.828666687012
122.360145568848
119.403663635254
96.13330078125
77.6314544677734
75.9147872924805
71.2416458129883
54.0749816894531
43.0120239257813
40.5323944091797
34.4286918640137
34.3333206176758
36.431468963623
27.0851764678955
11.9212923049927
-12.6842555999756
-38.3388748168945
-44.3472061157227
-38.5296173095703
-30.2323970794678
-20.3138828277588
-16.4990692138672
-24.2240657806396
-36.7175827026367
-51.404613494873
-68.3805313110352
-76.296272277832
-72.9583129882813
-76.3916397094727
-90.9833068847656
-93.1768188476563
-88.0268249511719
-92.0323791503906
-92.318489074707
-96.0379333496094
-109.580520629883
-120.071258544922
-132.660140991211
-135.521255493164
-125.221252441406
-124.744407653809
-129.512924194336
-129.989776611328
-123.695327758789
-117.59162902832
-121.883293151855
-131.611068725586
-138.000885009766
-136.76106262207
-140.861999511719
-148.300872802734
-142.387924194336
-142.006439208984
-151.448104858398
-148.396255493164
-133.518478393555
-119.785148620605
-116.161071777344
-116.065704345703
-115.016632080078
-121.120330810547
-123.409217834473
-113.20458984375
-107.005523681641
-108.054595947266
-109.389778137207
-107.577743530273
-102.61848449707
-104.907371520996
-113.776817321777
-117.400886535645
-109.866630554199
-99.0897827148438
-93.5583038330078
-80.4925689697266
-57.0314636230469
-40.2462844848633
-37.1944313049316
-35.1916542053223
-25.2731399536133
-24.7962875366211
-37.0036926269531
-40.1509132385254
-34.7148017883301
-38.148136138916
-48.2573928833008
-48.5435028076172
-43.2981338500977
-42.3444290161133
-41.1046180725098
-37.7666549682617
-34.9055442810059
-34.3333206176758
-39.6740608215332
-40.8185043334961
-29.9462871551514
-25.2731399536133
-31.2814712524414
-32.7120246887207
-31.9490642547607
-27.8481388092041
-25.7499923706055
-31.0907306671143
-29.4694347381592
-27.3712882995605
-30.6138782501221
-34.6194343566895
-33.6657295227051
-17.4527721405029
-0.858333051204681
-0.381481349468231
-8.3925895690918
-20.2185115814209
-21.5536975860596
-8.96481227874756
-14.4009208679199
-24.891658782959
-18.3111057281494
-20.7907333374023
-24.891658782959
-13.9240694046021
-14.7824029922485
-34.0472106933594
-37.1944313049316
-19.5509204864502
-8.58333015441895
-4.57777643203735
-4.29166507720947
-6.29444265365601
-9.537034034729
-16.4036979675293
-13.5425882339478
-9.537034034729
-13.4472179412842
-2.5749990940094
17.8342533111572
26.5129547119141
33.3796195983887
43.8703575134277
40.4370231628418
26.6083240509033
34.4286918640137
51.5953521728516
48.4481315612793
40.4370231628418
40.0555419921875
42.4398002624512
41.962947845459
27.4666576385498
11.635181427002
16.1175880432129
26.5129547119141
20.9814739227295
15.35462474823
32.9027671813965
47.1129493713379
38.4342460632324
35.5731353759766
37.3851737976074
39.7694320678711
51.7860946655273
50.5462799072266
41.7722091674805
45.0148010253906
43.4888763427734
30.4231376647949
30.8999900817871
44.0610961914063
46.1592445373535
49.9740562438965
56.3638725280762
46.6360969543457
42.8212814331055
56.4592399597168
60.8462753295898
48.2573928833008
41.4860992431641
46.3499870300293
43.8703575134277
32.1398048400879
29.3740653991699
40.0555419921875
48.9249839782715
50.832389831543
43.1073951721191
30.8999900817871
30.0416564941406
37.6712837219238
45.6823921203613
49.4972076416016
43.7749862670898
36.8129501342773
39.2925796508789
42.1536903381348
37.5759124755859
29.278694152832
17.4527721405029
13.3518476486206
20.3138828277588
24.5101776123047
24.1286964416504
26.4175834655762
29.4694347381592
22.0305480957031
7.6296272277832
-2.09814739227295
-13.5425882339478
-27.4666576385498
-32.7120246887207
-21.1722145080566
4.38703584671021
18.5972156524658
18.4064750671387
19.1694374084473
13.6379585266113
5.05462789535522
-2.5749990940094
-10.5861072540283
-12.0166625976563
-8.3925895690918
-4.7685170173645
-4.67314672470093
0
20.5999927520752
38.4342460632324
37.099063873291
30.70924949646
27.1805477142334
34.2379531860352
48.6388740539551
44.8240585327148
29.1833248138428
26.5129547119141
33.4749908447266
37.9573936462402
38.7203598022461
34.9055442810059
29.3740653991699
29.8509159088135
32.2351760864258
26.8944358825684
15.9268465042114
10.204626083374
9.82314491271973
4.10092449188232
5.91296100616455
15.2592544555664
10.204626083374
6.96203470230103
11.1583299636841
6.96203470230103
7.24814605712891
16.6898097991943
26.0361022949219
31.0907306671143
27.7527694702148
23.2703628540039
19.360179901123
11.5398111343384
8.29721927642822
13.3518476486206
16.8805503845215
10.8722190856934
8.58333015441895
18.5972156524658
19.4555492401123
14.5916624069214
22.7935104370117
32.7120246887207
35.2870254516602
32.5212860107422
27.3712882995605
20.9814739227295
14.9731435775757
6.1037015914917
-0.667592406272888
-2.5749990940094
-8.48795986175537
-13.256477355957
-17.2620315551758
-20.2185115814209
-17.738883972168
-25.2731399536133
-36.3360977172852
-39.4833221435547
-51.3092422485352
-48.4481315612793
-18.8833274841309
-2.00277709960938
-2.95648050308228
-12.2074031829834
-37.2898025512695
-51.1185035705566
-48.4481315612793
-26.8944358825684
78.2990493774414
269.516571044922
457.205413818359
595.492431640625
709.173828125
813.890502929688
885.132141113281
938.730224609375
957.804321289063
860.335815429688
677.892395019531
488.296142578125
294.598968505859
93.0814514160156
-83.2583084106445
-202.757339477539
-281.819366455078
-345.812866210938
-407.708190917969
-464.644287109375
-487.342437744141
-492.587799072266
-510.517425537109
-533.310913085938
-568.597961425781
-604.36181640625
-612.754455566406
-604.36181640625
-585.859985351563
-555.627624511719
-519.863708496094
-480.66650390625
-449.385040283203
-433.744293212891
-428.403564453125
-431.360046386719
-437.84521484375
-419.820220947266
-374.614685058594
-335.989715576172
-311.956390380859
-291.261016845703
-261.410095214844
-227.649002075195
-212.294372558594
-206.190673828125
-197.416610717773
-185.304565429688
-169.091613769531
-150.780502319336
-128.559219360352
-101.37866973877
-70.4786834716797
-51.7860946655273
-50.832389831543
-50.9277610778809
-49.5925750732422
-51.2138710021973
-41.3907279968262
-12.6842555999756
6.1037015914917
18.0249938964844
32.5212860107422
30.1370277404785
25.177770614624
24.891658782959
19.9324016571045
25.7499923706055
38.4342460632324
43.7749862670898
45.9685020446777
49.0203552246094
53.6935005187988
61.7999801635742
72.6721954345703
82.9721984863281
93.5583038330078
108.149963378906
122.455513000488
120.929588317871
115.684219360352
132.56477355957
146.965698242188
136.474960327148
136.284210205078
147.061065673828
138.382369995117
139.717544555664
152.115692138672
147.53791809082
141.815689086914
124.649032592773
99.7573776245117
94.416633605957
100.52033996582
112.155517578125
119.68977355957
118.640701293945
116.065704345703
111.583297729492
104.907371520996
90.7925643920898
79.8249740600586
82.0184936523438
82.9721984863281
79.9203414916992
88.5990447998047
101.855522155762
101.37866973877
90.4110794067383
75.3425674438477
63.2305335998535
62.5629425048828
62.4675712585449
56.1731300354004
59.7972030639648
70.4786834716797
72.9583129882813
79.5388641357422
87.8360824584961
101.474044799805
120.262001037598
118.831443786621
113.586074829102
114.34903717041
113.586074829102
122.455513000488
131.801803588867
141.529586791992
142.960144042969
124.744407653809
118.44995880127
125.888847351074
124.553665161133
123.790702819824
132.183288574219
150.971252441406
169.663833618164
164.51383972168
152.020324707031
154.976806640625
156.407363891602
156.02587890625
162.606430053711
164.036987304688
156.121246337891
158.314758300781
163.083282470703
149.159210205078
138.477737426758
133.327728271484
121.215698242188
108.817558288574
98.9944152832031
94.2258987426758
88.8851547241211
74.1027526855469
63.9934997558594
72.8629379272461
77.4407196044922
66.9499816894531
55.887020111084
44.6333198547363
32.9981384277344
22.5074005126953
16.8805503845215
8.10647869110107
1.62129580974579
10.8722190856934
8.20184898376465
-5.7222204208374
-8.77407169342041
-10.0138854980469
-21.4583263397217
-45.3962821960449
-61.99072265625
-64.1842422485352
-72.0046081542969
-87.2638626098633
-97.7546005249023
-96.2286758422852
-92.0323791503906
-94.6073760986328
-95.6564483642578
-96.800895690918
-95.6564483642578
-92.0323791503906
-98.2314529418945
-107.387001037598
-108.912925720215
-100.997192382813
-94.9888610839844
-94.2258987426758
-89.2666397094727
-95.3703384399414
-101.187927246094
-89.4573822021484
-84.8796005249023
-87.5499725341797
-86.6916351318359
-93.9397811889648
-104.812004089355
-112.537002563477
-126.07958984375
-146.774948120117
-160.794387817383
-156.884216308594
-142.483291625977
-127.605514526367
-122.550888061523
-124.93514251709
-117.49626159668
-110.248115539551
-106.910148620605
-95.9425582885742
-89.0758972167969
-92.7953414916992
-92.5092315673828
-86.8823776245117
-88.2175674438477
-92.986083984375
-97.2777481079102
-96.4194107055664
-96.5147857666016
-98.899040222168
-87.9314498901367
-87.7407150268555
-98.7083053588867
-96.6101531982422
-99.7573776245117
-100.997192382813
-78.2990493774414
-55.4101676940918
-46.2546157836914
-49.783317565918
-62.2768325805664
-55.887020111084
-31.3768424987793
-23.4611034393311
-29.0879535675049
-28.1342506408691
-31.0907306671143
-42.2490615844727
-49.8786888122559
-51.4999847412109
-37.7666549682617
-30.4231376647949
-42.5351715087891
-48.734245300293
-50.2601699829102
-39.2925796508789
-20.2185115814209
-20.5046234130859
-27.2759170532227
-26.226842880249
-23.1749935150146
-21.4583263397217
-30.0416564941406
-34.9055442810059
-29.5648059844971
-37.7666549682617
-46.2546157836914
-48.066650390625
-53.8842430114746
-52.8351669311523
-46.3499870300293
-32.6166572570801
-17.0712909698486
-20.0277709960938
-32.9981384277344
-36.6222114562988
-32.8073959350586
-33.6657295227051
-28.1342506408691
-14.4009208679199
-8.96481227874756
-1.62129580974579
1.62129580974579
-1.52592539787292
3.147221326828
3.43333220481873
5.05462789535522
13.3518476486206
12.7796258926392
17.1666603088379
30.0416564941406
27.5620288848877
22.4120292663574
31.5675830841064
36.2407302856445
31.8536930084229
28.6111011505127
27.2759170532227
29.278694152832
33.1888771057129
33.5703582763672
28.4203605651855
31.4722118377686
42.1536903381348
36.5268402099609
23.1749935150146
27.657398223877
33.9518394470215
21.3629570007324
11.2537002563477
10.1092557907104
8.20184898376465
7.6296272277832
3.91018390655518
1.43055510520935
10.3953666687012
24.9870281219482
30.4231376647949
31.4722118377686
34.2379531860352
36.7175827026367
44.4425773620605
53.6935005187988
48.734245300293
35.8592491149902
38.8157272338867
55.3147964477539
57.1268348693848
50.2601699829102
48.8296127319336
44.5379486083984
43.3935050964355
41.5814666748047
41.1046180725098
46.8268356323242
47.4944305419922
44.1564674377441
32.1398048400879
18.1203651428223
23.1749935150146
29.8509159088135
18.6925868988037
13.6379585266113
19.074068069458
16.30832862854
20.5999927520752
27.943510055542
20.9814739227295
17.9296245574951
26.5129547119141
35.7638778686523
45.4916534423828
50.832389831543
47.4944305419922
50.4509086608887
58.0805358886719
54.9333152770996
50.4509086608887
51.404613494873
47.5897979736328
41.962947845459
44.1564674377441
51.1185035705566
53.2166481018066
52.8351669311523
52.1675758361816
40.5323944091797
23.7472152709961
8.67870044708252
1.04907369613647
6.77129411697388
8.29721927642822
1.9074068069458
11.4444408416748
26.9898052215576
29.3740653991699
24.5101776123047
12.302773475647
4.67314672470093
6.58055353164673
9.63240432739258
18.9786968231201
22.2212886810303
21.3629570007324
31.4722118377686
38.0527648925781
36.2407302856445
34.0472106933594
23.6518440246582
15.0685138702393
26.4175834655762
30.995361328125
21.1722145080566
20.7907333374023
28.0388793945313
27.943510055542
15.7361059188843
17.5481433868408
30.0416564941406
25.177770614624
20.8861045837402
18.0249938964844
8.3925895690918
7.91573810577393
7.0574049949646
3.71944332122803
4.10092449188232
4.86388731002808
6.19907188415527
4.95925760269165
7.24814605712891
9.34629344940186
-2.5749990940094
-17.738883972168
-24.9870281219482
-29.6601753234863
-32.9027671813965
-29.8509159088135
-15.9268465042114
-3.71944332122803
-4.48240613937378
3.5287024974823
18.0249938964844
13.8286991119385
6.29444265365601
6.96203470230103
4.00555419921875
-1.33518481254578
-7.24814605712891
-13.8286991119385
-20.9814739227295
-27.2759170532227
-27.4666576385498
-28.3249912261963
-28.0388793945313
-18.2157344818115
-14.1148099899292
-14.2101802825928
-9.72777462005615
-6.38981294631958
5.1499981880188
16.9759197235107
12.6842555999756
5.62685012817383
6.1037015914917
2.67036962509155
-13.4472179412842
-25.0823993682861
-26.7990646362305
-28.3249912261963
-16.30832862854
-2.00277709960938
-6.6759238243103
-15.9268465042114
-13.7333288192749
-11.3490705490112
-26.1314735412598
-43.2027626037598
-45.7777633666992
-41.1999855041504
-36.6222114562988
-33.8564720153809
-30.0416564941406
-19.6462898254395
-13.6379585266113
-15.7361059188843
-7.43888664245605
2.1935179233551
6.19907188415527
19.074068069458
21.0768451690674
0.9537034034729
-15.35462474823
-25.3685111999512
-39.864803314209
-45.5870208740234
-28.2296199798584
-6.38981294631958
-5.62685012817383
-12.8749961853027
-16.022216796875
-24.6055469512939
-39.6740608215332
-26.7036952972412
82.5907135009766
270.565643310547
439.371154785156
564.4970703125
683.99609375
792.336791992188
867.488586425781
935.106201171875
960.188598632813
867.774719238281
702.784057617188
517.097961425781
301.942504882813
95.751823425293
-62.8490524291992
-191.122161865234
-291.547119140625
-363.360992431641
-431.264678955078
-481.524841308594
-502.792419433594
-518.051696777344
-533.883178710938
-559.251647949219
-596.159973144531
-618.762756347656
-619.811828613281
-620.193298339844
-611.5146484375
-577.753540039063
-540.177612304688
-503.364654541016
-468.840576171875
-448.717437744141
-430.978576660156
-415.147094726563
-406.849884033203
-389.110992431641
-353.442474365234
-312.433227539063
-279.435089111328
-251.586959838867
-224.692520141602
-207.049011230469
-202.566604614258
-202.280487060547
-200.9453125
-195.127716064453
-179.105499267578
-155.930511474609
-124.553665161133
-93.0814514160156
-76.4870147705078
-62.2768325805664
-41.4860992431641
-31.4722118377686
-33.3796195983887
-23.6518440246582
-7.24814605712891
-8.10647869110107
-7.82036781311035
7.72499752044678
15.4499950408936
10.204626083374
12.3981437683105
27.1805477142334
40.7231369018555
43.4888763427734
43.9657249450684
54.8379440307617
70.3833084106445
83.5444183349609
93.0814514160156
95.084228515625
100.806449890137
111.201812744141
115.779594421387
131.420333862305
147.251800537109
146.298095703125
153.450881958008
160.889770507813
160.508285522461
159.363830566406
145.725875854492
135.998107910156
144.009216308594
154.595321655273
147.34716796875
129.512924194336
139.049957275391
163.464767456055
161.080505371094
152.497177124023
165.658279418945
174.146240234375
166.421249389648
167.947174072266
172.334197998047
161.366607666016
145.43977355957
134.758285522461
137.047180175781
142.674026489258
135.807357788086
134.853652954102
148.491622924805
149.826797485352
139.431442260742
129.512924194336
116.161071777344
98.4221878051758
83.6397857666016
82.2092361450195
88.5036773681641
95.8471908569336
102.61848449707
114.34903717041
128.559219360352
136.093475341797
141.815689086914
139.908294677734
129.608291625977
122.264778137207
122.074035644531
123.409217834473
119.212921142578
117.59162902832
117.305519104004
116.637924194336
126.556442260742
133.995330810547
130.27587890625
132.087921142578
142.101806640625
149.254577636719
165.086059570313
184.732345581055
180.345306396484
177.674942016602
185.304565429688
170.712905883789
150.875885009766
148.110137939453
147.061065673828
134.472183227539
123.218475341797
124.553665161133
123.790702819824
112.060150146484
98.8036727905273
86.6916351318359
81.827751159668
82.5907135009766
72.9583129882813
63.2305335998535
67.8083114624023
71.7184982299805
70.1925735473633
64.8518295288086
48.2573928833008
25.8453617095947
10.204626083374
5.81759071350098
4.7685170173645
-6.77129411697388
-23.8425846099854
-28.9925842285156
-30.8999900817871
-50.2601699829102
-61.7999801635742
-46.6360969543457
-40.1509132385254
-47.8759117126465
-53.5981292724609
-65.6147918701172
-72.7675704956055
-76.6777496337891
-90.6971969604492
-95.9425582885742
-98.6129302978516
-110.724967956543
-115.016632080078
-114.34903717041
-118.545333862305
-118.068481445313
-110.248115539551
-108.436073303223
-113.586074829102
-116.733299255371
-115.302742004395
-112.727745056152
-110.152740478516
-100.329597473145
-97.6592254638672
-110.724967956543
-116.637924194336
-116.35181427002
-120.83422088623
-119.308296203613
-110.248115539551
-105.479598999023
-101.283302307129
-94.416633605957
-103.381446838379
-118.640701293945
-116.924034118652
-105.86107635498
-100.329597473145
-101.474044799805
-104.239784240723
-109.580520629883
-120.83422088623
-123.9814453125
-119.403663635254
-118.44995880127
-111.201812744141
-105.002746582031
-110.820335388184
-112.537002563477
-102.999969482422
-97.9453353881836
-100.52033996582
-106.051818847656
-117.210144042969
-123.9814453125
-114.730522155762
-97.0870056152344
-82.4953460693359
-84.8796005249023
-97.4684906005859
-91.1740417480469
-74.9610900878906
-63.2305335998535
-53.2166481018066
-48.9249839782715
-52.453685760498
-64.5657196044922
-70.0018310546875
-65.0425720214844
-61.7999801635742
-60.8462753295898
-67.3314590454102
-69.8110885620117
-60.3694267272949
-59.8925743103027
-66.6638641357422
-59.8925743103027
-50.7370223999023
-53.5027618408203
-48.2573928833008
-34.7148017883301
-36.431468963623
-44.7286911010742
-41.1046180725098
-36.5268402099609
-37.2898025512695
-30.6138782501221
-17.5481433868408
-14.1148099899292
-18.5972156524658
-25.5592517852783
-38.2435073852539
-46.6360969543457
-40.8185043334961
-30.70924949646
-34.5240631103516
-47.1129493713379
-51.1185035705566
-49.783317565918
-43.7749862670898
-36.9083213806152
-32.9027671813965
-21.6490669250488
-20.0277709960938
-25.4638805389404
-15.5453653335571
-2.1935179233551
9.537034034729
11.5398111343384
5.81759071350098
19.4555492401123
31.4722118377686
20.1231422424316
14.3055505752563
12.302773475647
8.10647869110107
14.8777732849121
21.4583263397217
25.2731399536133
25.9407329559326
26.4175834655762
44.1564674377441
60.8462753295898
62.4675712585449
60.1786842346191
54.3610954284668
51.404613494873
51.3092422485352
39.864803314209
29.278694152832
22.7935104370117
16.6898097991943
19.360179901123
18.8833274841309
20.2185115814209
28.5157318115234
23.6518440246582
12.4935140609741
6.19907188415527
3.24259161949158
-3.05185079574585
-13.256477355957
-13.9240694046021
-9.72777462005615
-6.77129411697388
-4.1962947845459
3.5287024974823
18.5972156524658
23.7472152709961
21.4583263397217
17.1666603088379
10.9675893783569
11.5398111343384
18.3111057281494
33.4749908447266
46.6360969543457
47.5897979736328
51.9768333435059
60.9416465759277
53.8842430114746
43.5842437744141
53.6935005187988
63.3259048461914
66.0916442871094
81.0647888183594
86.0240478515625
74.4842376708984
69.3342361450195
65.7101669311523
57.6036834716797
49.1157264709473
47.4944305419922
47.017578125
38.8157272338867
33.2842483520508
35.0962867736816
41.2953567504883
48.8296127319336
56.0777587890625
57.9851684570313
55.9823913574219
55.9823913574219
52.9305381774902
47.1129493713379
46.6360969543457
52.3583183288574
53.5981292724609
46.7314682006836
53.9796104431152
71.0509033203125
75.7240524291992
78.2990493774414
83.7351608276367
81.6370086669922
74.8657150268555
66.6638641357422
51.5953521728516
27.3712882995605
12.7796258926392
25.5592517852783
28.9925842285156
15.5453653335571
22.3166599273682
30.0416564941406
26.0361022949219
25.177770614624
24.6055469512939
24.3194370269775
26.3222141265869
31.1861019134521
28.5157318115234
9.72777462005615
-7.6296272277832
-15.5453653335571
-19.4555492401123
-15.1638841629028
-10.1092557907104
-15.4499950408936
-20.3138828277588
-12.6842555999756
-3.62407302856445
-2.00277709960938
1.62129580974579
5.24536848068237
10.6814785003662
16.9759197235107
12.0166625976563
14.5916624069214
24.7962875366211
22.6027698516846
15.4499950408936
5.81759071350098
1.33518481254578
12.8749961853027
19.360179901123
14.4962921142578
23.4611034393311
29.9462871551514
17.6435127258301
9.25092315673828
15.6407356262207
26.4175834655762
30.2323970794678
31.1861019134521
32.6166572570801
25.8453617095947
20.2185115814209
26.7036952972412
33.9518394470215
34.3333206176758
24.6055469512939
13.9240694046021
22.5074005126953
31.0907306671143
18.5972156524658
11.5398111343384
15.7361059188843
15.1638841629028
11.2537002563477
8.86944198608398
13.1611070632935
13.0657367706299
4.38703584671021
3.8148136138916
13.9240694046021
19.5509204864502
12.9703664779663
5.05462789535522
-0.286111027002335
-6.96203470230103
-6.1037015914917
-0.762962698936462
-8.29721927642822
-22.6027698516846
-23.1749935150146
-24.7009181976318
-41.2953567504883
-42.9166526794434
-22.6027698516846
-15.2592544555664
-13.1611070632935
-6.38981294631958
-13.6379585266113
-13.1611070632935
-0.381481349468231
-8.29721927642822
-24.7009181976318
-22.3166599273682
-14.3055505752563
-20.0277709960938
-36.3360977172852
-42.1536903381348
-34.9055442810059
-37.1944313049316
-43.9657249450684
-45.4916534423828
-57.6990547180176
-66.854606628418
-66.1870193481445
-75.5333099365234
-80.2064590454102
-70.7647933959961
-59.4157218933105
-47.8759117126465
-49.6879463195801
-57.7944259643555
-49.8786888122559
-44.5379486083984
-56.3638725280762
-67.4268264770508
-66.1870193481445
-59.3203506469727
-49.8786888122559
-38.4342460632324
-32.9981384277344
-28.3249912261963
-20.0277709960938
-21.2675857543945
-32.4259147644043
-42.8212814331055
-39.1018409729004
-18.6925868988037
-8.58333015441895
-18.1203651428223
-28.9925842285156
-29.5648059844971
-27.4666576385498
-7.6296272277832
98.2314529418945
286.111022949219
464.739654541016
606.269226074219
715.46826171875
792.336791992188
856.902526855469
922.898803710938
949.411743164063
867.202514648438
703.642395019531
519.196105957031
304.040649414063
87.1684875488281
-76.4870147705078
-207.049011230469
-302.800842285156
-347.911010742188
-398.171173095703
-459.39892578125
-483.622985839844
-483.146148681641
-499.740570068359
-531.594299316406
-547.807250976563
-561.922058105469
-589.6748046875
-604.64794921875
-594.1572265625
-564.020202636719
-529.7822265625
-501.075775146484
-461.020233154297
-427.926727294922
-428.975799560547
-425.923950195313
-403.130432128906
-382.911926269531
-353.347106933594
-312.433227539063
-281.342498779297
-250.251770019531
-211.722152709961
-196.749008178711
-205.904556274414
-200.84992980957
-179.296234130859
-163.274017333984
-152.306427001953
-139.622177124023
-124.267555236816
-102.237007141113
-78.1083068847656
-62.9444236755371
-53.2166481018066
-44.1564674377441
-35.0962867736816
-27.943510055542
-24.6055469512939
-10.6814785003662
3.8148136138916
10.3953666687012
29.0879535675049
46.9222068786621
39.9601707458496
32.1398048400879
40.913875579834
42.8212814331055
37.2898025512695
39.4833221435547
52.0722045898438
66.854606628418
71.3370132446289
76.6777496337891
87.7407150268555
95.5610809326172
99.7573776245117
103.286079406738
104.62126159668
102.141632080078
100.901817321777
107.196258544922
121.787925720215
140.385147094727
149.254577636719
143.341613769531
136.474960327148
130.848098754883
122.93236541748
117.114776611328
116.44718170166
124.458290100098
132.946258544922
127.033294677734
118.73607635498
119.785148620605
118.73607635498
108.531448364258
98.4221878051758
96.7055282592773
99.2805252075195
97.3731155395508
91.7462692260742
95.2749710083008
106.624038696289
111.201812744141
108.054595947266
110.057373046875
122.550888061523
123.313850402832
104.716636657715
95.9425582885742
102.904594421387
102.999969482422
101.569412231445
106.814781188965
106.337928771973
107.387001037598
109.103668212891
105.479598999023
106.337928771973
102.332374572754
96.9916381835938
101.664779663086
103.953666687012
116.637924194336
149.159210205078
170.140686035156
178.342529296875
188.833267211914
192.743453979492
184.541610717773
177.865676879883
183.77864074707
185.495315551758
180.822158813477
185.87678527832
195.413833618164
206.381408691406
217.82585144043
227.267517089844
230.223999023438
218.970306396484
207.621231079102
199.419387817383
183.206420898438
172.620315551758
176.339752197266
185.97216796875
191.312896728516
183.969390869141
172.524948120117
162.797164916992
150.017547607422
135.616622924805
119.212921142578
108.245338439941
107.577743530273
104.907371520996
104.049041748047
91.5555267333984
56.0777587890625
38.4342460632324
33.6657295227051
11.635181427002
-5.05462789535522
-14.4009208679199
-27.1805477142334
-34.3333206176758
-41.1046180725098
-53.4073905944824
-56.1731300354004
-51.7860946655273
-50.832389831543
-47.7805404663086
-53.2166481018066
-74.3888626098633
-88.4083023071289
-89.7434921264648
-88.9805297851563
-91.6508941650391
-105.098114013672
-114.444404602051
-115.207366943359
-125.984222412109
-130.085144042969
-126.365699768066
-126.842552185059
-123.599960327148
-123.695327758789
-127.224029541016
-132.278656005859
-142.578659057617
-146.774948120117
-138.477737426758
-127.605514526367
-118.640701293945
-109.580520629883
-112.060150146484
-118.44995880127
-111.297187805176
-106.147186279297
-113.299964904785
-121.978668212891
-128.845321655273
-143.341613769531
-158.982360839844
-166.421249389648
-167.279571533203
-159.173095703125
-149.826797485352
-141.338836669922
-137.905517578125
-140.385147094727
-135.425888061523
-134.090698242188
-135.998107910156
-131.324951171875
-125.411994934082
-109.96199798584
-100.043487548828
-107.577743530273
-105.574966430664
-101.569412231445
-112.060150146484
-116.924034118652
-111.392555236816
-103.190704345703
-94.6073760986328
-90.5064544677734
-81.6370086669922
-74.6749725341797
-75.8194198608398
-63.8981285095215
-55.887020111084
-72.8629379272461
-87.6453399658203
-82.7814559936523
-78.8712692260742
-93.6536712646484
-92.4138565063477
-71.0509033203125
-68.3805313110352
-66.3777542114258
-56.4592399597168
-58.1759071350098
-59.3203506469727
-51.5953521728516
-39.197208404541
-25.7499923706055
-20.8861045837402
-30.995361328125
-38.2435073852539
-30.1370277404785
-19.9324016571045
-9.72777462005615
0.381481349468231
4.10092449188232
9.44166374206543
7.15277528762817
3.147221326828
13.0657367706299
8.58333015441895
-3.24259161949158
8.77407169342041
20.7907333374023
15.7361059188843
8.48795986175537
4.00555419921875
0
-7.15277528762817
-19.9324016571045
-29.6601753234863
-25.177770614624
-14.9731435775757
-10.2999963760376
-7.53425693511963
-6.1037015914917
-15.6407356262207
-22.6027698516846
-12.302773475647
-6.86666440963745
-10.5861072540283
0.190740674734116
24.2240657806396
36.1453590393066
40.8185043334961
49.8786888122559
43.0120239257813
34.3333206176758
46.8268356323242
54.7425765991211
38.9110984802246
20.5999927520752
17.0712909698486
20.6953639984131
19.4555492401123
19.360179901123
33.3796195983887
49.5925750732422
56.0777587890625
57.7944259643555
48.6388740539551
25.9407329559326
23.2703628540039
40.913875579834
39.1018409729004
34.0472106933594
35.4777679443359
20.5046234130859
15.6407356262207
32.6166572570801
34.9055442810059
21.7444381713867
20.3138828277588
29.278694152832
34.9055442810059
37.8620262145996
43.2981338500977
37.7666549682617
17.8342533111572
8.77407169342041
13.0657367706299
20.5999927520752
29.8509159088135
33.6657295227051
37.2898025512695
34.810173034668
23.0796222686768
24.7962875366211
34.2379531860352
31.8536930084229
28.4203605651855
30.8046188354492
23.3657341003418
10.204626083374
15.0685138702393
26.4175834655762
35.1916542053223
44.9194297790527
35.5731353759766
18.8833274841309
25.6546211242676
35.4777679443359
29.1833248138428
25.177770614624
26.1314735412598
23.9379558563232
26.7036952972412
30.6138782501221
17.357400894165
7.34351634979248
16.022216796875
14.8777732849121
10.9675893783569
16.5944385528564
5.1499981880188
-4.38703584671021
12.2074031829834
14.7824029922485
-4.29166507720947
-1.04907369613647
12.9703664779663
13.1611070632935
8.58333015441895
1.23981440067291
-11.3490705490112
-15.7361059188843
-3.05185079574585
13.5425882339478
20.1231422424316
20.1231422424316
16.2129573822021
6.00833129882813
3.24259161949158
12.8749961853027
21.0768451690674
28.3249912261963
36.1453590393066
30.0416564941406
27.4666576385498
38.6249885559082
32.3305435180664
16.4036979675293
14.0194396972656
18.2157344818115
19.1694374084473
17.8342533111572
20.0277709960938
23.4611034393311
24.2240657806396
18.5972156524658
14.9731435775757
16.2129573822021
11.8259220123291
10.2999963760376
9.72777462005615
4.67314672470093
9.25092315673828
20.0277709960938
25.7499923706055
25.9407329559326
20.5046234130859
21.5536975860596
30.8999900817871
34.810173034668
34.4286918640137
30.8046188354492
15.7361059188843
1.71666610240936
7.53425693511963
17.2620315551758
19.074068069458
24.3194370269775
29.9462871551514
33.5703582763672
35.6685066223145
38.148136138916
41.3907279968262
36.8129501342773
30.0416564941406
27.657398223877
26.9898052215576
16.2129573822021
2.38425850868225
9.9185152053833
17.738883972168
2.5749990940094
-11.3490705490112
-15.5453653335571
-18.2157344818115
-12.0166625976563
-1.43055510520935
8.29721927642822
12.2074031829834
7.53425693511963
1.43055510520935
-1.04907369613647
-0.762962698936462
-11.635181427002
-19.2648086547852
-18.8833274841309
-30.1370277404785
-33.5703582763672
-20.8861045837402
-16.7851791381836
-13.256477355957
-4.67314672470093
-12.6842555999756
-21.839807510376
-23.0796222686768
-28.8018417358398
-28.2296199798584
-27.5620288848877
-31.5675830841064
-31.4722118377686
-28.1342506408691
-19.5509204864502
-13.9240694046021
-20.7907333374023
-36.9083213806152
-47.7805404663086
-41.2953567504883
-38.8157272338867
-47.3036880493164
-44.3472061157227
-44.4425773620605
-60.7509078979492
-57.3175735473633
-41.1999855041504
-46.9222068786621
-53.6935005187988
-51.4999847412109
-43.679615020752
-24.1286964416504
-13.0657367706299
-22.7935104370117
-23.7472152709961
-9.25092315673828
-11.3490705490112
-12.1120328903198
19.4555492401123
102.809226989746
269.707305908203
460.257263183594
594.538696289063
686.952575683594
772.785888671875
850.608032226563
882.080261230469
858.237670898438
780.701599121094
626.392395019531
432.218383789063
241.859176635742
49.4972076416016
-121.883293151855
-234.515670776367
-302.610076904297
-348.864715576172
-370.418395996094
-384.914703369141
-408.280426025391
-431.073944091797
-460.638732910156
-498.405395507813
-534.836853027344
-573.557250976563
-601.786865234375
-597.685913085938
-566.59521484375
-533.597045898438
-499.8359375
-455.965606689453
-418.485046386719
-394.833221435547
-374.328582763672
-362.311920166016
-360.118408203125
-351.725799560547
-333.128601074219
-308.523040771484
-279.816589355469
-245.67399597168
-210.100860595703
-199.419387817383
-204.187896728516
-195.223083496094
-180.249938964844
-164.036987304688
-141.052734375
-118.354591369629
-96.9916381835938
-71.3370132446289
-43.3935050964355
-18.5972156524658
-6.86666440963745
-1.43055510520935
12.3981437683105
21.9351787567139
22.8888816833496
32.9981384277344
46.2546157836914
52.8351669311523
56.5546112060547
54.8379440307617
57.1268348693848
67.7129440307617
72.0046081542969
67.9990539550781
64.3749771118164
62.2768325805664
65.6147918701172
84.8796005249023
108.626815795898
115.874961853027
115.588851928711
116.733299255371
123.886070251465
142.960144042969
148.586990356445
137.524032592773
134.758285522461
127.033294677734
113.490707397461
112.25089263916
113.013854980469
116.35181427002
117.877738952637
110.915702819824
113.872184753418
118.068481445313
114.444404602051
109.00830078125
102.713859558105
107.768486022949
114.539779663086
109.389778137207
110.343482971191
114.158294677734
102.999969482422
88.7897872924805
80.778678894043
74.7703475952148
69.1434936523438
62.6583137512207
59.8925743103027
60.8462753295898
58.652759552002
67.6175689697266
82.3046035766602
78.4897918701172
69.1434936523438
64.3749771118164
61.99072265625
61.7999801635742
53.5981292724609
52.1675758361816
69.4296035766602
83.0675659179688
85.4518280029297
85.4518280029297
87.7407150268555
85.4518280029297
74.1027526855469
75.1518249511719
86.5962677001953
92.6045989990234
103.76293182373
115.016632080078
120.643478393555
129.226806640625
137.333282470703
145.630508422852
146.965698242188
138.668472290039
134.090698242188
138.000885009766
158.886993408203
180.059204101563
186.449020385742
193.315673828125
189.882339477539
181.394393920898
187.307342529297
182.634201049805
160.889770507813
149.159210205078
145.916625976563
143.532363891602
145.43977355957
141.243469238281
133.041625976563
120.548110961914
100.043487548828
91.269416809082
80.111083984375
59.701831817627
64.9472045898438
75.1518249511719
63.1351661682129
58.7481307983398
66.1870193481445
58.5573883056641
41.5814666748047
35.2870254516602
32.4259147644043
16.9759197235107
4.1962947845459
2.28888821601868
-6.1037015914917
-13.8286991119385
-14.5916624069214
-18.5972156524658
-27.943510055542
-45.1101722717285
-50.4509086608887
-37.5759124755859
-41.0092468261719
-57.8897972106934
-61.4184989929199
-61.0370178222656
-68.3805313110352
-78.7759017944336
-87.6453399658203
-90.220344543457
-85.4518280029297
-88.2175674438477
-106.147186279297
-114.062927246094
-101.187927246094
-100.711082458496
-119.403663635254
-124.458290100098
-121.978668212891
-121.787925720215
-108.817558288574
-105.479598999023
-121.597183227539
-127.700881958008
-131.038848876953
-133.709213256836
-125.793479919434
-127.128662109375
-131.992553710938
-126.365699768066
-120.452735900879
-115.111999511719
-108.436073303223
-103.095336914063
-99.6620025634766
-95.6564483642578
-97.849967956543
-99.8527450561523
-97.3731155395508
-106.147186279297
-117.59162902832
-116.924034118652
-110.534225463867
-108.626815795898
-112.441627502441
-108.817558288574
-96.2286758422852
-93.367561340332
-94.7981185913086
-86.1194152832031
-82.4953460693359
-86.5009002685547
-87.8360824584961
-86.4055252075195
-83.1629333496094
-81.3508987426758
-80.778678894043
-86.0240478515625
-87.9314498901367
-79.6342315673828
-72.0999755859375
-58.3666496276855
-43.2027626037598
-43.679615020752
-53.7888717651367
-64.3749771118164
-78.7759017944336
-86.9777526855469
-72.0999755859375
-51.8814659118652
-42.630542755127
-38.4342460632324
-36.6222114562988
-36.2407302856445
-35.5731353759766
-36.6222114562988
-37.4805450439453
-32.7120246887207
-35.9546165466309
-48.5435028076172
-41.5814666748047
-29.7555465698242
-30.6138782501221
-26.5129547119141
-27.3712882995605
-41.2953567504883
-41.3907279968262
-30.5185089111328
-33.2842483520508
-44.4425773620605
-57.2222023010254
-69.1434936523438
-69.1434936523438
-55.887020111084
-44.6333198547363
-44.9194297790527
-40.8185043334961
-34.5240631103516
-39.7694320678711
-42.3444290161133
-40.1509132385254
-33.0935096740723
-12.6842555999756
2.00277709960938
5.05462789535522
6.58055353164673
8.67870044708252
18.2157344818115
19.1694374084473
10.3953666687012
10.8722190856934
10.0138854980469
18.787956237793
43.2027626037598
50.9277610778809
42.9166526794434
39.0064697265625
31.8536930084229
27.8481388092041
34.6194343566895
33.2842483520508
21.6490669250488
13.5425882339478
10.6814785003662
9.25092315673828
4.10092449188232
0.190740674734116
4.7685170173645
10.4907369613647
15.2592544555664
23.7472152709961
27.5620288848877
27.4666576385498
32.8073959350586
30.6138782501221
25.7499923706055
36.8129501342773
46.7314682006836
47.2083168029785
49.5925750732422
53.5027618408203
59.5110931396484
62.1814613342285
58.0805358886719
50.5462799072266
47.5897979736328
49.8786888122559
45.1101722717285
44.9194297790527
45.5870208740234
42.5351715087891
57.6036834716797
69.9064559936523
63.3259048461914
51.8814659118652
43.5842437744141
49.8786888122559
59.6064605712891
54.170352935791
41.8675804138184
40.3416519165039
49.8786888122559
55.5055389404297
56.936092376709
60.1786842346191
55.3147964477539
51.1185035705566
56.3638725280762
57.1268348693848
51.1185035705566
39.5786895751953
28.0388793945313
15.9268465042114
12.6842555999756
30.8999900817871
40.3416519165039
31.8536930084229
23.7472152709961
22.0305480957031
30.5185089111328
37.9573936462402
41.7722091674805
49.783317565918
47.2083168029785
34.810173034668
31.7583236694336
37.0036926269531
46.7314682006836
51.2138710021973
39.6740608215332
24.1286964416504
13.0657367706299
12.6842555999756
18.0249938964844
21.2675857543945
26.7036952972412
35.5731353759766
43.5842437744141
45.3962821960449
42.630542755127
38.148136138916
39.197208404541
45.6823921203613
39.3879508972168
28.5157318115234
29.6601753234863
28.6111011505127
16.9759197235107
16.4036979675293
30.0416564941406
36.431468963623
40.0555419921875
38.5296173095703
30.1370277404785
34.9055442810059
37.4805450439453
22.6027698516846
6.29444265365601
3.71944332122803
11.635181427002
13.5425882339478
7.91573810577393
5.43610954284668
12.6842555999756
10.8722190856934
0.286111027002335
14.4962921142578
36.8129501342773
45.0148010253906
49.9740562438965
55.9823913574219
58.652759552002
56.8407211303711
49.0203552246094
36.431468963623
24.5101776123047
11.1583299636841
2.95648050308228
-2.8611102104187
-17.5481433868408
-26.5129547119141
-25.177770614624
-22.7935104370117
-19.6462898254395
-27.0851764678955
-39.3879508972168
-39.1018409729004
-40.1509132385254
-45.4916534423828
-46.3499870300293
-45.9685020446777
-44.4425773620605
-44.9194297790527
-34.9055442810059
-18.5972156524658
-21.4583263397217
-24.5101776123047
-16.5944385528564
-17.6435127258301
-18.9786968231201
-15.8314762115479
-13.1611070632935
-4.48240613937378
-1.81203651428223
-9.34629344940186
-10.3953666687012
-6.96203470230103
-12.7796258926392
-25.4638805389404
-35.1916542053223
-42.8212814331055
-50.0694274902344
-49.783317565918
-39.9601707458496
-33.3796195983887
-35.9546165466309
-36.5268402099609
-37.3851737976074
-46.8268356323242
-50.4509086608887
-43.1073951721191
-40.5323944091797
-38.9110984802246
-38.6249885559082
-41.7722091674805
-39.864803314209
-38.4342460632324
-39.6740608215332
-49.4018363952637
-65.0425720214844
-69.5249786376953
-76.8684921264648
-90.1249694824219
-92.1277465820313
-83.4490509033203
-68.2851638793945
-56.2685012817383
-51.2138710021973
-53.6935005187988
-55.219425201416
-46.3499870300293
-26.4175834655762
57.6036834716797
233.561965942383
420.869323730469
558.202575683594
671.788696289063
777.7451171875
862.815490722656
935.487670898438
956.183044433594
880.7451171875
739.6923828125
551.908142089844
341.235076904297
131.134216308594
-64.5657196044922
-202.85270690918
-288.781402587891
-354.396179199219
-406.468383789063
-453.1044921875
-488.010040283203
-499.931335449219
-506.130401611328
-533.310913085938
-564.2109375
-577.0859375
-585.7646484375
-591.582214355469
-590.819274902344
-577.658142089844
-540.082214355469
-492.397064208984
-463.690582275391
-454.821136474609
-432.409118652344
-393.498016357422
-373.565612792969
-365.459136962891
-346.766540527344
-322.161010742188
-290.307312011719
-252.636032104492
-224.978637695313
-214.201782226563
-199.610122680664
-178.724014282227
-170.331420898438
-161.652725219727
-145.916625976563
-124.553665161133
-89.0758972167969
-60.7509078979492
-59.5110931396484
-58.2712783813477
-40.913875579834
-35.5731353759766
-39.5786895751953
-25.8453617095947
-9.72777462005615
1.52592539787292
23.9379558563232
41.5814666748047
48.1620216369629
62.0860900878906
73.9120101928711
71.2416458129883
60.3694267272949
63.7073860168457
91.5555267333984
105.002746582031
99.2805252075195
104.812004089355
112.632369995117
115.588851928711
117.973114013672
121.787925720215
127.796257019043
127.891624450684
123.409217834473
128.845321655273
142.578659057617
144.295318603516
138.76383972168
146.107360839844
162.129577636719
170.80827331543
168.424026489258
163.941619873047
161.652725219727
157.170318603516
154.213836669922
153.450881958008
156.693466186523
167.661056518555
172.620315551758
164.51383972168
160.317535400391
160.699020385742
150.112915039063
150.494400024414
169.568466186523
164.418472290039
137.810134887695
133.518478393555
138.286987304688
126.174957275391
115.398109436035
116.161071777344
117.114776611328
110.534225463867
101.283302307129
89.2666397094727
75.1518249511719
72.6721954345703
76.5823822021484
77.345344543457
77.2499771118164
84.4981231689453
99.3758926391602
106.624038696289
98.899040222168
78.8712692260742
69.2388687133789
82.2092361450195
91.0786743164063
93.8444137573242
98.0407104492188
107.196258544922
130.27587890625
136.951812744141
120.071258544922
123.218475341797
137.333282470703
130.943481445313
119.975891113281
125.888847351074
136.474960327148
139.812911987305
147.824020385742
153.546249389648
147.919403076172
146.202728271484
147.919403076172
144.581436157227
139.049957275391
130.943481445313
124.362922668457
118.068481445313
109.580520629883
110.152740478516
107.291633605957
88.1221923828125
79.5388641357422
84.7842330932617
76.9638671875
69.1434936523438
68.5712738037109
56.1731300354004
48.2573928833008
48.6388740539551
37.3851737976074
26.4175834655762
26.226842880249
23.4611034393311
9.34629344940186
-7.53425693511963
-10.9675893783569
-3.147221326828
-5.24536848068237
-10.9675893783569
-12.9703664779663
-29.4694347381592
-50.355541229248
-56.7453536987305
-65.3286819458008
-77.345344543457
-86.4055252075195
-90.5064544677734
-85.4518280029297
-89.5527496337891
-96.4194107055664
-90.9833068847656
-93.6536712646484
-96.4194107055664
-91.3647842407227
-88.0268249511719
-73.6259002685547
-64.2796096801758
-70.0971984863281
-60.7509078979492
-60.3694267272949
-78.8712692260742
-79.2527542114258
-64.1842422485352
-55.3147964477539
-61.2277565002441
-71.1462707519531
-69.0481262207031
-63.9934997558594
-67.9990539550781
-64.1842422485352
-63.3259048461914
-84.7842330932617
-100.711082458496
-103.190704345703
-100.901817321777
-94.1305236816406
-94.2258987426758
-102.141632080078
-102.904594421387
-94.2258987426758
-96.0379333496094
-108.722190856934
-112.060150146484
-113.395332336426
-122.455513000488
-133.327728271484
-143.913848876953
-143.436996459961
-131.706436157227
-132.755508422852
-141.911071777344
-136.093475341797
-123.504592895508
-111.964782714844
-97.0870056152344
-94.1305236816406
-109.00830078125
-121.501815795898
-121.120330810547
-110.152740478516
-96.2286758422852
-91.3647842407227
-88.5036773681641
-78.8712692260742
-78.012939453125
-80.0157165527344
-72.9583129882813
-81.7323837280273
-98.8036727905273
-89.5527496337891
-72.5768280029297
-77.1546020507813
-91.4601593017578
-99.1851501464844
-96.800895690918
-87.7407150268555
-75.4379425048828
-70.8601608276367
-75.8194198608398
-70.5740509033203
-58.4620170593262
-46.1592445373535
-33.8564720153809
-30.5185089111328
-27.0851764678955
-26.8944358825684
-34.9055442810059
-39.864803314209
-38.8157272338867
-32.9981384277344
-30.995361328125
-29.278694152832
-27.943510055542
-36.3360977172852
-38.3388748168945
-26.226842880249
-22.9842510223389
-30.4231376647949
-28.6111011505127
-23.7472152709961
-21.0768451690674
-16.4036979675293
-8.20184898376465
-0.858333051204681
0.47685170173645
10.7768487930298
20.0277709960938
15.6407356262207
20.5999927520752
21.3629570007324
5.81759071350098
0.381481349468231
1.23981440067291
1.04907369613647
5.05462789535522
8.3925895690918
15.4499950408936
22.2212886810303
19.9324016571045
12.588885307312
11.5398111343384
23.0796222686768
34.0472106933594
34.4286918640137
26.7990646362305
19.8370304107666
26.8944358825684
37.4805450439453
33.8564720153809
34.9055442810059
45.3962821960449
47.3990592956543
48.5435028076172
45.5870208740234
31.6629524230957
20.409252166748
18.5018463134766
27.943510055542
36.431468963623
39.2925796508789
41.962947845459
31.7583236694336
24.3194370269775
34.810173034668
39.1018409729004
40.7231369018555
53.0259094238281
52.5490570068359
41.0092468261719
41.5814666748047
42.1536903381348
41.5814666748047
45.5870208740234
42.3444290161133
34.1425819396973
31.2814712524414
39.864803314209
51.404613494873
45.8731346130371
35.5731353759766
40.913875579834
43.7749862670898
37.5759124755859
45.0148010253906
53.6935005187988
46.6360969543457
52.8351669311523
62.9444236755371
45.2055397033691
32.6166572570801
37.6712837219238
34.0472106933594
28.5157318115234
29.3740653991699
27.657398223877
30.995361328125
43.5842437744141
51.6907234191895
53.5981292724609
50.4509086608887
45.3962821960449
48.6388740539551
52.2629470825195
54.9333152770996
57.0314636230469
46.7314682006836
43.679615020752
54.3610954284668
53.121280670166
46.4453544616699
46.0638732910156
46.0638732910156
39.3879508972168
26.9898052215576
24.3194370269775
27.7527694702148
17.6435127258301
12.1120328903198
18.5018463134766
19.2648086547852
21.4583263397217
20.1231422424316
5.91296100616455
-5.05462789535522
-1.23981440067291
7.24814605712891
12.302773475647
21.3629570007324
24.6055469512939
20.0277709960938
25.177770614624
36.5268402099609
43.679615020752
41.962947845459
33.4749908447266
30.1370277404785
30.8999900817871
26.3222141265869
20.7907333374023
19.4555492401123
8.77407169342041
-4.38703584671021
-2.5749990940094
0.0953703373670578
-0.762962698936462
3.91018390655518
7.91573810577393
-4.86388731002808
-15.35462474823
1.71666610240936
13.8286991119385
15.6407356262207
29.278694152832
37.5759124755859
36.8129501342773
37.4805450439453
31.4722118377686
23.2703628540039
24.3194370269775
20.2185115814209
4.57777643203735
-1.81203651428223
4.7685170173645
-1.52592539787292
-18.5972156524658
-21.9351787567139
-24.2240657806396
-28.0388793945313
-21.2675857543945
-12.588885307312
-6.38981294631958
-1.81203651428223
-3.147221326828
-6.96203470230103
-6.48518323898315
-12.302773475647
-31.7583236694336
-49.2110939025879
-55.887020111084
-58.7481307983398
-58.7481307983398
-60.8462753295898
-63.1351661682129
-52.7397994995117
-38.0527648925781
-29.5648059844971
-19.6462898254395
-14.1148099899292
-8.67870044708252
-4.1962947845459
-17.738883972168
-24.0333251953125
-20.409252166748
-32.7120246887207
-32.6166572570801
-22.9842510223389
-30.8046188354492
-28.8018417358398
-18.2157344818115
-22.6981410980225
-23.4611034393311
-16.8805503845215
-15.5453653335571
-16.7851791381836
-16.5944385528564
-17.1666603088379
-20.409252166748
-30.2323970794678
-41.1999855041504
-40.2462844848633
-35.0962867736816
-24.3194370269775
-8.77407169342041
-10.6814785003662
-25.0823993682861
-30.6138782501221
-25.7499923706055
-16.30832862854
37.6712837219238
186.925872802734
383.293395996094
541.226684570313
661.774780273438
783.562683105469
882.461730957031
949.316345214844
998.718200683594
958.853393554688
814.462707519531
645.180358886719
458.922088623047
244.148071289063
36.6222114562988
-127.700881958008
-240.333251953125
-318.918426513672
-400.650787353516
-483.718353271484
-526.253540039063
-542.37109375
-555.818359375
-568.502624511719
-604.36181640625
-642.223876953125
-650.044250488281
-649.376647949219
-650.044250488281
-620.956298828125
-557.91650390625
-507.847045898438
-483.909118652344
-463.499847412109
-446.810028076172
-438.894317626953
-429.071166992188
-404.751708984375
-373.088775634766
-339.041564941406
-301.751770019531
-265.129547119141
-232.703628540039
-218.111968994141
-212.866592407227
-202.85270690918
-189.500869750977
-169.377716064453
-148.014770507813
-124.362922668457
-99.2805252075195
-78.2990493774414
-55.6009063720703
-26.4175834655762
-3.8148136138916
-3.91018390655518
-0.9537034034729
20.1231422424316
34.3333206176758
40.4370231628418
47.9712791442871
54.5518341064453
66.0916442871094
81.6370086669922
90.1249694824219
85.0703430175781
74.4842376708984
69.4296035766602
67.6175689697266
70.2879409790039
70.7647933959961
69.2388687133789
78.2990493774414
82.1138610839844
74.198127746582
73.6259002685547
87.1684875488281
94.9888610839844
88.4083023071289
85.7379379272461
80.778678894043
71.4323883056641
73.5305328369141
82.4953460693359
90.3157119750977
89.7434921264648
86.7870101928711
92.986083984375
103.858299255371
110.629592895508
109.866630554199
113.872184753418
121.311073303223
119.499038696289
116.44718170166
116.924034118652
114.062927246094
105.956443786621
105.098114013672
106.910148620605
94.1305236816406
83.5444183349609
88.9805297851563
95.2749710083008
101.664779663086
112.441627502441
111.392555236816
100.711082458496
98.8036727905273
104.430519104004
109.580520629883
109.199035644531
107.291633605957
111.678665161133
119.022186279297
118.545333862305
113.586074829102
119.68977355957
125.793479919434
115.207366943359
109.00830078125
113.013854980469
110.629592895508
112.918479919434
111.774040222168
101.187927246094
113.013854980469
134.949035644531
142.101806640625
149.445327758789
156.598098754883
153.450881958008
153.260131835938
158.982360839844
160.889770507813
167.565689086914
173.955505371094
174.146240234375
188.261047363281
194.650863647461
183.77864074707
180.631423950195
177.102722167969
173.764755249023
167.374938964844
151.161987304688
148.396255493164
159.459213256836
169.186981201172
170.236053466797
163.274017333984
155.930511474609
143.436996459961
122.074035644531
101.092559814453
91.269416809082
90.1249694824219
90.9833068847656
87.6453399658203
71.0509033203125
60.274055480957
64.3749771118164
64.0888671875
55.219425201416
30.5185089111328
-0.572222054004669
-10.2999963760376
-11.8259220123291
-17.357400894165
-18.5018463134766
-14.5916624069214
-9.72777462005615
-10.7768487930298
-17.738883972168
-28.8018417358398
-38.8157272338867
-42.0583190917969
-48.4481315612793
-60.1786842346191
-64.4703521728516
-66.2823867797852
-82.1138610839844
-97.6592254638672
-94.03515625
-95.2749710083008
-105.002746582031
-99.5666351318359
-94.2258987426758
-101.855522155762
-105.670333862305
-101.187927246094
-99.4712677001953
-105.193481445313
-112.918479919434
-115.684219360352
-115.111999511719
-119.880516052246
-133.899963378906
-145.153656005859
-141.243469238281
-134.186065673828
-135.235137939453
-136.570327758789
-134.376815795898
-135.330505371094
-137.810134887695
-133.041625976563
-124.076812744141
-113.109222412109
-103.953666687012
-104.525894165039
-115.779594421387
-130.085144042969
-131.420333862305
-123.504592895508
-124.93514251709
-127.224029541016
-120.929588317871
-115.302742004395
-113.967559814453
-110.534225463867
-103.381446838379
-100.138854980469
-102.046264648438
-106.719413757324
-106.719413757324
-99.948112487793
-94.6073760986328
-80.2064590454102
-55.0286865234375
-44.9194297790527
-48.066650390625
-54.5518341064453
-67.9990539550781
-73.9120101928711
-70.7647933959961
-74.3888626098633
-74.9610900878906
-70.4786834716797
-78.4897918701172
-90.8879318237305
-99.3758926391602
-103.190704345703
-94.03515625
-75.7240524291992
-68.3805313110352
-76.1055297851563
-78.7759017944336
-76.8684921264648
-74.5796051025391
-67.0453491210938
-63.8027572631836
-53.9796104431152
-33.761100769043
-22.6981410980225
-22.8888816833496
-19.5509204864502
-10.3953666687012
-14.7824029922485
-27.8481388092041
-28.2296199798584
-20.3138828277588
-20.3138828277588
-26.7990646362305
-32.8073959350586
-48.1620216369629
-59.2249794006348
-44.9194297790527
-25.6546211242676
-34.1425819396973
-57.3175735473633
-58.8434982299805
-49.3064651489258
-47.2083168029785
-43.679615020752
-41.6768379211426
-46.8268356323242
-45.8731346130371
-40.0555419921875
-41.6768379211426
-41.1999855041504
-40.4370231628418
-47.5897979736328
-44.3472061157227
-29.6601753234863
-17.1666603088379
-2.1935179233551
7.91573810577393
2.8611102104187
3.91018390655518
17.357400894165
22.6027698516846
17.357400894165
14.9731435775757
17.2620315551758
15.7361059188843
17.4527721405029
27.8481388092041
37.0036926269531
42.5351715087891
37.1944313049316
32.9027671813965
42.3444290161133
39.864803314209
27.3712882995605
30.5185089111328
42.3444290161133
42.2490615844727
30.6138782501221
19.2648086547852
15.35462474823
23.6518440246582
29.8509159088135
20.9814739227295
10.7768487930298
16.8805503845215
35.6685066223145
43.2981338500977
36.8129501342773
36.9083213806152
39.6740608215332
46.2546157836914
61.4184989929199
57.3175735473633
46.6360969543457
46.3499870300293
29.7555465698242
18.2157344818115
20.6953639984131
6.86666440963745
-3.8148136138916
6.58055353164673
15.1638841629028
22.5074005126953
33.2842483520508
35.8592491149902
41.1999855041504
51.0231323242188
60.5601654052734
64.2796096801758
55.6009063720703
42.7259140014648
31.8536930084229
35.0962867736816
46.6360969543457
45.0148010253906
35.0962867736816
29.9462871551514
32.7120246887207
35.1916542053223
38.7203598022461
43.8703575134277
38.0527648925781
32.6166572570801
31.0907306671143
28.9925842285156
36.431468963623
39.4833221435547
34.0472106933594
36.0499877929688
37.9573936462402
46.7314682006836
63.2305335998535
60.3694267272949
47.017578125
44.6333198547363
50.9277610778809
49.4972076416016
38.9110984802246
35.0962867736816
34.6194343566895
28.7064723968506
20.0277709960938
19.9324016571045
23.9379558563232
20.9814739227295
20.409252166748
32.3305435180664
51.404613494873
59.5110931396484
51.2138710021973
43.9657249450684
45.1101722717285
37.3851737976074
22.3166599273682
15.7361059188843
18.4064750671387
17.2620315551758
0.762962698936462
-15.8314762115479
-18.5018463134766
-3.5287024974823
21.4583263397217
32.2351760864258
26.6083240509033
16.5944385528564
14.5916624069214
28.3249912261963
72.1953506469727
190.740676879883
379.955444335938
555.627624511719
683.7099609375
795.484008789063
887.230285644531
964.00341796875
1044.20983886719
1047.5478515625
923.089538574219
750.946044921875
564.783142089844
350.676727294922
146.298095703125
-32.04443359375
-177.29345703125
-262.93603515625
-325.403594970703
-405.228576660156
-459.875793457031
-467.505401611328
-474.753540039063
-506.893341064453
-542.180358886719
-561.540588378906
-570.21923828125
-581.377563476563
-580.614624023438
-559.919250488281
-534.646118164063
-491.157257080078
-443.758178710938
-430.024871826172
-433.744293212891
-435.7470703125
-432.218383789063
-418.008209228516
-398.171173095703
-371.467468261719
-337.610992431641
-302.610076904297
-265.797149658203
-235.850845336914
-226.027709960938
-221.831405639648
-212.294372558594
-200.75456237793
-185.590682983398
-170.903656005859
-156.693466186523
-132.56477355957
-95.4657135009766
-66.1870193481445
-50.1647987365723
-37.0036926269531
-30.8999900817871
-26.8944358825684
-28.0388793945313
-29.6601753234863
-19.6462898254395
-23.1749935150146
-37.6712837219238
-33.3796195983887
-23.8425846099854
-14.4962921142578
6.00833129882813
23.5564746856689
21.9351787567139
8.20184898376465
10.1092557907104
26.7990646362305
34.5240631103516
49.0203552246094
64.1842422485352
64.1842422485352
69.6203460693359
73.0536804199219
66.2823867797852
63.5166473388672
59.8925743103027
51.9768333435059
50.9277610778809
54.4564628601074
60.4647941589355
76.8684921264648
93.2721939086914
91.269416809082
76.7731246948242
72.9583129882813
77.8221969604492
81.7323837280273
81.6370086669922
80.3018264770508
92.6999740600586
101.283302307129
93.2721939086914
92.7953414916992
90.8879318237305
81.0647888183594
80.4925689697266
84.2120132446289
84.4981231689453
82.2092361450195
79.8249740600586
82.4953460693359
85.3564529418945
86.0240478515625
94.416633605957
97.3731155395508
88.0268249511719
87.8360824584961
95.9425582885742
95.4657135009766
93.8444137573242
97.5638580322266
98.5175628662109
103.953666687012
109.485153198242
108.054595947266
110.629592895508
108.340705871582
98.9944152832031
92.8907089233398
89.3620071411133
91.1740417480469
96.13330078125
101.664779663086
108.817558288574
119.785148620605
137.237915039063
146.107360839844
142.769393920898
135.425888061523
119.403663635254
113.586074829102
125.125885009766
136.379592895508
150.303649902344
160.889770507813
164.60920715332
171.666610717773
169.854568481445
153.73698425293
139.049957275391
126.937919616699
117.210144042969
127.033294677734
149.731430053711
156.788833618164
147.919403076172
141.624954223633
142.101806640625
145.2490234375
148.110137939453
135.616622924805
112.060150146484
100.711082458496
102.427742004395
105.193481445313
99.0897827148438
85.2610855102539
72.4814605712891
62.5629425048828
57.3175735473633
51.5953521728516
35.9546165466309
21.5536975860596
13.4472179412842
1.33518481254578
-10.0138854980469
-20.409252166748
-30.70924949646
-38.6249885559082
-57.4129447937012
-75.4379425048828
-76.0101623535156
-77.0592346191406
-73.9120101928711
-61.5138702392578
-62.2768325805664
-72.9583129882813
-84.3073806762695
-87.4546051025391
-81.4462738037109
-87.0731201171875
-99.948112487793
-106.051818847656
-110.248115539551
-112.155517578125
-118.926811218262
-132.660140991211
-132.850875854492
-117.49626159668
-107.387001037598
-111.297187805176
-119.785148620605
-123.886070251465
-117.877738952637
-107.100891113281
-103.476821899414
-103.286079406738
-107.86385345459
-116.542556762695
-118.73607635498
-124.267555236816
-138.477737426758
-148.205505371094
-151.448104858398
-147.156433105469
-138.286987304688
-132.374038696289
-130.752731323242
-129.608291625977
-119.68977355957
-105.76570892334
-99.7573776245117
-99.8527450561523
-101.092559814453
-100.424964904785
-96.0379333496094
-90.8879318237305
-91.9370040893555
-92.2231216430664
-83.4490509033203
-84.4981231689453
-88.5990447998047
-70.5740509033203
-56.5546112060547
-68.1897964477539
-82.7814559936523
-89.5527496337891
-90.9833068847656
-88.5990447998047
-88.7897872924805
-84.8796005249023
-79.4434967041016
-94.416633605957
-105.956443786621
-96.800895690918
-95.084228515625
-96.800895690918
-90.3157119750977
-87.8360824584961
-87.3592300415039
-79.3481216430664
-68.3805313110352
-71.9092330932617
-75.9147872924805
-54.2657241821289
-38.9110984802246
-45.0148010253906
-40.2462844848633
-37.2898025512695
-39.2925796508789
-26.4175834655762
-18.787956237793
-17.6435127258301
-9.537034034729
-5.62685012817383
0
13.6379585266113
13.256477355957
-3.24259161949158
-15.2592544555664
-17.0712909698486
-14.7824029922485
-12.7796258926392
-12.6842555999756
-22.0305480957031
-28.4203605651855
-19.074068069458
-4.00555419921875
9.34629344940186
10.3953666687012
7.82036781311035
12.6842555999756
15.6407356262207
16.5944385528564
14.687032699585
16.8805503845215
26.6083240509033
28.8018417358398
32.8073959350586
44.0610961914063
40.2462844848633
22.0305480957031
13.9240694046021
16.4036979675293
13.4472179412842
9.82314491271973
15.1638841629028
12.9703664779663
10.1092557907104
22.0305480957031
30.4231376647949
41.2953567504883
62.4675712585449
68.3805313110352
66.6638641357422
67.4268264770508
54.170352935791
43.679615020752
50.9277610778809
61.99072265625
66.5684967041016
61.1323890686035
54.8379440307617
52.7397994995117
48.6388740539551
50.4509086608887
61.1323890686035
55.6009063720703
41.8675804138184
39.4833221435547
34.1425819396973
34.9055442810059
41.7722091674805
38.6249885559082
43.679615020752
50.9277610778809
39.197208404541
26.8944358825684
19.1694374084473
9.25092315673828
5.1499981880188
9.72777462005615
22.4120292663574
31.3768424987793
35.382396697998
37.9573936462402
34.5240631103516
39.9601707458496
49.6879463195801
38.3388748168945
27.2759170532227
35.4777679443359
41.4860992431641
40.4370231628418
45.6823921203613
47.9712791442871
46.1592445373535
52.6444282531738
61.5138702392578
64.8518295288086
60.1786842346191
55.5055389404297
59.4157218933105
57.5083160400391
39.864803314209
16.1175880432129
2.76573991775513
9.9185152053833
23.3657341003418
26.5129547119141
14.1148099899292
-1.33518481254578
4.00555419921875
12.8749961853027
7.53425693511963
32.4259147644043
144.867553710938
335.226745605469
508.800750732422
630.016479492188
736.259033203125
817.991394042969
900.963623046875
981.933044433594
965.338562011719
851.561767578125
700.590515136719
514.713745117188
312.242492675781
130.37126159668
-37.0036926269531
-176.339752197266
-248.916580200195
-303.468414306641
-385.010070800781
-426.973022460938
-426.019317626953
-457.110046386719
-502.697052001953
-534.2646484375
-576.132202148438
-612.372924804688
-623.626647949219
-618.953491210938
-592.917419433594
-547.234985351563
-501.743347167969
-469.985046386719
-451.101715087891
-438.512817382813
-434.793365478516
-423.348937988281
-403.321166992188
-387.298950195313
-357.829528808594
-324.9267578125
-304.898986816406
-289.162872314453
-267.990661621094
-239.093444824219
-223.166595458984
-227.839736938477
-228.411956787109
-209.242523193359
-181.012908935547
-154.690689086914
-129.036071777344
-102.237007141113
-80.4925689697266
-59.6064605712891
-41.1046180725098
-39.9601707458496
-33.4749908447266
-12.302773475647
-2.47962880134583
3.8148136138916
23.4611034393311
43.0120239257813
50.9277610778809
57.8897972106934
68.1897964477539
68.2851638793945
57.6990547180176
55.6962776184082
68.2851638793945
75.0564575195313
71.0509033203125
75.9147872924805
91.8416366577148
107.005523681641
120.643478393555
120.643478393555
105.002746582031
96.0379333496094
97.2777481079102
99.5666351318359
97.9453353881836
92.2231216430664
87.9314498901367
85.1657104492188
87.7407150268555
97.0870056152344
102.141632080078
98.1360778808594
102.332374572754
110.724967956543
104.62126159668
99.0897827148438
99.5666351318359
98.3268203735352
90.5064544677734
79.5388641357422
84.3073806762695
97.0870056152344
103.286079406738
99.4712677001953
85.7379379272461
80.5879364013672
82.5907135009766
73.3397903442383
72.7675704956055
89.9342269897461
95.8471908569336
98.0407104492188
117.59162902832
127.414772033691
113.776817321777
96.3240432739258
84.0212707519531
83.5444183349609
90.4110794067383
96.4194107055664
104.716636657715
104.525894165039
96.7055282592773
97.2777481079102
100.997192382813
97.6592254638672
96.5147857666016
100.901817321777
100.043487548828
96.9916381835938
105.479598999023
130.848098754883
147.34716796875
142.864776611328
134.281433105469
124.458290100098
113.586074829102
111.678665161133
122.83699798584
132.660140991211
136.856430053711
143.818466186523
142.006439208984
133.327728271484
133.232360839844
136.093475341797
133.804580688477
130.46662902832
127.128662109375
129.894409179688
145.725875854492
159.745315551758
159.268463134766
151.829574584961
139.526809692383
125.698104858398
112.25089263916
91.6508941650391
71.5277557373047
55.4101676940918
47.3036880493164
53.8842430114746
50.6416511535645
35.382396697998
25.2731399536133
15.35462474823
2.5749990940094
-7.34351634979248
-11.635181427002
-15.0685138702393
-16.2129573822021
-22.5074005126953
-37.5759124755859
-43.4888763427734
-50.6416511535645
-64.9472045898438
-67.1407165527344
-67.0453491210938
-69.4296035766602
-64.3749771118164
-59.1296119689941
-57.3175735473633
-51.8814659118652
-47.8759117126465
-50.9277610778809
-54.8379440307617
-67.2360916137695
-82.7814559936523
-77.345344543457
-61.99072265625
-61.7999801635742
-69.1434936523438
-70.4786834716797
-64.6610870361328
-60.6555366516113
-68.5712738037109
-74.7703475952148
-67.2360916137695
-67.2360916137695
-78.4897918701172
-87.9314498901367
-98.2314529418945
-99.948112487793
-94.8934860229492
-99.1851501464844
-104.62126159668
-102.52311706543
-95.2749710083008
-91.8416366577148
-86.3101577758789
-74.4842376708984
-80.3018264770508
-96.5147857666016
-94.416633605957
-80.5879364013672
-70.0971984863281
-64.3749771118164
-69.0481262207031
-82.0184936523438
-89.8388595581055
-88.6944122314453
-81.5416412353516
-81.16015625
-92.318489074707
-97.182373046875
-93.1768188476563
-99.948112487793
-110.534225463867
-106.719413757324
-96.8962631225586
-97.9453353881836
-105.86107635498
-109.294410705566
-107.673110961914
-110.915702819824
-125.316627502441
-138.95458984375
-135.807357788086
-120.83422088623
-116.828666687012
-121.978668212891
-121.311073303223
-119.975891113281
-109.485153198242
-87.1684875488281
-74.4842376708984
-71.2416458129883
-62.1814613342285
-54.170352935791
-41.5814666748047
-28.4203605651855
-33.761100769043
-35.4777679443359
-27.2759170532227
-22.2212886810303
-18.4064750671387
-18.9786968231201
-19.8370304107666
-15.7361059188843
-8.58333015441895
-8.58333015441895
-13.4472179412842
-12.7796258926392
-15.7361059188843
-24.2240657806396
-28.5157318115234
-27.657398223877
-27.3712882995605
-23.7472152709961
-11.9212923049927
-5.24536848068237
-12.6842555999756
-22.0305480957031
-24.1286964416504
-21.839807510376
-25.9407329559326
-36.9083213806152
-48.066650390625
-51.4999847412109
-45.300910949707
-34.2379531860352
-26.5129547119141
-24.6055469512939
-19.9324016571045
-25.177770614624
-38.148136138916
-31.2814712524414
-18.2157344818115
-10.1092557907104
1.04907369613647
5.43610954284668
11.5398111343384
19.6462898254395
13.6379585266113
7.15277528762817
6.86666440963745
10.7768487930298
23.5564746856689
26.9898052215576
17.5481433868408
19.7416610717773
28.1342506408691
26.7990646362305
35.7638778686523
60.3694267272949
73.3397903442383
74.2934951782227
71.1462707519531
70.8601608276367
82.4953460693359
87.1684875488281
69.9064559936523
52.5490570068359
44.9194297790527
30.6138782501221
15.1638841629028
20.1231422424316
32.04443359375
26.3222141265869
14.4962921142578
10.5861072540283
7.91573810577393
12.6842555999756
22.9842510223389
30.4231376647949
41.1046180725098
44.9194297790527
41.3907279968262
45.1101722717285
46.0638732910156
43.5842437744141
43.8703575134277
39.9601707458496
39.197208404541
45.7777633666992
45.300910949707
44.1564674377441
42.3444290161133
33.3796195983887
40.4370231628418
49.2110939025879
35.0009155273438
21.5536975860596
12.7796258926392
0.858333051204681
-4.95925760269165
-11.0629596710205
-20.0277709960938
-16.4036979675293
2.09814739227295
20.7907333374023
26.6083240509033
27.4666576385498
31.1861019134521
34.0472106933594
40.0555419921875
50.832389831543
57.6036834716797
56.1731300354004
54.8379440307617
58.7481307983398
71.2416458129883
76.1055297851563
54.0749816894531
37.9573936462402
45.8731346130371
49.0203552246094
49.4972076416016
50.1647987365723
36.6222114562988
34.810173034668
41.0092468261719
21.6490669250488
27.657398223877
133.995330810547
314.340637207031
485.816497802734
628.204406738281
751.899780273438
842.787719726563
916.69970703125
983.745056152344
984.794128417969
888.8515625
739.024780273438
558.488708496094
354.682281494141
153.069396972656
-28.3249912261963
-172.811050415039
-257.976776123047
-318.34619140625
-392.830444335938
-432.123016357422
-434.316528320313
-452.722991943359
-488.010040283203
-529.686889648438
-560.0146484375
-580.233154296875
-602.8359375
-606.650756835938
-586.146118164063
-554.483154296875
-516.811889648438
-470.080413818359
-429.929504394531
-421.155426025391
-424.111907958984
-416.291534423828
-400.364685058594
-375.568389892578
-348.483215332031
-315.961944580078
-272.186950683594
-237.090667724609
-216.299926757813
-206.286041259766
-201.231414794922
-187.688827514648
-175.386047363281
-172.238830566406
-173.860122680664
-165.944396972656
-131.992553710938
-101.664779663086
-96.9916381835938
-97.9453353881836
-96.3240432739258
-86.5009002685547
-74.198127746582
-78.4897918701172
-73.5305328369141
-49.5925750732422
-41.5814666748047
-34.0472106933594
-2.28888821601868
26.8944358825684
34.2379531860352
35.1916542053223
44.5379486083984
46.3499870300293
44.5379486083984
52.2629470825195
54.9333152770996
57.0314636230469
75.7240524291992
96.0379333496094
96.0379333496094
93.7490463256836
100.52033996582
104.049041748047
107.196258544922
108.531448364258
108.436073303223
114.444404602051
121.597183227539
122.93236541748
120.643478393555
118.640701293945
116.256446838379
120.452735900879
134.66291809082
143.627731323242
128.845321655273
94.3212661743164
73.2444229125977
84.3073806762695
107.482376098633
112.25089263916
100.234230041504
98.6129302978516
114.730522155762
127.319404602051
118.44995880127
105.384223937988
94.702751159668
82.6860809326172
90.220344543457
108.531448364258
116.161071777344
122.169403076172
128.177734375
126.07958984375
111.1064453125
97.0870056152344
90.220344543457
88.3129348754883
100.329597473145
112.823112487793
112.537002563477
108.149963378906
104.430519104004
100.711082458496
97.849967956543
94.1305236816406
88.8851547241211
90.0296020507813
100.615707397461
109.485153198242
113.967559814453
120.071258544922
126.365699768066
132.850875854492
141.624954223633
143.627731323242
139.622177124023
140.099029541016
143.627731323242
144.104583740234
141.911071777344
140.671249389648
140.480514526367
140.480514526367
140.671249389648
145.344390869141
146.202728271484
135.616622924805
129.799026489258
126.842552185059
121.406440734863
130.085144042969
134.949035644531
118.640701293945
106.814781188965
109.580520629883
108.245338439941
96.13330078125
87.7407150268555
84.9749755859375
76.296272277832
73.0536804199219
73.2444229125977
61.99072265625
59.0342407226563
58.3666496276855
39.5786895751953
23.2703628540039
7.34351634979248
-13.9240694046021
-15.2592544555664
-7.6296272277832
-16.1175880432129
-26.0361022949219
-27.4666576385498
-35.0962867736816
-53.0259094238281
-69.0481262207031
-72.9583129882813
-71.7184982299805
-78.2990493774414
-83.7351608276367
-84.4981231689453
-88.4083023071289
-96.2286758422852
-109.389778137207
-112.727745056152
-104.62126159668
-102.713859558105
-105.384223937988
-108.531448364258
-113.776817321777
-116.637924194336
-111.487930297852
-108.722190856934
-115.016632080078
-117.49626159668
-114.635147094727
-105.956443786621
-99.6620025634766
-103.572189331055
-104.335151672363
-98.4221878051758
-93.6536712646484
-99.6620025634766
-103.476821899414
-94.9888610839844
-96.6101531982422
-106.528671264648
-105.670333862305
-94.6073760986328
-91.7462692260742
-96.13330078125
-96.800895690918
-103.095336914063
-103.381446838379
-94.8934860229492
-91.5555267333984
-91.0786743164063
-96.9916381835938
-105.384223937988
-103.953666687012
-90.0296020507813
-79.6342315673828
-77.345344543457
-68.7620162963867
-65.4240493774414
-70.3833084106445
-69.2388687133789
-68.8573837280273
-76.296272277832
-80.3971939086914
-86.0240478515625
-98.4221878051758
-103.476821899414
-111.869407653809
-108.340705871582
-80.5879364013672
-72.6721954345703
-83.4490509033203
-86.7870101928711
-81.2555313110352
-64.8518295288086
-48.5435028076172
-47.2083168029785
-58.1759071350098
-53.0259094238281
-35.1916542053223
-37.3851737976074
-42.7259140014648
-39.1018409729004
-46.4453544616699
-48.4481315612793
-34.0472106933594
-30.70924949646
-41.962947845459
-50.9277610778809
-52.0722045898438
-55.7916488647461
-65.4240493774414
-66.1870193481445
-64.1842422485352
-65.4240493774414
-59.7972030639648
-58.7481307983398
-63.2305335998535
-53.121280670166
-48.734245300293
-54.8379440307617
-40.4370231628418
-26.8944358825684
-26.1314735412598
-22.6027698516846
-27.657398223877
-28.5157318115234
-19.1694374084473
-14.4009208679199
-6.86666440963745
-2.38425850868225
-6.96203470230103
-5.81759071350098
-2.1935179233551
-9.25092315673828
-22.5074005126953
-27.8481388092041
-24.9870281219482
-12.1120328903198
11.1583299636841
19.074068069458
11.1583299636841
7.34351634979248
10.9675893783569
16.6898097991943
17.738883972168
24.5101776123047
32.3305435180664
23.9379558563232
14.5916624069214
15.4499950408936
18.4064750671387
20.5999927520752
18.4064750671387
19.1694374084473
30.0416564941406
35.6685066223145
38.6249885559082
37.099063873291
32.2351760864258
47.3036880493164
62.7536849975586
56.7453536987305
47.3036880493164
45.4916534423828
46.9222068786621
47.6851692199707
45.2055397033691
46.6360969543457
48.4481315612793
39.4833221435547
34.4286918640137
40.913875579834
44.1564674377441
50.9277610778809
58.9388694763184
56.7453536987305
54.0749816894531
50.2601699829102
47.4944305419922
39.6740608215332
22.6027698516846
29.1833248138428
43.9657249450684
37.3851737976074
41.5814666748047
49.3064651489258
40.8185043334961
38.0527648925781
36.3360977172852
37.3851737976074
59.6064605712891
75.0564575195313
67.9990539550781
66.3777542114258
71.8138656616211
68.8573837280273
52.8351669311523
33.5703582763672
30.5185089111328
27.8481388092041
26.3222141265869
39.864803314209
42.2490615844727
38.6249885559082
42.630542755127
40.1509132385254
36.5268402099609
40.913875579834
42.4398002624512
29.0879535675049
14.1148099899292
13.256477355957
20.2185115814209
19.8370304107666
10.204626083374
7.15277528762817
17.738883972168
29.5648059844971
41.1046180725098
51.1185035705566
47.7805404663086
42.4398002624512
37.6712837219238
28.5157318115234
27.4666576385498
30.995361328125
28.6111011505127
17.4527721405029
3.5287024974823
5.05462789535522
12.2074031829834
-1.52592539787292
-14.5916624069214
-8.77407169342041
-6.86666440963745
-0.667592406272888
10.9675893783569
3.91018390655518
-6.00833129882813
-1.43055510520935
1.81203651428223
0.9537034034729
9.25092315673828
17.1666603088379
21.5536975860596
25.5592517852783
5.34073925018311
-23.2703628540039
-35.4777679443359
-49.2110939025879
-42.3444290161133
-14.7824029922485
-13.3518476486206
-25.5592517852783
-31.7583236694336
-36.1453590393066
-33.0935096740723
-21.7444381713867
49.1157264709473
226.4091796875
426.305419921875
576.7998046875
700.113647460938
796.533081054688
875.022888183594
951.033020019531
968.295043945313
887.802490234375
753.521057128906
597.781311035156
403.321166992188
187.021240234375
2.28888821601868
-135.521255493164
-232.89436340332
-298.509155273438
-364.696166992188
-432.504486083984
-469.031341552734
-485.244293212891
-511.757232666016
-551.431274414063
-591.963684082031
-615.520202636719
-625.534057617188
-634.022033691406
-621.814636230469
-575.083129882813
-521.580383300781
-490.298919677734
-474.753540039063
-463.309112548828
-460.924865722656
-457.014678955078
-446.047088623047
-433.553558349609
-402.176727294922
-351.916564941406
-311.956390380859
-284.680450439453
-247.962890625
-217.348999023438
-211.53141784668
-209.52864074707
-202.089752197266
-191.503646850586
-171.189758300781
-139.049957275391
-106.528671264648
-89.9342269897461
-82.0184936523438
-72.1953506469727
-60.8462753295898
-57.8897972106934
-67.5222015380859
-60.7509078979492
-41.0092468261719
-33.4749908447266
-27.8481388092041
-18.6925868988037
-2.09814739227295
24.7009181976318
44.251838684082
54.8379440307617
67.3314590454102
78.9666442871094
83.1629333496094
91.7462692260742
102.237007141113
101.283302307129
104.62126159668
110.057373046875
102.427742004395
103.858299255371
111.011077880859
104.239784240723
107.100891113281
112.346260070801
107.005523681641
111.774040222168
123.695327758789
140.099029541016
153.069396972656
155.930511474609
164.990692138672
166.325866699219
148.491622924805
131.229583740234
127.700881958008
124.267555236816
114.062927246094
115.016632080078
113.109222412109
104.716636657715
103.667556762695
102.809226989746
109.00830078125
112.727745056152
100.901817321777
85.1657104492188
76.7731246948242
81.16015625
86.7870101928711
84.7842330932617
86.1194152832031
90.7925643920898
88.8851547241211
84.8796005249023
86.5009002685547
93.2721939086914
91.5555267333984
83.2583084106445
94.1305236816406
111.297187805176
114.444404602051
122.741630554199
136.188842773438
140.003662109375
141.529586791992
148.586990356445
143.818466186523
127.414772033691
127.986999511719
136.76106262207
148.110137939453
162.892547607422
166.325866699219
168.042541503906
172.429580688477
170.903656005859
161.461990356445
156.216613769531
160.889770507813
166.039764404297
168.71012878418
170.9990234375
175.386047363281
179.010131835938
173.764755249023
160.031433105469
153.355499267578
159.649948120117
156.02587890625
147.251800537109
145.058288574219
140.671249389648
133.613845825195
119.117553710938
110.248115539551
117.49626159668
115.684219360352
104.049041748047
94.7981185913086
81.4462738037109
69.5249786376953
57.6990547180176
45.6823921203613
43.4888763427734
42.1536903381348
31.4722118377686
21.3629570007324
19.360179901123
14.8777732849121
6.1037015914917
3.33796191215515
5.24536848068237
6.58055353164673
6.48518323898315
3.05185079574585
-4.67314672470093
-13.3518476486206
-27.4666576385498
-54.4564628601074
-66.2823867797852
-61.99072265625
-66.9499816894531
-68.2851638793945
-63.9934997558594
-65.2333145141602
-70.7647933959961
-73.1490478515625
-74.8657150268555
-79.8249740600586
-72.6721954345703
-72.4814605712891
-90.9833068847656
-94.5120086669922
-89.0758972167969
-102.332374572754
-117.686996459961
-123.027740478516
-139.908294677734
-147.251800537109
-139.145324707031
-144.676803588867
-141.434219360352
-133.232360839844
-145.821243286133
-154.690689086914
-149.826797485352
-151.63883972168
-162.987915039063
-171.094390869141
-164.895324707031
-147.824020385742
-134.281433105469
-125.698104858398
-117.210144042969
-120.643478393555
-137.524032592773
-145.2490234375
-143.055511474609
-140.766616821289
-142.197174072266
-154.023101806641
-160.22216796875
-153.450881958008
-149.445327758789
-145.821243286133
-133.041625976563
-118.44995880127
-114.25366973877
-109.771263122559
-97.6592254638672
-88.1221923828125
-77.9175643920898
-65.9009017944336
-60.5601654052734
-57.3175735473633
-53.7888717651367
-59.0342407226563
-62.8490524291992
-59.3203506469727
-62.7536849975586
-71.0509033203125
-74.0073852539063
-72.2907180786133
-68.9527587890625
-57.1268348693848
-56.6499824523926
-69.8110885620117
-67.9990539550781
-67.0453491210938
-69.0481262207031
-69.1434936523438
-78.2990493774414
-72.2907180786133
-58.4620170593262
-54.7425765991211
-49.2110939025879
-59.2249794006348
-73.8166427612305
-59.9879455566406
-46.1592445373535
-49.0203552246094
-55.6009063720703
-67.3314590454102
-69.7157211303711
-65.137939453125
-69.5249786376953
-62.5629425048828
-44.5379486083984
-37.3851737976074
-27.8481388092041
-19.1694374084473
-20.5999927520752
-19.4555492401123
-26.6083240509033
-36.6222114562988
-36.9083213806152
-34.810173034668
-23.6518440246582
-16.6898097991943
-20.6953639984131
-12.588885307312
-4.67314672470093
-7.15277528762817
-0.47685170173645
5.7222204208374
0.667592406272888
-3.71944332122803
0.667592406272888
6.48518323898315
9.25092315673828
14.4009208679199
21.0768451690674
28.0388793945313
27.943510055542
29.8509159088135
39.6740608215332
32.6166572570801
23.9379558563232
36.5268402099609
48.066650390625
48.1620216369629
45.3962821960449
42.8212814331055
35.9546165466309
28.9925842285156
31.4722118377686
36.6222114562988
44.7286911010742
58.7481307983398
68.0944213867188
62.4675712585449
61.323127746582
71.1462707519531
66.9499816894531
51.1185035705566
40.913875579834
35.1916542053223
36.2407302856445
44.4425773620605
56.4592399597168
72.0999755859375
81.6370086669922
81.9231185913086
81.6370086669922
78.4897918701172
71.3370132446289
63.8981285095215
59.4157218933105
65.0425720214844
72.1953506469727
67.3314590454102
55.9823913574219
44.1564674377441
38.9110984802246
42.630542755127
46.6360969543457
48.066650390625
48.1620216369629
52.2629470825195
60.0833129882813
57.2222023010254
48.4481315612793
55.5055389404297
71.5277557373047
77.8221969604492
66.6638641357422
44.6333198547363
43.2027626037598
57.3175735473633
55.0286865234375
49.9740562438965
59.9879455566406
64.3749771118164
63.3259048461914
66.5684967041016
52.3583183288574
34.7148017883301
35.2870254516602
31.2814712524414
26.226842880249
29.1833248138428
16.9759197235107
3.33796191215515
14.8777732849121
33.8564720153809
42.630542755127
42.5351715087891
32.7120246887207
30.995361328125
44.3472061157227
38.9110984802246
17.2620315551758
17.8342533111572
20.9814739227295
6.58055353164673
-2.95648050308228
-1.52592539787292
4.86388731002808
7.72499752044678
0
-3.91018390655518
2.38425850868225
5.1499981880188
-1.62129580974579
-4.7685170173645
0.762962698936462
8.20184898376465
14.3055505752563
10.0138854980469
2.95648050308228
11.8259220123291
25.3685111999512
25.2731399536133
12.588885307312
-2.8611102104187
-10.1092557907104
-6.77129411697388
-4.86388731002808
-15.0685138702393
-28.8972129821777
-32.8073959350586
-30.2323970794678
-22.0305480957031
-8.86944198608398
-3.24259161949158
0.47685170173645
8.96481227874756
9.06018257141113
19.8370304107666
111.583297729492
294.503601074219
478.663726806641
618.476623535156
717.661804199219
795.484008789063
874.927490234375
899.723815917969
853.755310058594
768.303466796875
619.525756835938
433.172088623047
243.766586303711
38.8157272338867
-133.041625976563
-230.986968994141
-287.350830078125
-322.54248046875
-353.919342041016
-396.073028564453
-426.305419921875
-440.134124755859
-468.649841308594
-515.381286621094
-553.052612304688
-580.614624023438
-600.260925292969
-592.822021484375
-567.930358886719
-539.223876953125
-496.021148681641
-454.630401611328
-429.071166992188
-413.430419921875
-415.623931884766
-430.692443847656
-435.842437744141
-425.637817382813
-400.555419921875
-357.066558837891
-317.297119140625
-291.547119140625
-258.167510986328
-235.850845336914
-248.344360351563
-257.309173583984
-236.041595458984
-209.910110473633
-183.301788330078
-146.202728271484
-108.531448364258
-74.8657150268555
-56.2685012817383
-56.6499824523926
-58.4620170593262
-59.0342407226563
-52.1675758361816
-43.1073951721191
-40.1509132385254
-20.5999927520752
2.67036962509155
15.2592544555664
29.9462871551514
33.3796195983887
34.9055442810059
46.9222068786621
57.3175735473633
68.2851638793945
69.8110885620117
65.7101669311523
73.6259002685547
84.1166381835938
92.8907089233398
100.997192382813
100.806449890137
103.953666687012
119.880516052246
128.273101806641
128.082366943359
133.423110961914
134.949035644531
131.134216308594
127.796257019043
127.414772033691
142.483291625977
153.450881958008
149.445327758789
154.881439208984
154.690689086914
142.197174072266
139.145324707031
137.714767456055
129.989776611328
127.414772033691
135.425888061523
140.003662109375
135.807357788086
141.624954223633
148.491622924805
131.134216308594
107.387001037598
103.476821899414
107.95922088623
111.583297729492
105.288856506348
94.3212661743164
106.910148620605
124.458290100098
120.166625976563
115.779594421387
106.337928771973
79.729606628418
62.7536849975586
63.8981285095215
74.2934951782227
84.3073806762695
83.7351608276367
78.8712692260742
84.9749755859375
97.2777481079102
101.569412231445
102.61848449707
102.809226989746
100.138854980469
105.76570892334
122.741630554199
136.570327758789
142.960144042969
150.589767456055
149.063842773438
140.861999511719
145.344390869141
152.306427001953
151.63883972168
153.83235168457
163.560134887695
176.053649902344
186.639755249023
191.503646850586
187.021240234375
171.475875854492
155.072174072266
146.202728271484
144.104583740234
149.826797485352
157.837905883789
160.41291809082
155.358276367188
153.641616821289
156.693466186523
143.055511474609
113.586074829102
93.0814514160156
85.5471954345703
75.1518249511719
54.7425765991211
37.099063873291
30.6138782501221
32.1398048400879
27.3712882995605
11.1583299636841
-1.04907369613647
-11.5398111343384
-24.2240657806396
-26.7036952972412
-30.5185089111328
-34.5240631103516
-33.4749908447266
-40.7231369018555
-45.0148010253906
-45.1101722717285
-56.8407211303711
-70.2879409790039
-77.5360870361328
-90.1249694824219
-109.199035644531
-112.25089263916
-102.904594421387
-101.760154724121
-99.948112487793
-93.6536712646484
-97.2777481079102
-102.52311706543
-101.855522155762
-106.719413757324
-113.299964904785
-118.44995880127
-126.174957275391
-134.376815795898
-139.240692138672
-136.188842773438
-133.232360839844
-131.706436157227
-123.695327758789
-114.635147094727
-116.065704345703
-127.605514526367
-137.142547607422
-136.284210205078
-128.082366943359
-127.700881958008
-138.76383972168
-145.725875854492
-143.436996459961
-141.720321655273
-144.104583740234
-136.856430053711
-129.512924194336
-135.235137939453
-137.714767456055
-126.461067199707
-117.400886535645
-119.308296203613
-120.071258544922
-121.883293151855
-126.651809692383
-122.074035644531
-113.872184753418
-109.96199798584
-109.294410705566
-105.956443786621
-99.5666351318359
-94.03515625
-90.5064544677734
-85.8333053588867
-77.9175643920898
-82.5907135009766
-95.751823425293
-94.8934860229492
-90.6971969604492
-90.7925643920898
-79.8249740600586
-64.756462097168
-64.8518295288086
-65.2333145141602
-70.0971984863281
-86.3101577758789
-72.0046081542969
-49.6879463195801
-67.4268264770508
-80.3018264770508
-71.8138656616211
-68.2851638793945
-60.9416465759277
-52.1675758361816
-45.1101722717285
-37.2898025512695
-35.7638778686523
-39.197208404541
-46.8268356323242
-50.5462799072266
-42.5351715087891
-37.099063873291
-37.4805450439453
-28.8018417358398
-19.1694374084473
-18.4064750671387
-18.1203651428223
-14.9731435775757
-20.7907333374023
-35.6685066223145
-37.7666549682617
-30.4231376647949
-24.5101776123047
-19.360179901123
-17.9296245574951
-16.4990692138672
-14.0194396972656
-9.537034034729
-2.95648050308228
5.43610954284668
19.074068069458
26.8944358825684
26.226842880249
30.1370277404785
34.6194343566895
37.5759124755859
43.7749862670898
46.9222068786621
47.2083168029785
44.9194297790527
36.0499877929688
29.3740653991699
24.1286964416504
21.6490669250488
33.8564720153809
46.9222068786621
47.3036880493164
44.1564674377441
39.5786895751953
32.6166572570801
24.1286964416504
18.8833274841309
29.1833248138428
38.5296173095703
35.9546165466309
39.1018409729004
37.2898025512695
27.5620288848877
32.3305435180664
45.7777633666992
48.9249839782715
48.4481315612793
53.9796104431152
56.5546112060547
59.5110931396484
64.2796096801758
60.3694267272949
56.5546112060547
62.7536849975586
76.5823822021484
86.4055252075195
81.0647888183594
72.0046081542969
71.1462707519531
75.5333099365234
79.06201171875
75.8194198608398
65.805534362793
59.1296119689941
59.1296119689941
61.2277565002441
68.6666412353516
74.9610900878906
72.4814605712891
64.4703521728516
50.832389831543
36.9083213806152
29.6601753234863
25.8453617095947
26.5129547119141
22.9842510223389
0.762962698936462
-9.25092315673828
4.38703584671021
8.10647869110107
11.5398111343384
27.1805477142334
42.7259140014648
48.1620216369629
45.3962821960449
49.783317565918
52.5490570068359
46.7314682006836
50.7370223999023
59.7972030639648
53.6935005187988
51.4999847412109
67.4268264770508
68.6666412353516
55.219425201416
53.5027618408203
52.1675758361816
42.7259140014648
34.7148017883301
32.9027671813965
43.7749862670898
54.3610954284668
50.1647987365723
45.3962821960449
45.6823921203613
44.0610961914063
41.0092468261719
33.3796195983887
19.1694374084473
0.9537034034729
-16.30832862854
-13.8286991119385
0.572222054004669
5.7222204208374
9.63240432739258
14.687032699585
25.6546211242676
36.5268402099609
25.177770614624
10.2999963760376
4.29166507720947
-7.82036781311035
-12.302773475647
-3.43333220481873
-7.72499752044678
-18.8833274841309
-18.787956237793
-16.022216796875
-14.4962921142578
-13.256477355957
1.43055510520935
66.2823867797852
222.785110473633
424.302642822266
583.761840820313
701.0673828125
790.143249511719
866.630249023438
928.048767089844
908.497863769531
811.792358398438
672.360900878906
485.816497802734
276.764739990234
70.0018310546875
-111.1064453125
-240.714736938477
-320.158233642578
-358.973968505859
-387.203582763672
-427.163757324219
-452.722991943359
-459.208190917969
-476.47021484375
-513.187805175781
-559.251647949219
-596.350708007813
-613.231262207031
-613.994262695313
-602.359069824219
-582.617431640625
-548.570190429688
-507.084106445313
-475.516510009766
-440.515594482422
-417.531341552734
-427.068389892578
-425.828552246094
-388.252655029297
-341.330444335938
-299.653594970703
-260.933258056641
-227.267517089844
-207.907333374023
-201.803634643555
-189.119384765625
-169.282348632813
-154.499954223633
-149.731430053711
-144.009216308594
-125.888847351074
-103.858299255371
-75.3425674438477
-46.5407257080078
-33.0935096740723
-18.8833274841309
0.47685170173645
6.77129411697388
11.8259220123291
22.8888816833496
29.1833248138428
28.4203605651855
30.5185089111328
39.864803314209
40.2462844848633
38.2435073852539
44.4425773620605
43.2027626037598
40.3416519165039
40.5323944091797
36.8129501342773
43.679615020752
61.1323890686035
69.5249786376953
67.6175689697266
66.5684967041016
67.8083114624023
68.9527587890625
70.2879409790039
71.3370132446289
74.4842376708984
81.3508987426758
92.7953414916992
96.13330078125
90.220344543457
100.329597473145
114.825889587402
119.975891113281
125.698104858398
117.877738952637
101.950889587402
100.615707397461
106.433296203613
104.907371520996
91.8416366577148
79.8249740600586
80.8740463256836
87.4546051025391
86.7870101928711
76.296272277832
73.7212753295898
81.5416412353516
77.0592346191406
64.2796096801758
63.4212760925293
73.4351654052734
78.012939453125
79.1573791503906
83.925895690918
79.8249740600586
71.3370132446289
70.0018310546875
73.4351654052734
71.8138656616211
57.6990547180176
50.6416511535645
61.0370178222656
75.0564575195313
90.9833068847656
96.4194107055664
83.8305282592773
80.3971939086914
90.220344543457
83.925895690918
84.0212707519531
107.100891113281
110.534225463867
101.760154724121
120.73885345459
143.627731323242
140.766616821289
133.613845825195
141.624954223633
152.306427001953
152.497177124023
153.069396972656
160.22216796875
167.374938964844
175.862899780273
187.211975097656
195.604568481445
193.411056518555
179.868453979492
170.617538452148
169.091613769531
164.132354736328
157.170318603516
151.73420715332
148.205505371094
148.205505371094
142.578659057617
125.888847351074
121.406440734863
134.186065673828
129.608291625977
104.62126159668
90.4110794067383
87.2638626098633
82.3999710083008
79.2527542114258
71.1462707519531
61.323127746582
51.404613494873
35.2870254516602
24.5101776123047
19.360179901123
21.2675857543945
29.1833248138428
24.3194370269775
9.34629344940186
0.572222054004669
-5.34073925018311
-17.1666603088379
-27.3712882995605
-36.0499877929688
-55.3147964477539
-68.7620162963867
-59.7972030639648
-49.0203552246094
-52.0722045898438
-59.2249794006348
-63.9934997558594
-68.1897964477539
-75.6286773681641
-88.4083023071289
-99.4712677001953
-104.239784240723
-107.291633605957
-109.580520629883
-115.970336914063
-132.374038696289
-141.624954223633
-130.46662902832
-123.218475341797
-124.458290100098
-120.262001037598
-129.989776611328
-148.586990356445
-155.167541503906
-162.034210205078
-170.80827331543
-164.418472290039
-149.349945068359
-138.76383972168
-134.186065673828
-136.76106262207
-138.85920715332
-135.521255493164
-136.570327758789
-133.804580688477
-120.929588317871
-112.346260070801
-103.76293182373
-97.2777481079102
-104.049041748047
-117.019409179688
-127.319404602051
-128.463851928711
-126.174957275391
-128.749954223633
-131.706436157227
-130.657363891602
-134.186065673828
-143.055511474609
-140.671249389648
-135.902740478516
-129.703659057617
-107.387001037598
-90.220344543457
-84.3073806762695
-73.3397903442383
-62.0860900878906
-53.5027618408203
-50.0694274902344
-48.9249839782715
-49.0203552246094
-52.0722045898438
-47.7805404663086
-39.9601707458496
-43.1073951721191
-54.5518341064453
-53.8842430114746
-40.2462844848633
-35.9546165466309
-39.6740608215332
-40.8185043334961
-32.04443359375
-14.7824029922485
-12.6842555999756
-24.2240657806396
-29.7555465698242
-29.9462871551514
-31.0907306671143
-31.1861019134521
-27.5620288848877
-23.8425846099854
-18.0249938964844
-16.5944385528564
-26.8944358825684
-31.4722118377686
-23.8425846099854
-15.35462474823
-10.9675893783569
-11.8259220123291
-17.1666603088379
-24.1286964416504
-13.3518476486206
1.04907369613647
-12.588885307312
-21.0768451690674
1.14444410800934
14.4009208679199
1.81203651428223
-6.1037015914917
-3.33796191215515
0.47685170173645
11.5398111343384
11.9212923049927
-0.0953703373670578
-9.537034034729
-15.2592544555664
-6.58055353164673
-0.190740674734116
-2.09814739227295
4.38703584671021
11.4444408416748
13.8286991119385
16.30832862854
28.4203605651855
43.2027626037598
43.5842437744141
38.5296173095703
39.2925796508789
40.913875579834
34.1425819396973
37.099063873291
52.5490570068359
52.5490570068359
45.2055397033691
33.1888771057129
13.4472179412842
18.4064750671387
36.0499877929688
30.5185089111328
18.6925868988037
20.7907333374023
27.3712882995605
30.70924949646
40.3416519165039
53.8842430114746
53.8842430114746
45.2055397033691
39.197208404541
35.0009155273438
38.0527648925781
47.4944305419922
46.0638732910156
35.382396697998
34.7148017883301
42.0583190917969
56.5546112060547
72.4814605712891
68.4759063720703
56.1731300354004
49.6879463195801
50.2601699829102
61.4184989929199
65.4240493774414
58.2712783813477
52.9305381774902
53.4073905944824
54.0749816894531
45.0148010253906
42.0583190917969
50.9277610778809
51.1185035705566
49.8786888122559
47.6851692199707
32.04443359375
24.7962875366211
42.9166526794434
58.8434982299805
57.1268348693848
52.0722045898438
47.9712791442871
47.7805404663086
46.9222068786621
44.4425773620605
47.3036880493164
45.4916534423828
32.04443359375
20.8861045837402
28.8972129821777
44.5379486083984
41.2953567504883
30.8999900817871
29.9462871551514
26.5129547119141
17.6435127258301
10.5861072540283
5.1499981880188
3.05185079574585
2.09814739227295
-2.47962880134583
-6.48518323898315
-11.5398111343384
-14.4009208679199
-2.28888821601868
9.34629344940186
10.4907369613647
12.2074031829834
11.635181427002
4.67314672470093
-3.147221326828
-4.38703584671021
-4.48240613937378
-11.3490705490112
-14.7824029922485
-16.7851791381836
-19.4555492401123
-14.0194396972656
-8.20184898376465
-12.9703664779663
-25.7499923706055
-27.943510055542
-23.0796222686768
-22.125919342041
-2.76573991775513
19.4555492401123
23.2703628540039
26.7990646362305
27.0851764678955
21.4583263397217
18.1203651428223
13.9240694046021
5.81759071350098
-9.9185152053833
-22.8888816833496
-24.4148063659668
-17.4527721405029
-6.6759238243103
-2.1935179233551
-2.28888821601868
4.57777643203735
10.0138854980469
6.1037015914917
6.6759238243103
-2.28888821601868
-20.409252166748
-24.7962875366211
-24.6055469512939
-18.5018463134766
-3.62407302856445
0
-5.81759071350098
-9.537034034729
-17.738883972168
-31.4722118377686
-9.15555286407471
114.730522155762
311.861022949219
481.524841308594
602.454406738281
707.36181640625
800.347900390625
891.140441894531
971.632995605469
962.000610351563
834.109008789063
652.428466796875
452.246154785156
244.815658569336
53.8842430114746
-107.196258544922
-223.166595458984
-288.113800048828
-346.861938476563
-422.776702880859
-470.271148681641
-479.808166503906
-492.587799072266
-525.109069824219
-569.265563964844
-603.503540039063
-624.198852539063
-644.322021484375
-645.275695800781
-615.4248046875
-566.02294921875
-508.037811279297
-461.687805175781
-435.079498291016
-418.008209228516
-406.468383789063
-405.80078125
-407.040618896484
-396.359130859375
-365.840637207031
-321.398040771484
-282.963806152344
-249.202697753906
-226.50456237793
-219.256408691406
-209.814743041992
-201.803634643555
-194.746231079102
-184.064758300781
-167.756423950195
-143.818466186523
-126.461067199707
-113.967559814453
-96.3240432739258
-87.7407150268555
-81.7323837280273
-64.756462097168
-45.6823921203613
-26.6083240509033
-13.0657367706299
2.95648050308228
26.3222141265869
35.1916542053223
34.2379531860352
41.0092468261719
54.6472053527832
57.8897972106934
52.2629470825195
57.0314636230469
70.3833084106445
90.6018218994141
109.580520629883
117.114776611328
131.515701293945
147.919403076172
143.436996459961
135.998107910156
135.330505371094
126.270332336426
115.016632080078
113.20458984375
117.782371520996
117.877738952637
119.117553710938
131.897186279297
143.15087890625
141.815689086914
134.758285522461
136.474960327148
140.861999511719
125.793479919434
106.051818847656
104.144409179688
106.433296203613
105.288856506348
105.193481445313
106.337928771973
115.398109436035
127.319404602051
133.423110961914
128.082366943359
109.485153198242
97.9453353881836
94.6073760986328
90.7925643920898
103.190704345703
119.880516052246
109.580520629883
96.7055282592773
110.057373046875
118.545333862305
100.901817321777
78.394416809082
63.8981285095215
62.6583137512207
72.9583129882813
75.1518249511719
69.7157211303711
85.6425628662109
110.820335388184
110.057373046875
103.286079406738
111.297187805176
110.820335388184
99.0897827148438
100.52033996582
102.713859558105
100.234230041504
114.062927246094
137.524032592773
152.306427001953
151.829574584961
147.53791809082
152.783279418945
160.889770507813
167.279571533203
179.105499267578
187.498092651367
188.451797485352
195.604568481445
208.002716064453
212.580490112305
200.84992980957
181.299011230469
165.467544555664
153.069396972656
152.878662109375
153.450881958008
139.336059570313
124.172180175781
114.444404602051
107.291633605957
106.337928771973
102.52311706543
82.876823425293
63.1351661682129
60.8462753295898
72.0999755859375
86.9777526855469
89.1712646484375
70.9555358886719
51.5953521728516
40.1509132385254
29.278694152832
24.9870281219482
19.8370304107666
8.48795986175537
6.58055353164673
6.19907188415527
-0.762962698936462
-6.6759238243103
-21.1722145080566
-46.6360969543457
-49.0203552246094
-33.5703582763672
-38.4342460632324
-49.8786888122559
-58.3666496276855
-72.9583129882813
-76.1055297851563
-65.4240493774414
-63.4212760925293
-70.0018310546875
-72.2907180786133
-73.1490478515625
-77.0592346191406
-80.3018264770508
-74.9610900878906
-74.8657150268555
-91.269416809082
-101.37866973877
-95.3703384399414
-93.2721939086914
-105.670333862305
-122.169403076172
-125.507369995117
-116.637924194336
-112.537002563477
-115.588851928711
-114.730522155762
-113.299964904785
-113.586074829102
-108.626815795898
-101.855522155762
-108.436073303223
-129.608291625977
-136.284210205078
-132.56477355957
-135.998107910156
-129.417556762695
-133.899963378906
-154.023101806641
-148.777725219727
-131.420333862305
-127.700881958008
-123.790702819824
-126.174957275391
-134.376815795898
-117.49626159668
-96.2286758422852
-97.3731155395508
-99.2805252075195
-104.049041748047
-107.387001037598
-98.6129302978516
-89.6481170654297
-73.7212753295898
-67.7129440307617
-81.0647888183594
-79.1573791503906
-70.1925735473633
-71.8138656616211
-70.2879409790039
-75.4379425048828
-86.9777526855469
-81.9231185913086
-73.2444229125977
-81.827751159668
-89.0758972167969
-87.2638626098633
-87.9314498901367
-82.3046035766602
-75.7240524291992
-75.1518249511719
-73.7212753295898
-72.0046081542969
-68.8573837280273
-64.8518295288086
-70.0018310546875
-83.5444183349609
-92.1277465820313
-95.5610809326172
-98.7083053588867
-94.6073760986328
-92.1277465820313
-93.2721939086914
-86.2147903442383
-77.8221969604492
-73.0536804199219
-66.2823867797852
-58.5573883056641
-53.8842430114746
-48.8296127319336
-41.5814666748047
-28.5157318115234
-18.6925868988037
-21.4583263397217
-21.6490669250488
-18.5972156524658
-18.787956237793
-14.687032699585
-8.96481227874756
-10.3953666687012
-19.6462898254395
-27.0851764678955
-26.7990646362305
-27.2759170532227
-28.8972129821777
-20.0277709960938
-13.256477355957
-19.8370304107666
-20.2185115814209
-11.8259220123291
-7.34351634979248
3.05185079574585
18.5018463134766
17.9296245574951
14.9731435775757
26.226842880249
31.1861019134521
24.7962875366211
22.2212886810303
23.8425846099854
18.0249938964844
10.0138854980469
16.4990692138672
32.04443359375
35.9546165466309
26.4175834655762
27.5620288848877
30.5185089111328
21.4583263397217
26.0361022949219
40.4370231628418
45.8731346130371
43.1073951721191
42.2490615844727
43.3935050964355
39.4833221435547
43.8703575134277
50.832389831543
45.0148010253906
44.9194297790527
52.0722045898438
55.6962776184082
69.9064559936523
83.7351608276367
81.5416412353516
80.778678894043
79.2527542114258
70.6694183349609
62.1814613342285
58.7481307983398
58.652759552002
51.6907234191895
40.1509132385254
35.6685066223145
40.0555419921875
49.0203552246094
53.5981292724609
51.1185035705566
50.9277610778809
54.4564628601074
55.7916488647461
56.2685012817383
56.5546112060547
56.0777587890625
58.2712783813477
62.7536849975586
57.5083160400391
44.8240585327148
35.6685066223145
31.8536930084229
25.177770614624
17.8342533111572
25.8453617095947
42.4398002624512
49.9740562438965
44.5379486083984
37.0036926269531
42.0583190917969
44.3472061157227
36.0499877929688
38.0527648925781
56.0777587890625
72.9583129882813
65.9009017944336
41.2953567504883
30.6138782501221
35.2870254516602
42.1536903381348
46.9222068786621
46.9222068786621
48.2573928833008
47.8759117126465
42.2490615844727
41.1046180725098
38.2435073852539
35.5731353759766
43.2027626037598
47.5897979736328
46.0638732910156
47.1129493713379
54.8379440307617
66.6638641357422
73.4351654052734
65.805534362793
39.4833221435547
23.1749935150146
33.1888771057129
54.5518341064453
73.7212753295898
73.3397903442383
59.5110931396484
45.1101722717285
21.839807510376
2.1935179233551
-0.667592406272888
-6.96203470230103
-5.34073925018311
8.10647869110107
5.34073925018311
1.71666610240936
-1.33518481254578
-7.82036781311035
-3.24259161949158
-0.667592406272888
4.67314672470093
3.33796191215515
-14.0194396972656
-18.9786968231201
-19.2648086547852
-30.3277683258057
-33.9518394470215
-29.6601753234863
-35.6685066223145
-36.7175827026367
-13.3518476486206
0.9537034034729
-11.2537002563477
-11.1583299636841
2.09814739227295
-7.91573810577393
-24.4148063659668
-27.943510055542
-32.7120246887207
-35.7638778686523
-38.148136138916
-37.4805450439453
-29.7555465698242
-24.6055469512939
-15.5453653335571
-6.29444265365601
-10.2999963760376
-16.4990692138672
-15.6407356262207
-15.6407356262207
-22.5074005126953
-27.657398223877
-23.4611034393311
-22.2212886810303
-22.125919342041
-18.787956237793
-23.7472152709961
-28.3249912261963
-28.1342506408691
-28.6111011505127
-26.8944358825684
-15.2592544555664
-2.38425850868225
-2.95648050308228
-7.15277528762817
-22.9842510223389
-46.3499870300293
-52.1675758361816
-23.5564746856689
90.5064544677734
284.108245849609
459.208190917969
581.759094238281
698.96923828125
809.026611328125
894.383056640625
979.453369140625
999.671875
888.756225585938
713.274780273438
524.346130371094
316.820281982422
117.305519104004
-52.9305381774902
-194.078643798828
-288.781402587891
-356.589691162109
-431.646148681641
-479.712799072266
-488.486877441406
-506.702606201172
-543.229431152344
-579.756286621094
-612.277587890625
-636.597045898438
-655.575744628906
-662.060913085938
-630.970153808594
-583.952575683594
-552.575744628906
-516.144287109375
-475.039672851563
-451.292449951172
-441.660034179688
-435.842437744141
-431.073944091797
-416.005432128906
-381.195251464844
-335.703582763672
-283.536010742188
-236.709182739258
-218.111968994141
-217.730484008789
-214.487899780273
-197.511978149414
-175.767532348633
-169.473098754883
-161.175872802734
-135.902740478516
-109.389778137207
-92.6045989990234
-81.4462738037109
-62.4675712585449
-45.9685020446777
-49.9740562438965
-46.8268356323242
-31.2814712524414
-25.6546211242676
-16.4036979675293
-1.14444410800934
6.38981294631958
19.8370304107666
43.7749862670898
57.6036834716797
56.6499824523926
50.355541229248
47.4944305419922
57.2222023010254
72.5768280029297
78.7759017944336
84.4027481079102
96.2286758422852
101.474044799805
100.52033996582
101.474044799805
104.812004089355
112.25089263916
115.49348449707
112.727745056152
118.163848876953
130.085144042969
137.047180175781
139.908294677734
152.115692138672
168.137908935547
168.233276367188
161.175872802734
150.685134887695
137.428665161133
132.183288574219
125.125885009766
121.597183227539
126.07958984375
125.888847351074
128.940704345703
133.995330810547
125.030517578125
117.782371520996
121.311073303223
121.024963378906
109.580520629883
83.7351608276367
73.5305328369141
80.3971939086914
81.9231185913086
90.4110794067383
96.3240432739258
94.03515625
96.9916381835938
90.6018218994141
79.4434967041016
72.1953506469727
56.7453536987305
55.6962776184082
76.9638671875
92.2231216430664
96.8962631225586
96.2286758422852
94.416633605957
92.6999740600586
92.6999740600586
98.5175628662109
94.9888610839844
87.2638626098633
95.3703384399414
106.528671264648
117.877738952637
127.033294677734
117.59162902832
106.147186279297
113.776817321777
125.316627502441
124.267555236816
117.973114013672
117.019409179688
123.790702819824
130.180511474609
135.044403076172
149.349945068359
159.554580688477
154.499954223633
153.450881958008
159.268463134766
150.303649902344
136.188842773438
139.049957275391
142.864776611328
135.998107910156
121.883293151855
105.288856506348
99.3758926391602
96.4194107055664
86.9777526855469
81.4462738037109
78.012939453125
74.5796051025391
75.7240524291992
74.5796051025391
69.7157211303711
63.8027572631836
55.7916488647461
44.7286911010742
29.3740653991699
19.360179901123
11.1583299636841
-2.47962880134583
-3.147221326828
3.62407302856445
-2.00277709960938
-6.19907188415527
-7.53425693511963
-11.9212923049927
-13.0657367706299
-20.9814739227295
-27.657398223877
-31.5675830841064
-47.017578125
-47.9712791442871
-38.5296173095703
-46.3499870300293
-59.1296119689941
-68.3805313110352
-77.345344543457
-83.3536758422852
-87.6453399658203
-87.9314498901367
-77.5360870361328
-70.4786834716797
-70.3833084106445
-70.0971984863281
-81.6370086669922
-101.569412231445
-109.294410705566
-108.340705871582
-108.531448364258
-105.574966430664
-100.615707397461
-98.9944152832031
-99.8527450561523
-100.615707397461
-98.0407104492188
-98.6129302978516
-101.664779663086
-106.433296203613
-112.346260070801
-109.103668212891
-108.436073303223
-121.883293151855
-121.597183227539
-109.866630554199
-116.828666687012
-114.539779663086
-86.5009002685547
-75.9147872924805
-80.8740463256836
-76.0101623535156
-71.2416458129883
-69.8110885620117
-68.8573837280273
-72.5768280029297
-79.6342315673828
-79.5388641357422
-75.9147872924805
-87.7407150268555
-94.7981185913086
-78.4897918701172
-73.9120101928711
-93.8444137573242
-110.820335388184
-106.719413757324
-91.9370040893555
-85.2610855102539
-76.1055297851563
-68.1897964477539
-74.198127746582
-67.8083114624023
-53.4073905944824
-53.5981292724609
-49.0203552246094
-42.630542755127
-44.6333198547363
-42.2490615844727
-39.7694320678711
-40.4370231628418
-45.5870208740234
-50.1647987365723
-50.5462799072266
-57.6036834716797
-67.6175689697266
-63.9934997558594
-43.4888763427734
-34.7148017883301
-44.6333198547363
-39.4833221435547
-25.7499923706055
-22.7935104370117
-22.9842510223389
-29.8509159088135
-41.6768379211426
-43.3935050964355
-32.6166572570801
-23.1749935150146
-28.1342506408691
-41.1046180725098
-47.9712791442871
-45.9685020446777
-40.1509132385254
-36.0499877929688
-36.7175827026367
-34.2379531860352
-24.6055469512939
-22.9842510223389
-31.1861019134521
-39.4833221435547
-40.1509132385254
-29.4694347381592
-23.0796222686768
-22.7935104370117
-20.2185115814209
-18.5018463134766
-9.72777462005615
-2.09814739227295
-6.6759238243103
-5.1499981880188
6.38981294631958
16.2129573822021
19.5509204864502
17.738883972168
11.3490705490112
-0.572222054004669
-11.635181427002
-17.6435127258301
-18.0249938964844
-3.91018390655518
16.6898097991943
18.4064750671387
11.1583299636841
23.0796222686768
37.099063873291
26.226842880249
9.15555286407471
14.2101802825928
30.3277683258057
39.6740608215332
38.9110984802246
26.1314735412598
21.4583263397217
34.2379531860352
40.1509132385254
37.2898025512695
37.2898025512695
30.6138782501221
23.6518440246582
25.2731399536133
30.6138782501221
40.7231369018555
43.0120239257813
36.8129501342773
39.7694320678711
40.2462844848633
38.3388748168945
45.2055397033691
48.4481315612793
43.7749862670898
38.5296173095703
36.8129501342773
44.0610961914063
52.3583183288574
54.4564628601074
61.2277565002441
62.2768325805664
51.2138710021973
45.4916534423828
48.3527641296387
55.6009063720703
57.6036834716797
49.4018363952637
47.4944305419922
53.6935005187988
49.4972076416016
38.9110984802246
38.5296173095703
43.1073951721191
38.148136138916
33.9518394470215
40.2462844848633
41.2953567504883
40.3416519165039
42.7259140014648
37.8620262145996
34.2379531860352
38.8157272338867
43.9657249450684
44.6333198547363
45.6823921203613
51.3092422485352
47.1129493713379
30.995361328125
27.0851764678955
36.431468963623
37.3851737976074
33.6657295227051
27.3712882995605
19.5509204864502
25.8453617095947
32.3305435180664
28.8018417358398
22.8888816833496
15.35462474823
15.35462474823
24.2240657806396
25.6546211242676
15.5453653335571
12.2074031829834
20.1231422424316
23.1749935150146
21.5536975860596
21.5536975860596
17.357400894165
13.7333288192749
17.6435127258301
23.8425846099854
23.6518440246582
19.6462898254395
23.3657341003418
23.6518440246582
11.7305517196655
12.0166625976563
23.4611034393311
25.4638805389404
34.1425819396973
45.8731346130371
36.9083213806152
17.9296245574951
3.5287024974823
1.43055510520935
6.00833129882813
8.20184898376465
14.687032699585
15.4499950408936
2.38425850868225
-5.62685012817383
1.9074068069458
7.0574049949646
6.86666440963745
12.3981437683105
12.7796258926392
3.62407302856445
-3.05185079574585
-2.47962880134583
3.5287024974823
12.4935140609741
13.1611070632935
2.95648050308228
-7.91573810577393
-6.29444265365601
5.1499981880188
5.81759071350098
-1.81203651428223
-3.8148136138916
-2.47962880134583
1.04907369613647
7.72499752044678
7.82036781311035
-8.20184898376465
-31.6629524230957
-44.251838684082
-44.3472061157227
-46.4453544616699
-46.6360969543457
-42.4398002624512
-45.0148010253906
-39.9601707458496
-34.6194343566895
-40.913875579834
-37.3851737976074
-33.0935096740723
-25.3685111999512
-7.91573810577393
-12.4935140609741
-26.0361022949219
-28.2296199798584
-30.995361328125
-27.8481388092041
-22.125919342041
-7.34351634979248
66.854606628418
238.139739990234
436.700775146484
576.7998046875
682.851623535156
780.224731445313
860.526550292969
924.996948242188
930.909912109375
849.749755859375
708.220153808594
537.221130371094
355.635986328125
157.551803588867
-36.5268402099609
-181.775863647461
-275.52490234375
-334.082305908203
-384.342468261719
-437.177642822266
-465.502624511719
-484.86279296875
-514.618347167969
-541.894287109375
-575.655395507813
-604.457214355469
-613.135925292969
-607.795166015625
-578.421081542969
-536.172058105469
-499.168365478516
-468.840576171875
-447.382263183594
-432.313751220703
-428.403564453125
-429.166534423828
-413.525787353516
-389.301727294922
-383.960998535156
-369.464691162109
-323.591552734375
-286.015655517578
-261.696197509766
-238.044372558594
-220.305480957031
-211.817520141602
-208.861038208008
-197.607345581055
-184.541610717773
-175.767532348633
-158.028656005859
-126.07958984375
-93.1768188476563
-83.5444183349609
-93.0814514160156
-87.5499725341797
-59.9879455566406
-41.962947845459
-37.6712837219238
-22.7935104370117
-3.33796191215515
7.24814605712891
23.0796222686768
44.6333198547363
49.1157264709473
46.1592445373535
54.2657241821289
62.0860900878906
67.3314590454102
72.1953506469727
73.8166427612305
76.6777496337891
81.9231185913086
92.986083984375
106.242561340332
107.577743530273
95.5610809326172
85.7379379272461
91.6508941650391
101.569412231445
103.095336914063
110.915702819824
113.967559814453
96.9916381835938
95.2749710083008
111.392555236816
116.256446838379
124.458290100098
133.232360839844
123.695327758789
116.256446838379
110.915702819824
102.809226989746
104.62126159668
101.283302307129
93.367561340332
101.37866973877
110.724967956543
101.569412231445
82.0184936523438
69.9064559936523
67.7129440307617
74.5796051025391
84.1166381835938
90.3157119750977
100.806449890137
110.438850402832
110.724967956543
101.474044799805
89.3620071411133
94.8934860229492
107.768486022949
106.624038696289
98.6129302978516
87.8360824584961
76.7731246948242
