Value(μV)
27.1758401489823
194.821779510417
247.490011614648
217.886599373586
179.545253927351
178.689695827928
205.404466045587
222.764659874243
213.196551866153
192.330470086719
183.959804910335
191.806634857538
199.950948869976
195.772948288518
184.759547933622
181.04504809561
188.580294549164
196.932420607631
195.112000868319
184.691720223295
176.460674633843
176.518566450438
179.845206560899
178.266944694947
171.323247960724
166.126327159567
167.373621177276
170.985669146325
169.295528521263
160.627072816124
151.042780158057
146.623300769808
146.518493557477
145.231703714507
140.369004527078
135.510896578505
134.851440630352
137.064109040614
136.507852237455
130.103904525997
121.002682452707
114.576689632285
112.128586119681
110.216167638625
105.885233342584
100.602691636089
97.8473029957937
97.8586673076335
96.6664460084912
90.7540301709416
81.3513259607762
72.9383119343657
68.0366558176723
64.9122221163458
60.7305673582492
55.6194715219097
52.2323318373849
51.5999062697513
50.9873353650017
46.7590045829368
38.6413724540251
29.9595947186435
23.6452268665937
19.1465521234025
13.9603325208915
7.40678345818062
1.52642891285852
-1.98507318550735
-4.55399851295777
-9.35539127444133
-17.4236919103297
-26.218341586756
-32.471626575808
-35.6960889050954
-38.0451987640374
-41.0476474381657
-43.6826699803604
-44.263654054017
-43.4373291169351
-44.1122383515144
-48.1980754775794
-54.2688408666048
-59.1322809372962
-61.3256862418402
-62.225508787149
-63.6762455318825
-65.4998829081246
-66.1605136876627
-65.5074183523213
-65.719130048211
-68.9698355267267
-74.711460731685
-80.052903475674
-82.7876978904989
-83.3255880623169
-83.3490602115114
-83.2771285707213
-81.9812616551074
-78.997240771904
-76.0503919429949
-75.5974297516402
-78.0726853011394
-81.3277120456079
-83.002940839086
-82.8785880196479
-82.4100233120475
-82.364354550186
-81.8343448131808
-79.8854333776865
-77.4629081014209
-76.7849710655067
-78.7901079984918
-81.8601070793274
-83.4940009788208
-82.8793268237787
-81.2494468444579
-79.8482750627769
-78.3576664476053
-75.8380380319152
-72.7486671940059
-71.1092453708521
-72.3289029092981
-75.390890232234
-77.7515465814737
-77.9002686348869
-76.4773998741397
-74.7918442982889
-72.920966340253
-69.9447319342119
-65.8640531048183
-62.414518478379
-61.4226191111161
-62.6580167166532
-63.9300262870382
-63.3814389874568
-61.1829373089136
-58.688259582047
-56.404765136188
-53.5428993870076
-49.6456140302753
-45.9243529739756
-44.2718472651497
-45.0315832053852
-46.3606300172207
-46.0802179761297
-43.7798328620196
-40.6886685549353
-37.740617252729
-34.5036729431334
-30.3238591544661
-25.9663555335156
-23.3168472462504
-23.2929412194494
-24.5819540605062
-24.886197380033
-23.2086941398507
-20.4432233688611
-17.7661671128089
-15.1123966550171
-11.730179888925
-7.90592831620426
-5.31847533551175
-5.29659982811581
-7.10930910908549
-8.52165157006706
-8.02194557981968
-6.04248943079269
-3.85042235885343
-1.77225794459072
0.87119501178708
4.17228924936453
6.73767499586188
6.93657482379188
4.84549032148159
2.3880524036673
1.39689271536545
1.9385833978468
2.84179764694165
3.51030550986452
4.54469509517568
6.43914387310898
8.29103072333057
8.48540069345299
6.65206773773936
4.38496600420246
3.6958629810624
5.04194993449488
7.27590060820711
9.36699527649988
11.5240252321781
14.3018926444397
17.0782089590644
18.1860507891698
16.7695591230396
14.033473666642
12.1947240869368
12.331785511658
13.7031063170995
15.1790450262883
16.742246052261
19.0772410717868
21.9500032368336
23.7745730977676
23.1972060038938
20.7680752307986
18.5038294573984
17.7856277603568
18.1497145402791
18.3432099312321
18.0952355360912
18.2302677821453
19.0790418154011
19.4994887626333
18.0436840929334
14.8989647652522
12.0587530880566
11.3575612107816
12.7276012384607
14.7388234422955
16.5490983560239
18.6571833118592
21.5695258924406
24.3562168953555
25.261317466372
23.7716465436496
21.4906947657922
20.5777643086505
21.5985791898003
23.3661259714449
24.7712628556333
26.0937699941421
28.1189458078706
30.4136900771489
31.2920403579025
29.7392956718815
26.8595657763244
24.885376940283
24.87983599282
25.932652142827
26.7022925263679
27.146475707666
28.1644997647558
29.7708088872101
30.4541601011279
28.8123707542454
25.4433707017445
22.5733625030805
21.7512247393106
22.428173417771
23.0894617021011
23.3079887884718
23.9819424581173
25.5469102945844
26.7414277132099
25.8123318950838
22.7502328845804
19.6280630820465
18.4643689761516
19.2192821341607
20.3606184408804
21.1039273385279
22.3090675433885
24.9025986668228
28.0805864836768
29.9042726682693
29.7003030748979
29.1486436556172
30.5062319526581
34.1025219993321
38.216310308216
41.3762851747384
44.0190215344249
47.3785487762035
51.2329444109894
53.714565035471
53.6552603236163
52.4688615413356
52.9977588589353
56.6022674183692
62.0338723830519
67.3260148440357
72.0749333291944
77.1326153001475
82.3164563106565
85.4635068124625
84.3695340106941
79.2222245737214
72.3335484861777
65.4406345223321
58.0087409989081
48.6071031790679
37.3297598395058
25.882227944278
15.1970969150645
3.93185595573063
-9.83944549409837
-25.7421343575694
-40.8461899135919
-52.5983145797202
-61.3375409965141
-69.2630746790681
-77.3056759012764
-84.0345505958583
-87.9507171460619
-89.9644123858713
-92.6012759559869
-96.8543089663448
-100.710714247756
-101.087393486222
-96.4435777143988
-86.8774790797301
-72.5614678452805
-53.9313248011331
-34.0780106455985
-19.3718217149916
-15.429096262142
-21.8078253425639
-31.9674733824053
-39.6415379722453
-44.7570951877844
-52.0321948002557
-64.4415595666934
-80.4842117681115
-99.0407491757839
-124.484962633618
-162.846393939481
-211.547402951059
-256.021722343019
-280.313656940498
-280.569991885262
-263.390079885105
-227.886678820296
-153.217471604548
-12.0567186809322
199.213378302518
447.939937352894
690.910879106978
915.251639093898
1146.67507485695
1406.49576759211
1657.21647188859
1799.71032802571
1739.90069809577
1470.21097963036
1087.51702148681
724.869729192073
456.079470870822
257.784436989279
57.2356209384011
-186.340884976743
-443.676040457478
-647.626699728276
-754.339364333018
-773.569623477781
-749.056217429914
-719.66945176072
-700.717823515014
-693.203188934799
-698.658947197368
-719.49476601335
-748.950705296076
-768.46708162029
-759.45762615044
-717.887382148607
-656.746626375613
-595.296225381962
-546.867493843702
-515.196829426915
-498.05138764308
-490.840192666121
-487.11371273136
-479.070090170664
-460.751776102693
-431.493651704707
-395.548632208743
-358.161752960535
-322.564170326037
-290.637726139207
-264.841733228726
-247.48825648689
-237.587784881099
-229.575992043524
-216.618182098437
-195.734547982387
-169.57897221994
-143.338999502608
-120.385422723983
-100.915464890301
-83.7803060159706
-68.3468161346582
-54.3375534851847
-40.866825017222
-26.7566324830589
-11.9181078893493
2.28167538867169
14.4858455932579
24.9020728360906
34.9607478395196
45.5545085291975
56.1694387542163
65.9635137713736
75.2244226995242
85.168578454127
96.3129457455716
107.589970813767
117.410495097192
125.334805578933
132.2675927745
139.072427592202
145.524815096217
150.94047025034
155.496863647558
160.344345166883
166.268591286561
172.644671452094
178.073457910304
181.907395168428
184.758145906687
187.461245269322
189.967141358755
191.60957757321
192.280145744456
192.823886890782
194.056804616586
195.688925483397
196.590333824355
196.083791608776
194.634418657224
193.14490958468
191.886635455646
190.479128296159
188.830302148803
187.632911581832
187.641026711644
188.642951153466
189.510390963845
189.318069659779
188.14835061726
186.64416765924
185.020075069844
182.884761424458
180.050716563508
177.131431566854
175.008828213094
173.798734506755
172.662413041246
170.736346992946
168.012907636528
165.105306744231
162.310970109871
159.265576117844
155.612426167239
151.700871740172
148.281297162717
145.536682069189
142.727076279496
138.956670361564
134.117561863228
128.850480586515
123.661003818549
118.404653568949
112.791418032922
107.143568589351
102.283488202258
98.6087153721924
95.5423691203806
92.1061134847455
87.924389064224
83.4321701688387
79.1186059550554
74.8757847564886
70.3068202995953
65.5045973737128
61.1605366851279
57.7729801472795
54.966363403112
51.8322701246163
47.8859961105289
43.4461256873426
39.0243567589615
34.6065413237061
29.7929801068556
24.5553480050432
19.5047791981783
15.2185835080749
11.466869266992
7.37126719874401
2.34023435219504
-3.37491037923449
-9.15037308462217
-14.7973446229925
-20.624055398867
-26.7218231857976
-32.5158473337597
-37.2725339066826
-40.9543036379905
-44.3054815808231
-48.0273107939593
-52.0698310639828
-55.8894086582059
-59.2456538419244
-62.4410774134428
-65.7155730213363
-68.6861108053048
-70.6750100883085
-71.5585388519572
-72.0244578091664
-72.8657152901266
-74.1876094340613
-75.5062300717997
-76.5353574135489
-77.5723616551078
-78.9771781235133
-80.4968483427442
-81.4210694795561
-81.4374451322078
-81.0826173658998
-81.1735814997368
-81.9225584129989
-82.8422279606582
-83.5007318779775
-84.0818815757468
-85.0107073376214
-86.1970626280215
-86.986182617023
-86.9542836999072
-86.5197312431917
-86.5339531468799
-87.3379155933519
-88.469553350521
-89.3491075465258
-89.9900935524887
-90.7864111063152
-91.7038345354807
-92.0387779503978
-91.1627162756552
-89.3260172070937
-87.4553653603838
-86.162928202163
-85.2084485528533
-84.0569423982986
-82.7372701097205
-81.8332960625941
-81.6259108116211
-81.569045570106
-80.8616054040201
-79.413208433356
-77.941469341027
-77.0486998651524
-76.4571166596148
-75.3752200360868
-73.4893164410508
-71.2727483787671
-69.236560537227
-67.1676913640661
-64.4191183758204
-60.8997110092321
-57.4426794730265
-55.0113576529306
-53.7143580520654
-52.8532064680016
-51.8815187426691
-50.9900997411542
-50.5788047710162
-50.3928496809051
-49.5617133255776
-47.5658601832563
-44.8864046690826
-42.4671474454558
-40.6567106488773
-38.9686529819392
-36.9126245723296
-34.7485838735404
-33.1532921148009
-32.2693890822701
-31.4492345765687
-30.0791490554087
-28.4082357708153
-27.2666107284185
-27.0101464907736
-27.0514991171584
-26.5699397758406
-25.4501545743162
-24.2276617679462
-23.169664466263
-21.7847865871382
-19.4721434919059
-16.4652768203816
-13.7845069454517
-12.192600010393
-11.4615442422893
-10.8544397409223
-10.1360036873291
-9.75988505099482
-10.0214180838379
-10.3792495260962
-9.93548489097901
-8.4966012562955
-6.8165093631583
-5.66980409118734
-4.94275695980718
-3.90856767359656
-2.28576743610522
-0.647932477819445
0.360714888316267
0.926375677866154
1.82872772204575
3.34035890162311
4.7341278744245
5.10678686961509
4.48488829058879
3.77638904789566
3.63433421389639
3.7306151561063
3.38562937949625
2.6789039547009
2.50221384932781
3.42286683651856
4.85012119323267
5.65929696963684
5.52895256536342
5.28527225819168
5.82043341340917
7.00449565050447
7.99872321519861
8.50770106079241
9.25278731551215
10.986845554162
13.3378473567713
15.0483681699197
15.3689814907404
14.8418532934938
14.4961832375683
14.5450733233137
14.2936997240813
13.323298423755
12.2967634370465
12.2373354227237
13.1984592217825
14.1086933479901
14.0564680509251
13.3726889556735
13.1181548971695
13.6806105144807
14.3525028436634
14.4322182295567
14.329379964916
15.1241129727429
17.104768674269
19.2301863703139
20.2975268902879
20.3473677608325
20.4916438337021
21.4053219405446
22.4784747866468
22.7401639168907
22.2918276899425
22.2836031231107
23.4018240298621
24.8590609504044
25.2746328624138
24.3552295585089
23.2047232709639
22.8720343034553
23.057627155404
22.6754385611767
21.4846953982565
20.5605120735277
20.9129015219626
22.0670143619907
22.5351954409011
21.6353856202292
20.3045566403831
19.8467668347072
20.2709516646497
20.4123734795677
19.6493645351417
18.8764717103357
19.3660467337951
20.9917102923721
22.2116474074444
21.9275416894056
20.83337634338
20.4917467262628
21.3518055080275
22.3202478025524
22.4285113987207
22.3259676244876
23.5327115368206
26.384768326633
29.4167327215532
31.0838076185593
31.6197711494363
32.6008709915996
34.8015741228325
37.2043051938075
38.4936391555302
39.0171839525583
40.5123632639752
43.869856755772
47.9041085871377
50.8565743457403
52.7199470205609
55.2813626651662
59.7360099444151
64.9815069479571
68.8891097530232
70.9216538921286
72.6106505337384
75.1830979501891
77.4599569957477
76.9163345496999
72.6678002202348
66.5233312277087
60.6767665197692
54.9981467422685
47.4424022375736
36.9983346791532
25.2262235892367
14.2978113079683
4.15328636250499
-7.34163654829743
-21.3196325283112
-35.9808210807525
-48.4762083385063
-58.2086713615969
-67.1560638336603
-76.7165578224572
-85.3058876965694
-90.0998975024092
-90.7930035954627
-90.3174656101426
-91.2578881402638
-92.4439998452582
-90.2827938180511
-83.4067715828299
-74.8295091951463
-68.8235329261036
-66.3848899879416
-64.8413107178508
-61.751703994536
-57.8637517903061
-55.5012705386832
-54.9325709982407
-53.6598221869901
-49.2740217154061
-41.9167250773099
-33.9358200819142
-29.1698484265322
-34.3594952264061
-59.584316527451
-112.415864305986
-187.891438223495
-265.426506744047
-320.211528299493
-340.299916882068
-330.37328176993
-295.456979172561
-222.526505806437
-85.1488767957944
127.972548126297
391.117201374787
656.22143780271
894.773771254634
1121.15149327837
1364.13331246107
1609.35081826392
1775.7842240879
1763.75676153797
1539.29991408363
1175.13099326168
803.412722143657
519.102461849154
320.671679024482
138.066053483767
-85.7959110701981
-339.468568250154
-559.082517994565
-689.430515216891
-727.187158976378
-712.623397806293
-690.649600668002
-683.607175024445
-693.412832597321
-716.308372799859
-747.923822548628
-777.683168986806
-787.932020449832
-765.185295604624
-712.448643176214
-647.940891582731
-590.856444784487
-549.121439557462
-520.213530597686
-500.2867696816
-488.932733633488
-485.083229248861
-481.795773616645
-468.559761430937
-439.536536197668
-398.534446658125
-355.515673965829
-318.978267857528
-291.806419227819
-272.587300882295
-258.335998521184
-245.277610109439
-229.036537600325
-206.751529473367
-179.838299139842
-153.511619398488
-132.325038125339
-116.154082251499
-101.1449792412
-84.4742290755359
-67.2891707294385
-52.5913606290948
-41.0611990330624
-30.0891343446062
-16.9632462014795
-1.97631634209721
12.3481518557757
24.5828896598444
35.8922865437982
48.0265811686764
60.761117330462
72.207376798117
81.4253516668555
89.7484672203223
99.0741626026764
109.433503179264
119.022706453589
126.553893603241
132.777393054968
139.254907244265
146.147909376519
152.010739081046
155.827320544423
158.546775333858
162.076674973616
167.051176200339
172.239253846073
176.243803487187
179.18314870835
182.214106316795
185.695873244298
188.548339418491
189.672592917506
189.514414688641
189.671499194141
191.039634944139
192.88155052619
193.934235321939
194.005376157925
193.975388641167
194.33323826181
194.321698803786
192.88730278923
190.167167617867
187.505842540717
185.933099075509
185.045912405717
183.678104786027
181.401575964359
178.889824035182
176.769059707383
174.606516331615
171.456358839984
167.257059636661
163.204614647659
160.550364117271
159.314983624077
158.487892624286
157.341545291364
156.112652307367
155.251906727132
154.38639324291
152.485515057129
149.063857255182
144.838972314325
140.959813704315
137.775062418217
134.666250217211
131.042167259072
127.109804163831
123.436866569411
119.996532307699
116.069433484841
111.186426316156
105.861593216041
101.112461034402
97.3489536317847
94.0219305069455
90.4072825815437
86.4395336408215
82.5281256906968
78.7102194723416
74.3851450408215
69.0599352843928
63.1351354918238
57.6600934646969
53.3149589754825
49.8635157682808
46.678415411426
43.5539953740158
40.730388958589
38.1933213407084
35.315721017049
31.4270885560564
26.6062288245265
21.6443541426148
17.18989414397
13.1396066652599
8.98810643395424
4.58273788663103
0.247671060427384
-3.84158047974409
-8.10028390747838
-13.1018715629697
-18.7847530049888
-24.3502849946212
-29.0363261060927
-32.8234547909568
-36.234891583119
-39.5759777208262
-42.6470755092452
-45.2621993496259
-47.7838046963243
-50.8567135969263
-54.6220461418516
-58.4337610042294
-61.483695697025
-63.5794359050291
-65.14713199013
-66.5579745313145
-67.7257209709275
-68.4819666321158
-69.1331047346198
-70.3396281862245
-72.3879397787699
-74.7872827305594
-76.7477398973517
-77.9693070877238
-78.7890703801106
-79.5909651975131
-80.3273664147641
-80.7834231234866
-81.1555678020007
-82.0612567328207
-83.8669030606577
-86.1766921921535
-88.1697824260064
-89.3967035613259
-90.0717824012931
-90.5804355386298
-90.937823271281
-90.9346863348848
-90.7131070860584
-90.8897526705479
-91.9442487611849
-93.6123721783839
-95.0816039372977
-95.7779556638074
-95.7870760708757
-95.4557783465797
-94.7958061702298
-93.5258850952357
-91.6691667252422
-89.8232271474003
-88.6316670340513
-88.0705775544005
-87.4629138008641
-86.2265562475131
-84.4346152305561
-82.539444622302
-80.7128651292042
-78.7189894960279
-76.4610198201175
-74.3896249954666
-73.1235075611291
-72.7027688882978
-72.4351766190745
-71.5653208308153
-69.9520430961337
-67.9590011750862
-65.809336027147
-63.3282167508195
-60.4093797867379
-57.5044285509052
-55.3618193213576
-54.249135575673
-53.6281495023544
-52.7133531389181
-51.2270670860973
-49.4432253699175
-47.5718839694638
-45.3899809603768
-42.6358930587113
-39.5946388316438
-36.9945896706069
-35.2470674793695
-33.9714653110046
-32.4232389207835
-30.290938107971
-27.874854669587
-25.5034203386016
-23.0506142839643
-20.23764634443
-17.2847396292066
-14.9467325155757
-13.7655828923452
-13.4494379113767
-13.1841306265534
-12.5019269817391
-11.6275120321382
-10.9310754934593
-10.3001577713255
-9.31740316420115
-7.9998277176492
-7.04283931149619
-7.13405623669848
-8.15146019881132
-9.26568472393917
-9.82562881780936
-9.91429394443011
-9.92921075522062
-9.84277463660646
-9.19400960517024
-7.82821632221552
-6.33514541635697
-5.49619736790683
-5.38112118680328
-5.25253786843956
-4.41835427999802
-2.94844041125457
-1.37205944035782
0.161776236794452
2.07236647465417
4.60453726284481
7.18684954060839
8.85327658908853
9.28932456998673
9.18522086422063
9.42576789124122
10.1354416138196
10.7650291072858
11.0205934117361
11.3310123423373
12.2005139452513
13.3338395844576
13.7820655823999
13.0226094908533
11.6170954148619
10.5935583591834
10.3391407649287
10.4024854308257
10.3751977014754
10.5869759489608
11.6313172437872
13.3656160123998
14.8062788885717
15.1833346190831
14.8446439864649
14.8290708316974
15.6390544942484
16.7829660439892
17.627001792081
18.3474354649609
19.6462685986145
21.5850977586645
23.1490563255101
23.2517101397037
21.9772110908421
20.4727792106879
19.6137735037022
19.1426103178791
18.3383406142912
17.2402823157609
16.7227817808537
17.2817382179215
18.1745083076938
18.1531924369418
16.9340565350107
15.5285390452344
15.0100530170796
15.3194924085726
15.6311778884753
15.7038610976282
16.3212080945711
18.1673355295713
20.645278564212
22.31143322289
22.4819621028811
21.9634340806102
21.9504224528276
22.5276204750719
22.7345607000379
22.0634229853047
21.3212566404031
21.6163300059203
22.77309750633
23.34145560712
22.316592333261
20.3901351388119
19.092745559299
18.9275215774404
18.9290818203857
18.1999849704668
17.3290925397715
17.7233674016725
19.6814716730228
21.8024010110514
22.6361223095125
22.5013550877755
23.0852842430513
25.3040330567411
28.2045978969507
30.3422498631058
31.7873008598549
34.0458594199533
37.9419837532603
42.2851752639821
45.2043729825026
46.5209460019814
48.0818433280294
51.5728046659782
56.6131225904744
61.5501300458358
65.7866185193797
70.437535537632
76.3771092007265
82.3213659254614
85.6656967414669
85.1612316349034
81.9878993841
77.8267477224518
72.5197994499986
64.4856514272747
53.3382815834085
41.0664692357542
29.9360425293204
19.7330752976757
8.09471739639045
-6.26109880373741
-21.5222428652004
-34.6982082617685
-45.0776474668572
-54.731048447278
-65.3820666619637
-75.7968460901811
-83.2273069661584
-87.0608647473158
-89.7974207661692
-93.9481800095516
-98.8823998125696
-101.698323790526
-100.694598730647
-96.4870416218754
-89.3337655261042
-77.1216864317002
-58.1980646204403
-36.2998668200034
-20.4386549954159
-17.7271555620872
-26.3356679597755
-37.0611845743847
-42.5105880327732
-43.8193598211497
-47.7924017933556
-59.0429392503825
-77.2379600574489
-101.679391029721
-134.760336096792
-177.37726293505
-221.918290198441
-254.477367390926
-266.797486960351
-263.040964946391
-249.093436634666
-214.081674105807
-128.836990880906
29.1857613800756
247.959180887962
484.345853902641
702.527277440675
908.00054333123
1134.13665111594
1386.60644998029
1602.85428264908
1678.69437583828
1549.04037515253
1249.66190969507
897.698398198725
604.342031253008
398.165748881895
225.91127857628
22.1471732485223
-222.848565507817
-457.108139036274
-617.68766963855
-682.549477536992
-678.483870373218
-649.911405271796
-626.699032385149
-617.509288507001
-621.881601527529
-639.017815977585
-664.770473102946
-687.196420941021
-691.551945262444
-671.11480677948
-631.750432448942
-585.773717930089
-542.919333385258
-507.501229098569
-481.354932913444
-465.507359956731
-457.67445144064
-450.459401225782
-435.204961857504
-408.794881840337
-375.928153565927
-344.167518188765
-317.364109350793
-294.394334869617
-273.213317694045
-254.128195990147
-238.309792774783
-224.385693013877
-208.359899638292
-187.373883771158
-162.642561023523
-138.042826393898
-116.403280116033
-98.0328106001531
-82.4867796468129
-70.1899697701336
-61.2711388537511
-53.5073956977223
-43.0778022940295
-28.159238065726
-11.1467432673373
3.61102906365868
14.2681319771543
23.0101675282287
33.0232792624208
44.7468677461658
55.8685562954101
64.6605811408767
72.1985404221039
80.7629984425219
90.7579400171263
100.228134094863
107.472311340164
113.207374724599
119.477979234376
126.863429780559
133.707374304579
138.333883355043
141.277579694025
144.612404064505
149.320796716268
154.166419135767
157.473333802017
159.389030624355
161.654686568345
165.255209360088
169.096142591205
171.442018087851
172.195877528001
173.02986560363
175.233481541641
178.116033616655
180.008570940667
180.476306169054
180.813338743304
182.210551105991
184.052633159599
184.595063980172
183.130976387637
180.833592535502
179.229733313044
178.340135075088
176.883049072562
174.182696427259
171.216115959109
169.42703240661
168.889253057197
168.224208847891
166.350661761576
163.774947839001
161.796566463472
160.75317654465
159.626172209443
157.46418586802
154.6817316608
152.506571300492
151.32786746158
150.131385950873
147.742091770137
144.218854770835
140.596768349683
137.391296680217
133.89348696328
129.184438603041
123.488594088638
118.043100090011
113.643783425514
109.782652720522
105.497390541271
100.783492059773
96.6863968447563
93.9500265714817
92.0084051778593
89.647081674767
86.454053786456
83.1472499777639
80.362472100919
77.5280626325563
73.3487377563687
67.3128337636408
60.2952016566258
53.5020178178589
47.1420320739065
40.5176215596785
33.3341539361121
26.4317368551927
20.9273260663905
16.86272710582
13.1154682624066
8.69615547328764
3.78036975999369
-0.788927619033792
-4.78692745573061
-8.95364569795337
-13.9671197224842
-19.4405447276285
-24.3015360630505
-28.079177074355
-31.4259591004769
-35.2040210986341
-39.3352352402742
-42.900266343999
-45.3217528848674
-47.0631139866916
-48.9467662001193
-51.0330451353999
-52.5774222484988
-53.1493915864994
-53.4450252630922
-54.6937364270125
-57.3659232952558
-60.7792487217455
-64.0333612065004
-67.0128972569296
-70.1756795761625
-73.4811909493514
-75.9553118165614
-76.5529360891967
-75.277642590177
-73.1637563317633
-71.161336677041
-69.3177768609698
-67.1979631059211
-64.8663439638509
-63.08203597922
-62.4572728995361
-62.7134246919073
-63.0308891675762
-63.0505608780187
-63.2484314486306
-64.2399624410814
-65.9488916282141
-67.6987524019937
-69.0418630217821
-70.1967177592117
-71.5408467857266
-72.8940462993046
-73.6031178091618
-73.3532514320302
-72.6413775939176
-72.2685165136776
-72.4798929605511
-72.8261692525235
-72.8635785529967
-72.7270611900297
-72.8219521440616
-73.0869610684465
-72.873545177069
-71.6758853951113
-69.8011448728789
-68.1045304946425
-67.0936093705247
-66.4980860872449
-65.7831396662624
-64.8748104081217
-64.1395226487375
-63.6886303381086
-62.9939094513985
-61.3971222839421
-58.9089037680745
-56.2789867152514
-54.224848939476
-52.756268666172
-51.3788781051889
-49.8246155105971
-48.32390985513
-47.1020892887226
-45.8427601264711
-43.9121375688274
-41.1218773009782
-38.0673888572574
-35.5886553543828
-33.9979957048485
-32.9832988923324
-32.2042558460078
-31.731591365771
-31.7565344334551
-32.0231513356005
-31.8368262827986
-30.7426692459517
-29.0504062997938
-27.5253470127055
-26.59980163858
-26.0484690799424
-25.4559418166648
-24.7926995701047
-24.3235510347364
-24.0045623788336
-23.2432199050488
-21.4440742107484
-18.7178464028587
-15.8626138446407
-13.6038130388146
-11.990564019816
-10.6254069826439
-9.34406418299849
-8.42743958805713
-8.09305495805894
-7.99404968457851
-7.46450109881211
-6.27142064240395
-4.93800559467931
-4.20268755980504
-4.24572353040904
-4.58977248568794
-4.72269190802536
-4.60805630678536
-4.46210503340322
-4.17888980215198
-3.25860752306375
-1.42080692755357
0.854717062296198
2.59035083683077
3.13188228370345
2.60081560401431
1.52452902316092
0.203106162402186
-1.372650763859
-3.03576856844278
-4.15912785117746
-4.08109039883871
-2.7856828925533
-0.983893320672394
0.552750611720739
1.6414919180619
2.60189144376747
3.65173375687571
4.61843497618383
5.31326393680126
5.99026817634342
7.17740144065988
9.01044961364369
10.9126098135951
12.0868517105445
12.2804397705612
11.9348754590612
11.6032391079912
11.4143814555011
11.237022961784
11.226998610922
11.910744032153
13.5782589215112
15.7254254777088
17.315495980292
17.6418777276277
16.8227589789579
15.4159662088507
13.7285980076476
11.7146096376906
9.50698832249134
7.74559034506478
7.1189736256789
7.61588182789905
8.45284702729685
8.84723941085468
8.74208037097253
8.64466090159004
8.8644923175176
9.17533590434766
9.31370846581473
9.56758806023848
10.551758283693
12.3573154405802
14.1770414637428
14.9939072299405
14.5798410720967
13.6180174388557
12.8410273966522
12.3058541649149
11.7053931477226
11.2150674558635
11.6291274852632
13.4704660736097
16.1765622441722
18.4855591960097
19.666007032305
20.1387861148141
20.7819728069336
21.8684991409285
23.0111128568377
24.1077731350638
25.9042962353736
29.2718447612609
34.0512884362701
39.0164581243544
43.1393329860129
46.6284053844226
50.4351831965759
54.8804784778143
59.2095462627315
62.6651492343137
65.6094501915705
69.0713740945419
73.163193092048
76.4319144060793
77.1575326642161
75.1119917324514
71.5926280910848
67.6742114348292
62.9099473511805
56.1455228714258
47.3365157851368
37.8858805577877
28.9367804957568
19.8337856773428
8.89775723186213
-4.31888549830985
-18.1683736606922
-30.6104750962294
-41.307328198807
-51.3560769615801
-61.0242806588433
-68.6417388884691
-72.4266423970355
-73.0625014327331
-73.5191114674904
-75.966086281808
-79.5120900395416
-81.7217421400849
-82.0965740789933
-83.015905824675
-86.707415292047
-91.910190346498
-94.4100573111427
-90.7744115426674
-80.7031214368895
-65.6320754624659
-46.5238508985816
-24.7038084045347
-4.56799139480513
6.89047812630399
5.1376720315658
-8.03913982516296
-27.9824710092947
-54.9840350285516
-95.938246963069
-154.857613797953
-221.806526145737
-275.252639954933
-299.09992284081
-296.409329823392
-281.470151074157
-255.515086641392
-193.817359965629
-64.1205122705636
138.272067844505
377.192550150414
604.168065547752
802.967717160492
1000.79813261982
1227.06162271989
1457.72421991428
1606.27678432378
1581.28886877507
1363.35007650541
1029.67117039202
700.537096135937
454.053764388976
283.143809889284
126.374660591126
-63.6237506700739
-277.975466559775
-466.132104906035
-583.112737090192
-622.833612044925
-614.292644974484
-594.672441346396
-587.390043329785
-598.27008595513
-622.734139727403
-652.111038902927
-675.950153712549
-684.244139822953
-671.325015316792
-638.392001536152
-592.209462915329
-541.909106446406
-496.962074828104
-465.856683239867
-452.907473560563
-454.018778593632
-456.556244462515
-446.464632563354
-418.062840137916
-377.613028755004
-337.079532777315
-304.322335749933
-279.228826308619
-258.234053541808
-240.545481197088
-228.557712921268
-222.723702298434
-217.904792835173
-206.208926387028
-183.556736107783
-153.07059468456
-122.185804820943
-96.993856272195
-79.1929507232996
-67.1017670161059
-58.0351391153382
-49.4642549490949
-39.2276791681237
-26.2024373942848
-11.2029308080581
3.45431881918256
15.9324519599911
26.391977919765
36.2601332614135
46.1688808694719
55.167075465205
62.1752985052953
67.7455773797504
73.7870192152863
81.542062202943
90.3300734894243
98.5514152050843
105.565198134152
112.070890995818
118.717445725061
124.988016042305
129.922220069674
133.680048475946
137.765779192699
143.474872243051
150.466509293821
157.216236179466
162.696681945948
167.144201224759
171.09682439907
174.204128284158
175.538479888577
175.028364329779
174.036364185952
174.157154118024
175.629318127054
177.287328608364
178.034731309186
177.943850502002
177.695430220302
177.299986929082
175.940804011483
173.203662007971
170.035418379646
168.055149660359
167.956529193626
168.918882464496
169.668126775587
169.784144987256
169.674661248519
169.473203246638
168.506132703929
166.117705617413
162.74223563038
159.714682415933
157.935399304522
156.998756547958
155.804415463581
153.7951479392
151.261851035745
148.489595035138
145.068432976108
140.405965776886
134.778412718547
129.442454398385
125.507603779247
122.892159306624
120.613163488015
117.982346094056
115.186256045206
112.621067499865
110.018493610822
106.636211116581
102.304760403823
97.9065190133719
94.5378684259043
92.3034044038504
90.1955987898409
87.1675967476474
83.0553201280915
78.2998451008192
73.0217909547698
66.7931510473255
59.4342258162288
51.7212611654678
44.9434604422397
39.7274631600659
35.513932547284
31.2712055229069
26.5172135251909
21.4414402869317
16.174144511277
10.3495968275846
3.62660120762563
-3.54455020927474
-10.0305289830932
-15.0137598945201
-18.7286577123094
-22.0848706513613
-25.6993483054544
-29.5207468391839
-33.363801138503
-37.4638459495762
-42.2042579383271
-47.3658566238153
-51.9744108364951
-55.0958542243863
-56.6968139663892
-57.5682619979526
-58.4607892138819
-59.5078406006071
-60.5424755237143
-61.7084060810433
-63.4251007985114
-65.7112387808934
-67.8151844852172
-68.7709259499962
-68.3115301772767
-67.0812037426146
-65.9354061189601
-65.2092797163248
-64.7776265585794
-64.647418601305
-65.1574779267245
-66.4630034368631
-68.0203143166059
-68.8632071914601
-68.4621375287117
-67.1870545743729
-65.8592268623422
-64.9743834864755
-64.5041891796905
-64.3606966492195
-64.7511656088281
-65.8733648903852
-67.3696115774455
-68.3594005622639
-68.1579235846706
-66.890049081761
-65.3008943485226
-64.0289181011364
-63.2062454349247
-62.7449703087636
-62.7602933547359
-63.4649717867163
-64.6631954267672
-65.5912185818519
-65.4568727164558
-64.1283219156654
-62.1929977322842
-60.3541828217845
-58.8972757255458
-57.7793777834127
-57.049682736912
-56.9166133336679
-57.3311801891992
-57.6890973235287
-57.1726294409999
-55.4451029815769
-52.9268135484379
-50.3572327999892
-48.1821390871556
-46.4432909764761
-45.1498293315525
-44.5035089331807
-44.6120234318676
-45.0819051237275
-45.117803846093
-44.1422586924273
-42.2737249557766
-40.1335934126056
-38.2330729807044
-36.6406643551507
-35.2136591733594
-33.9608889908862
-33.0040128937447
-32.2094234509209
-31.0531281749454
-29.0103536270219
-26.0828810197735
-22.8663383545641
-20.0846518249002
-18.1144196308015
-16.9597041547959
-16.5439799095972
-16.8404941942143
-17.677536017972
-18.5691687571995
-18.9336488189715
-18.5516642761615
-17.758910224167
-17.1411557195403
-17.066713438893
-17.5393635610867
-18.4171182860715
-19.5991666199861
-20.901354683963
-21.8407614744243
-21.7496082727895
-20.2461538853217
-17.5944551533049
-14.5357788663638
-11.7449746084156
-9.46854549192662
-7.64826603856061
-6.24757247113538
-5.30660356658812
-4.67652957905386
-3.86467640221653
-2.32891264219971
0.00811918075334006
2.58639911873473
4.60134692211477
5.5690992546094
5.51241072205065
4.68941322422475
3.29998917711646
1.53744835781083
-0.171383959460286
-1.18483390153244
-1.04734722282251
0.128361528131791
1.74525263374835
3.20646334297578
4.29035499786437
5.07506203464669
5.62815215754657
5.91479466065405
6.012910655146
6.2567740236297
6.99496568982534
8.17762391130225
9.28383597027869
9.73920126355085
9.38346715805795
8.48283040715057
7.34318668544068
6.05819758818228
4.69938942598856
3.61735566644415
3.32681602363482
3.99243466734822
5.12769117183058
5.95247107147401
6.07308753311872
5.7298399439008
5.36906940055596
5.12059952042927
4.84349947569089
4.62003947649325
4.94334133091738
6.21976344797471
8.14637883804963
9.79501762199763
10.4163132450253
10.0699251414675
9.36973673695002
8.71739292224218
8.01057123605642
7.15001497721136
6.57831744682127
7.00557321849834
8.55995713974283
10.4453739722303
11.6400745410763
11.8713488601117
11.7226655732872
11.8029695024713
12.0768892301558
12.1976174399012
12.320798090818
13.2024036642429
15.3239023097059
18.1353306703943
20.4562429180478
21.622988147754
21.9947813186577
22.245194591647
22.4387937930481
22.1456271819924
21.4114617719153
21.1825951263752
22.4640298923744
25.2275364330196
28.5388161418639
31.8241344011426
35.6377360567888
40.8620776201238
47.3394736524933
53.7718236260255
59.1058371733164
63.5931637357564
68.0309131459019
72.0932731616718
74.0264219521629
72.3460256496473
67.5229422895034
61.4760561362156
55.4177250647633
48.7612556841287
40.4816518278202
31.0953211265538
22.5148138817454
15.7902285746548
9.65925473245781
1.9648043266947
-7.71021507825324
-17.5696835599338
-25.9657734330544
-33.5090860774106
-42.0401438470961
-51.7060319768934
-60.0963393323203
-64.8934393236045
-66.7941527758997
-68.7753583970928
-72.3531347616625
-75.5695511127244
-75.5174365567417
-72.4080817811496
-69.9296224061156
-71.1176326252845
-74.6596371181468
-76.1400090813131
-72.605461983669
-64.8445902647787
-55.0515991531992
-43.6616213519439
-29.9252554796158
-15.2968791730663
-4.63677788750849
-3.35832003759531
-14.5468981232665
-39.9289462713096
-82.0014634096274
-141.426464871698
-210.424966217605
-271.507639448454
-307.74739052929
-316.009568117342
-306.207742161402
-282.630901929604
-226.784913221336
-106.021171672034
93.7912421024253
344.763919352967
593.715625820535
808.805348598072
1007.3706824881
1228.14381863918
1468.8126281901
1654.26518919432
1678.88223379388
1493.21643167205
1155.06494943487
792.895659057618
511.511033860965
324.105480355193
167.474810925475
-22.4364570797221
-249.036832186868
-458.879578601998
-595.132691848919
-644.133089334187
-637.222123452041
-618.637070888669
-615.929728112902
-634.159511362433
-666.048862782275
-700.634411859216
-725.341402483542
-728.369445319591
-704.920199453926
-661.089860844299
-609.360847815894
-559.779604395382
-516.467158695878
-481.864271005971
-460.716840767217
-456.476496973153
-463.922925427243
-468.575692486141
-456.356503247366
-424.457297510642
-382.166518281927
-341.430658114548
-307.778280456035
-280.203216497042
-257.217197384369
-239.979468301068
-229.073749441031
-220.629467671959
-208.109106522914
-188.141114290769
-163.254634611815
-138.395858725554
-115.954819753374
-95.3115293113108
-76.3746154083749
-61.3205138576824
-51.7194575770792
-45.120236203706
-36.4070785287972
-22.9938707856508
-7.51463060358034
5.52348327711573
15.0865075431109
24.3933231778866
36.3916875901455
49.8644761030944
61.0739397243779
68.6133796998025
75.1146577390789
83.720058783959
94.0404857842962
102.827987304505
108.322849388408
112.505968174426
118.38844055085
126.025872404111
132.525038083208
135.970006075405
138.054524260346
141.976845076131
148.39087936317
154.691217815149
158.47436642019
160.582978760123
163.805151518913
169.065769268707
174.178858901089
176.761350987008
177.410511898767
178.95353419038
182.78038169861
187.067707508884
189.154373514837
188.885148068177
188.566846822485
189.722563060696
191.020822097649
190.109664675187
186.872903354855
183.763778875032
182.762933557834
182.954948644014
181.864500784604
178.731308670278
175.40750599306
173.773026948704
173.174761293479
171.312201651831
167.382563484248
163.293943004431
161.311078069902
161.203932905623
160.61016421398
158.088048236628
154.835686434622
152.873448619507
152.173683190664
150.577190631753
146.611292564841
141.475756125857
137.563914570203
135.450077857806
133.270384137022
129.253155064441
124.032690586054
119.727595077686
117.068105220936
114.409126178228
109.928447930714
104.081239887735
99.054190728681
95.9352826491439
93.3185300858953
89.1509405973071
83.3627022441245
77.8353455202728
73.8153631069898
70.2425084102708
65.2050478172796
58.565748652904
52.254963265126
47.825757598064
44.4854907201668
40.1771941580424
34.2596563486817
28.2600031288043
23.7620949502675
20.284715540092
15.9772926684867
10.1867246241134
4.4534246703694
0.580131748260644
-1.69821139731135
-4.38307885087525
-8.6722989353942
-13.5604252747143
-17.383798382768
-20.1983307173976
-23.7887411229734
-29.2776171829592
-35.5137327630063
-40.4076520216217
-43.4882105349957
-46.3355603297882
-50.3472840203787
-54.806771031205
-57.8046420200529
-58.7777801294489
-59.2909563411008
-61.0191335751746
-63.599319741053
-65.1968353791681
-65.0407067450799
-64.5751832844942
-65.6944528557725
-68.3684002417062
-70.7596483353517
-71.6425020336232
-71.916066579187
-73.2340454526988
-75.6069642826021
-77.1940128135759
-76.5997276488443
-74.670712563834
-73.4354253990155
-73.5809402986226
-73.7602641213816
-72.5819274887809
-70.5968204432029
-69.6359567191121
-70.3899001106997
-71.4587499291987
-71.1522086204242
-69.6767392391348
-68.8348800850694
-69.647637075055
-71.0396647719882
-71.298427656534
-70.3428366841877
-69.7852453975175
-70.7203802716833
-72.2005522723868
-72.4454604477034
-71.2009826953918
-70.1252138228088
-70.6774183565311
-72.2767360321091
-73.1302710818124
-72.6007155363555
-71.9676654973237
-72.5924026737682
-73.9527348253634
-74.1886615973215
-72.466672468662
-70.0518050875451
-68.6747767693823
-68.3433640283939
-67.4598204931149
-65.0409463403732
-62.066595903256
-60.170180106451
-59.4357162767502
-58.2571759133094
-55.4695142079565
-51.9316398967436
-49.4572657634606
-48.5013246000808
-47.6543851719896
-45.5919996049404
-42.8670616748197
-41.1521337309992
-40.9448203226983
-40.8112134853517
-39.2074370288769
-36.481052950762
-34.3873872054134
-33.7373231374461
-33.2807497363608
-31.3127781363397
-27.8925166498175
-24.7498480712475
-23.0146933605805
-21.7913036626936
-19.4836810953302
-16.1209109605328
-13.5742444067689
-13.3157852879191
-14.6134929553271
-15.5024697256599
-15.2413592663125
-15.0399901475112
-16.1577059138846
-17.9543997180498
-18.5250295304452
-17.1086455926664
-15.092746714701
-14.2691644688626
-14.6086701289076
-14.4371421181952
-12.7183391650473
-10.3934458757584
-9.02960298577761
-8.63278625136903
-7.58788880721542
-4.83728954320451
-1.4036559251864
0.789601426658379
1.26773330579999
1.44094471777436
2.58831995666924
4.10538929628399
4.36288462385426
3.01880926241137
1.65805394085658
1.84590408724927
3.14629452415966
3.74809016265988
2.90293179633647
1.95972722508873
2.61673062579871
4.69553727988659
6.38660609756829
6.64369950654128
6.5415420809924
7.77083521170118
10.2510841810704
12.0491283790081
11.7692621293823
10.3053975875958
9.65851166447874
10.3723158296713
10.9475599357476
9.96769759388985
8.0794610120135
7.17489667713727
7.85144219349439
8.53828636703483
7.49350875815419
5.07753748585637
3.32715764222641
3.40427016184935
4.27779988467525
4.33067406594442
3.68562515240303
4.09671573582845
6.52009467935416
9.61091764173244
11.2079738600605
10.9148717986328
10.4149426542105
11.1389148116475
12.3944134264567
12.4275427028194
10.9624971886709
9.77846668374459
10.4945860181376
12.4796693237958
13.6828630884358
13.321320200704
12.8823728375747
14.1155900478732
16.6784011417547
18.5539954582463
18.6634079907112
18.1655535652725
18.6993460964466
19.9408339754918
19.8154755875281
17.1847387340671
13.487773778927
11.1446699744459
10.8000132771496
11.0177691679477
10.753710968222
11.1913868842268
14.3585890808414
20.2898829485907
26.5579711420423
30.9351436042711
33.7781120778
37.0374495979791
41.2522105497514
44.5917631024657
45.2897353181283
44.2323353003078
44.1520260643605
46.3593051496715
49.299029503312
50.8931014387185
51.6004314496919
54.074831970562
59.7489228290624
66.8017171757533
72.2445827563535
75.4466491212426
78.4620720518629
82.708544246384
86.4220587567515
86.3834766340466
81.791771965088
75.2376632736712
69.4490986226616
64.0141098994483
56.3229151522295
45.40147323485
33.4805791203438
23.1727632869473
14.0366509278625
3.20878710455588
-10.6187123071949
-25.1481336955253
-37.1720585248982
-46.5108061895924
-55.924863335097
-67.0352697993704
-77.6959487736024
-84.4797692005146
-87.1302152590735
-89.0031519315833
-92.6401189266747
-96.1190997394306
-95.0927423790865
-88.1819426655414
-78.9906688979878
-72.2232685672165
-68.7949885350602
-65.8789470030387
-61.3512622694977
-56.6721744500152
-54.7511423145735
-56.0044646141454
-57.6803788632275
-56.7153515973352
-52.1793370833978
-45.4516577261676
-40.4994413812409
-45.474740476307
-71.5600556652894
-125.119378282191
-198.136568332811
-268.698064869919
-315.38675284153
-332.26888348017
-326.161556645767
-296.328797168838
-220.456746726829
-69.0406875293278
161.368722778498
433.160726189225
694.610971490827
925.757909566365
1151.54153378488
1399.15666338908
1638.9078108058
1775.87245879924
1715.18900615928
1446.85341180169
1067.68713655357
713.49067179897
460.390680422343
283.702177311768
105.785978646514
-119.603939995636
-366.318729033841
-567.310537149556
-677.089001733053
-703.651035268106
-689.687105072065
-673.66909856759
-670.378574017434
-678.977330403331
-697.220323349481
-723.031656725796
-747.545787866186
-755.128185082185
-734.423716141731
-688.445272093525
-632.121520043788
-580.460414779101
-540.151051215214
-511.197067467535
-492.742697562506
-484.298159052741
-481.956278659786
-476.677376808027
-458.938962301138
-425.648028113637
-382.249008351457
-338.430205454398
-302.176758157935
-276.881539777223
-261.592459925284
-252.033755673421
-241.890842835494
-225.574518435597
-201.789900564287
-174.560721449153
-149.77354389892
-130.1482749274
-113.759373125588
-97.4288073202815
-80.755262096344
-66.0534031231212
-54.6679533978712
-44.5203194524791
-31.9835865573892
-15.7231044394962
2.10401743703876
18.3997574746104
32.041873545024
43.8819231769532
54.6028309635073
63.702492399193
70.8046072178459
77.0722566749197
84.4265271483093
93.4541232150265
102.820321052403
111.03196740109
118.24235098754
125.748317328331
133.940380430307
141.526736525606
147.114084144287
151.053535425805
155.0953763022
160.292726405157
165.869859122308
170.436429233645
173.827355741184
177.114605430994
180.874782285107
184.151344530393
185.585563980637
185.24616525381
184.720357201455
185.311240604999
186.659343495999
187.502594927943
187.462639343419
187.465116419655
188.312656921035
189.421305338544
189.480367135604
188.184701021107
186.730744231437
186.392313390327
187.011351467955
187.313689159019
186.53996151201
185.209124259687
184.087336384195
182.874272511048
180.46723389612
176.494168298754
172.058610524975
168.651202977927
166.587412649787
164.926531104547
162.855479394526
160.636962592118
158.910111452209
157.410114457507
154.959472257773
150.840384978621
145.752282797468
141.0585354439
137.263529612754
133.649517461842
129.442853646964
124.875694161821
120.728738966813
117.048721199108
112.87327833492
107.431975145456
101.265285548052
95.7475405801982
91.5760205410429
88.1372274299865
84.493309691418
80.6108708218859
77.1999304201105
74.4536962137616
71.4843812517504
67.3159528124694
62.1751768050383
57.3623545710556
53.8138397870592
51.1652598625951
48.4427239435503
45.3707094722523
42.5351905953931
40.2499168324811
37.758772279278
33.9638824160285
28.791270356156
23.3871332399615
18.8310996819448
14.9873717915588
10.9203793216401
6.23780422576193
1.53570021320816
-2.62044787839208
-6.73528812783391
-11.9407048176621
-18.5545762553605
-25.5127936285218
-31.4643107995552
-36.17252237337
-40.4817353805558
-44.9881563027251
-49.2158149027479
-52.36117872041
-54.5423481439603
-56.8084250282561
-59.830164924809
-62.9806600645062
-65.0429913042373
-65.6704056639864
-65.7602840790636
-66.3401242086385
-67.4800849196997
-68.6186237162689
-69.735116191594
-71.6620518214346
-75.0190864247523
-79.1599322625365
-82.5801192140229
-84.3487719823606
-84.804186574116
-84.7409275035463
-84.2837859300965
-82.9714011326288
-80.8546601518355
-78.9888374612685
-78.4975884968589
-79.3431954411691
-80.4103211304459
-80.8328492589195
-80.8823457037751
-81.3381957678279
-82.2732733902696
-82.928192034036
-82.830183375417
-82.5851527165011
-83.1739428404654
-84.6045545920665
-85.7051747000253
-85.4008808273353
-83.8798820567842
-82.1937210554258
-80.8830534769075
-79.4692091762238
-77.4455101397522
-75.3523820514191
-74.3755505248022
-74.8871770023915
-75.8268148323744
-75.797415260847
-74.5418066380286
-72.9746730250275
-71.8292028278846
-70.7554238264026
-69.0381887611583
-66.8906634582303
-65.4784261408383
-65.5211649167648
-66.2626138228908
-66.1957546193097
-64.6790324264975
-62.4359754208915
-60.4002219378278
-58.5087536393884
-56.0378384695196
-52.9548101613393
-50.3638284771623
-49.323519050871
-49.5185443189033
-49.5341507969735
-48.4305325132712
-46.6395701163036
-45.1162315697706
-43.9604852229918
-42.3626551740098
-39.8935219302991
-37.322077338484
-35.763230727663
-35.2154710449147
-34.4259702421316
-32.3216496964286
-29.2026179458293
-26.2138791870623
-23.8700012264861
-21.6097379194616
-18.9170165558114
-16.3997413042828
-15.251786087649
-15.7110467358861
-16.5464043299259
-16.3287886909156
-14.9226058385697
-13.3426196319903
-12.2591848431276
-11.1781339358257
-9.36077829299509
-7.16900306638183
-5.90838019576753
-6.24484012475489
-7.23613590676712
-7.30348639635153
-5.9682240115667
-4.18132183112304
-2.91122981612294
-1.9140045729491
-0.307663931026141
1.8839711602961
3.39042577775655
3.14519208067972
1.69297943941672
0.686515393739178
1.05305892875784
2.1331939070556
2.81741282406886
3.1047872697072
4.00905887044069
5.98745913640639
8.07013004142108
8.95090306515293
8.66815506050532
8.657121449468
10.0459725699596
12.355515615476
14.2267179502085
15.1472481186744
15.8840506949675
17.1141930838588
18.1889592768179
17.7979868654064
15.7313131967031
13.3955956956674
12.3160098713923
12.4929755742432
12.6857722115965
12.1734672820145
11.6288408175618
11.9754431610461
12.8398167797089
12.7923096843293
11.1800849941604
9.15946801480857
8.49087090937937
9.56230306513498
11.1336753057388
12.0606632635874
12.6897128201699
14.1052430025412
16.3102495545735
17.8764885550911
17.6509111089234
16.3183624052918
15.7168423092644
16.7067785178877
18.2934986212638
19.0691674919048
19.0144251248658
19.2795022042835
20.307696119678
20.9187166936495
19.7070250245115
16.9781487765532
14.6240836200968
13.98556174732
14.4036358904565
14.2925541195455
13.2754143168963
12.5520724057566
13.0526277231511
13.9243333785542
13.5026241540889
11.5977902285295
10.0765053326662
10.851468687109
13.7689315509212
17.0530557775688
19.6560063687928
22.4020867340583
26.4543411915203
31.2249091271564
34.6374521460617
35.5477898792433
35.2115167161446
35.8406112202888
38.0531512708809
40.456751458037
41.8088223145317
42.8346385476135
45.288153754693
49.5399635280267
53.9615663674454
56.992248522574
59.1743774175632
62.4280202506006
67.471621417267
72.7705215722863
76.3914955774075
78.2871907143632
79.964465401014
82.0062760007661
82.8455074488649
80.5655459287385
75.413389296016
69.6213015933768
64.6130846041566
59.1842042277515
51.076709193079
39.9443960903861
27.8368598443784
16.5659482517256
5.45315280878542
-7.49891426501301
-22.4968440500857
-37.0371853307804
-48.4989506889407
-56.9468208011858
-64.5302118587335
-72.3421367551274
-78.9635448048873
-82.6463325944013
-84.1440086110937
-86.2132782597342
-90.2397728610855
-94.4469520593431
-96.23778227313
-95.6917066456736
-95.4089386060085
-96.4734480095032
-95.5726759872545
-87.3524339656701
-69.8360919881461
-46.9507859935661
-25.5539725421005
-10.5435800572303
-3.11472706906555
-2.84181266694701
-10.1441974665622
-26.6388290287981
-54.2916764976447
-94.7625453303604
-148.000932381042
-209.192131780433
-267.020410613309
-307.739220864742
-323.531151374077
-315.880653782804
-287.144994584484
-227.583710986225
-114.994426303895
66.2332775869627
303.593336090862
558.891312666245
798.97833087378
1024.70747307176
1261.6209389043
1512.91674602657
1721.25650929666
1788.21714830783
1647.12594317448
1326.59740800725
941.460349579229
612.271133383422
382.65172721813
206.418288517049
10.2661715615731
-231.128687302561
-475.35720066076
-656.572294812349
-743.173171478043
-755.496385837534
-737.787610307546
-721.616005397421
-715.062896269953
-716.443588923327
-727.101565392386
-747.8792990569
-769.114746291712
-772.028411622494
-743.3605214446
-687.646662970766
-623.892767062309
-570.889898190217
-536.226342036742
-517.119182435727
-507.428628882081
-501.396738870871
-492.683241997959
-474.479783633631
-443.62259639794
-404.114264517828
-364.570725603434
-331.367299159939
-304.856929531666
-282.321994851526
-263.00686819256
-248.424852449114
-237.844267336768
-225.640596651225
-205.19391952783
-175.643527490038
-143.646689108425
-117.657970241149
-100.689961129027
-88.9709669015011
-77.0067207902673
-62.7861175094676
-47.8799907605079
-33.8153249314449
-19.9443727715446
-5.04453484438542
10.2651988343838
23.8680901360012
34.7523515927397
44.306889608746
54.5979724030217
65.9320653765617
76.8289603942201
86.2587989551486
95.084911353928
104.848202746611
115.58472783312
125.581388518525
133.379976197536
139.439053413602
145.394225891176
151.988035924785
158.34946251518
163.412586095472
167.471989810797
171.807163640682
176.926443119888
181.787212996239
185.035599266596
186.675393334691
188.055982415537
190.258530137242
192.961925758048
195.142611844449
196.556296332008
198.016625317223
200.15583105818
202.365907084097
203.360504515955
202.670072986687
201.182167285966
200.08146017404
199.564795237722
198.904397643706
197.633533857455
196.218292811893
195.346950959755
194.834656145549
193.647431606928
191.072515241948
187.561879929643
184.194306158167
181.460128504818
178.885772811233
175.875019672251
172.578890896497
169.6408837616
167.199342634032
164.526571350209
160.850260266691
156.344627792695
152.028925384259
148.685110964703
146.124226480417
143.642597096701
140.980296010539
138.506091370821
136.430378981922
134.155704813629
130.709055277479
125.788183929224
120.13185840566
114.75002859787
109.957259626474
105.348133369183
100.622339190446
96.1141631321758
92.3379697268474
89.1912730797622
85.9180597225564
81.9427555286646
77.5427888353755
73.5148231273287
70.2549417915186
67.3850175531247
64.3235776040675
60.9963312233107
57.761359165487
54.7053883519311
51.3126199513017
47.0120155263007
41.9317951342373
36.8778442018214
32.5206279360813
28.7724421113186
25.0786293211553
21.1782098361169
17.3266657729282
13.7293938354256
10.0026169941233
5.45529189432941
-0.100924828528729
-6.03576304030377
-11.5110356379177
-16.2917616078165
-20.7925282027963
-25.3747090441951
-29.8403080894337
-33.7590424314747
-37.1442696135397
-40.5327962823499
-44.319038084007
-48.1964298845736
-51.4516301421026
-53.7736382284321
-55.5856592965969
-57.5249262392965
-59.7727316440171
-62.0769226730577
-64.3548378198498
-66.9903924064679
-70.3672270464891
-74.2364218878903
-77.7913907183203
-80.4313476300665
-82.2978498211668
-83.9482367161271
-85.628836405689
-87.0934689927467
-88.150537837699
-89.1287392416409
-90.5530855326348
-92.4001229511441
-93.926583520329
-94.3799061188062
-93.7662693497529
-92.7525310111609
-91.8658955207705
-91.0285666837678
-89.987310103906
-88.9939614140109
-88.7473012843465
-89.5889816296381
-90.9757289500986
-91.958194798755
-92.1299190679999
-91.9028618531286
-91.8171739293915
-91.8096555366125
-91.3752280437974
-90.356420294286
-89.262779179854
-88.6499060516464
-88.3526737888544
-87.6001191202519
-85.9162976477596
-83.6891005037543
-81.7051154408915
-80.2663278195674
-79.0098326657817
-77.5969899768461
-76.289862387965
-75.604518644575
-75.4907271314112
-75.1611228434936
-73.8725785018262
-71.7142700499078
-69.4247920837991
-67.4982479143389
-65.7296055537729
-63.7311561752303
-61.6517121625811
-60.0739586721232
-59.1932247161795
-58.3891376152981
-56.8307417609498
-54.4040913078023
-51.8025055634386
-49.6842624056873
-47.9928312273693
-46.2851920637619
-44.5561852720801
-43.3851370003213
-43.1538960596933
-43.3715867500495
-43.0628666663333
-41.8006263019823
-40.095929254566
-38.6643943808208
-37.5327937067989
-36.134904328951
-34.2203363911886
-32.3136612034737
-31.0631801232143
-30.3250440222327
-29.2335519149762
-27.2402136210002
-24.8133198149306
-22.8930201861779
-21.7952989942245
-20.9622968641661
-19.8325736149835
-18.6273528442145
-17.9736502898014
-17.8598078256486
-17.3576579441456
-15.5767550271778
-12.6876773954719
-9.71363232584654
-7.355088805628
-5.34470164653727
-3.10952390651776
-0.787439918444448
0.812577849071403
1.28968418287054
1.32729200591298
2.00472891374443
3.56560829809845
5.20349924764956
6.12687904662816
6.51753206093868
7.16337191025427
8.30858779544751
9.29304096489014
9.48391383684807
9.25105374086071
9.63886710395558
11.0982499090927
12.9077078987445
14.0421145190332
14.3678597524542
14.6316696955822
15.3159881142116
15.9320605906251
15.7195257198845
14.8121847878649
14.2620203569586
14.8057531588857
15.9492573800231
16.5745373598089
16.2973209223873
15.824333701717
15.8872129231163
16.2172863595788
15.9607725695289
14.9855404974846
14.289965744808
14.8763835337237
16.5025965350759
17.9449584313426
18.458649441649
18.555412952749
19.1207710251784
20.0920015455478
20.500347679448
19.8489492442524
18.97042682141
19.1407318620078
20.5284401271098
21.9887317919301
22.4942405614515
22.3584067903227
22.6767621446329
23.7609713546415
24.6758316492401
24.524593627972
23.7792892733339
23.8413985248344
25.3325231165953
27.31629920205
28.4710614150005
28.6928443131874
29.0525675726895
30.204603323502
31.3831903932895
31.3290898670912
29.9111587382019
28.2720156992743
27.2897179779452
26.4052730108929
24.4020597315077
21.1341874914435
17.9289995143924
16.1413518260325
15.7847088296707
16.0295327967179
16.8125450395853
19.2672131451084
24.2664625219209
30.9735122087614
37.3976323869021
42.3368565801583
46.2311606458554
49.8843277222453
52.8750691214859
53.9136834981166
52.7484315175913
51.0152974801931
50.7075656885874
52.1158573683923
53.9050510452751
55.2341933995906
57.0815155818221
60.9291850107357
66.4991373703148
71.622636020528
74.5907494964517
75.9894538072043
77.5640487403903
79.5279489456351
79.8700780466396
76.6830313518917
70.5396131987146
63.7714455003066
57.5097036071183
50.3274722762129
40.2832499047548
27.6934219346295
14.9540401472884
3.60727554865821
-7.46443843742793
-20.2721829317807
-34.6896418708287
-48.2218463070936
-58.9555673414352
-67.7733263624066
-76.7989280935397
-86.0886560110523
-93.0818992343768
-95.7624243990166
-95.4284158667125
-95.2353817860178
-96.1863845204396
-95.8227197218649
-91.5836653962309
-84.6939828467992
-79.4867306282695
-78.7323454623407
-80.6241544193318
-80.9993904714409
-77.8389023025963
-72.5287488489971
-66.8885202365756
-60.3845048153851
-51.2075894896342
-39.5133823060391
-28.7132713338209
-24.1570180325881
-32.0565100092753
-59.389998199458
-111.342584716626
-184.739196686032
-263.587565059264
-325.112432299469
-354.331633111588
-352.390099535814
-326.727297563722
-271.600989357542
-163.000856069316
20.1024404805142
267.613231737967
537.191276340685
788.549005648698
1019.0640156327
1256.83816473228
1509.5578603237
1721.02313989225
1790.37562787513
1649.43383273716
1329.22845433436
948.215407877996
626.559564705275
402.515004869284
224.833077163942
21.4030979724691
-225.734790167189
-466.88149888066
-634.965721431653
-703.549443338273
-700.373762008574
-675.822955918074
-665.616689424262
-679.383881009549
-711.623025984736
-752.53646832454
-788.518458162137
-801.849735567467
-779.441537503872
-724.333236143212
-655.616545911695
-594.368830199455
-549.617121416896
-518.091517090842
-495.03653901533
-481.354047444696
-479.01841915635
-482.498486124633
-478.80928349373
-457.543677616169
-419.698293733613
-375.665518121926
-335.504172436291
-302.45051811598
-275.009506394693
-252.342482403608
-235.359326702334
-223.299398543939
-211.88656152435
-196.415694142766
-175.991563941203
-153.524731303771
-131.800368390231
-110.918981960753
-90.0660289010723
-70.4408797449807
-54.7165414039611
-43.4581050166069
-33.4681623752199
-20.7860665383095
-4.9514253673515
10.7209789992417
23.1850246180984
33.0071219275921
43.0660836952539
54.6242850804223
65.8997504964616
74.7361096812414
81.6303607873604
89.1480662041485
98.6489802643153
108.688535218799
117.074521863935
123.720056875687
130.544799235893
138.7145450268
146.989513201116
153.34412475807
157.629343697085
161.736838173056
167.109831483752
172.929253972844
177.310801562013
179.827726344879
182.001344314448
185.196243710528
188.800944141635
191.110792726016
191.681613595436
191.992248026497
193.550710921275
195.972507806247
197.548094199565
197.492204479426
196.886503081524
197.132218354145
198.04388589486
198.131664723794
196.656455144009
194.689926116922
193.768830242354
193.934862906619
193.734371357901
192.130213425919
189.776248936116
188.016158208334
187.013274143415
185.529229444945
182.619599417682
178.951156017048
175.973035770712
174.044277170825
171.993426758869
168.665978439638
164.392600729059
160.462995832696
157.366200342884
154.17253598616
149.865283065513
144.811668077199
140.386332523603
137.232274774489
134.45424273044
130.794566855949
126.224373352306
121.871100001665
118.440193964597
115.272460717029
111.28686110244
106.518421685598
102.169854493071
99.0873916991537
96.6723191340305
93.6577657351913
89.7112195500038
85.7565191378203
82.6388173993795
79.9538305333404
76.6079503135031
72.3376691354285
68.1292861101832
64.9513536784969
62.4673312419934
59.4297271847823
55.235132939204
50.6012044012859
46.5147205740819
42.8927877908114
38.7474927164857
33.6087868381602
28.2714671591147
23.8366468497821
20.2980907333431
16.5392143262371
11.7458163651082
6.38233377285867
1.48298921364033
-2.75024194128034
-7.15856385396993
-12.3853055160326
-17.8767501212505
-22.4972302398417
-25.9717020218059
-29.2546920068848
-33.3352940123671
-38.0425537990809
-42.3897245484349
-45.9436250584124
-49.3666220189584
-53.4205712220419
-57.7989224449284
-61.3874029649473
-63.6407092179034
-65.2628868545514
-67.2932615156222
-69.8058688480952
-71.9241260262239
-73.0881470048234
-73.8522950558911
-75.1451491911993
-77.0043589226963
-78.5138723612679
-79.059961387399
-79.2389482092829
-80.1852720784327
-82.1761929898903
-84.3321317491085
-85.7834096272293
-86.7387187257852
-88.0432405829521
-89.8500280471635
-91.2298562549266
-91.3002100246246
-90.4106851690205
-89.8039232467784
-90.1550566444751
-90.8616333383177
-90.9662854118823
-90.4548389390285
-90.2107838829253
-90.7219742566893
-91.3086250479457
-90.9503049938941
-89.6540187159683
-88.5623144531933
-88.6374885614029
-89.6098042219682
-90.5036180871796
-90.9706423220948
-91.633964474717
-93.0192306056227
-94.5651098868497
-95.1023319957068
-94.2152968843755
-92.6992988327269
-91.5084004448202
-90.5787079019746
-89.0565955416591
-86.5742470763315
-83.8228881093752
-81.6395426786781
-79.8491211109012
-77.4632351883967
-74.0265072438198
-70.3334823685387
-67.531721112177
-65.7555093524988
-64.0710828925237
-61.7901983909985
-59.3985265126748
-57.8601883429642
-57.231644255018
-56.4617024966736
-54.6943872900149
-52.3788245324358
-50.7033162084542
-50.0567390073454
-49.5048492066465
-47.9488742831421
-45.4404603303055
-42.9493918049144
-40.9459368787906
-38.7301359919158
-35.4349166887965
-31.3820329756826
-27.9637519884105
-26.1404644995805
-25.4574362160548
-24.8007136192597
-23.8414226988083
-23.2604859430263
-23.5181592114401
-23.8944714865307
-23.1642304953458
-21.0701574362186
-18.6558968175996
-16.9950452925964
-15.9536279328908
-14.5645412376355
-12.4550058387618
-10.3943101887051
-9.23942637221889
-8.72485790540929
-7.76554012727001
-5.91142486528693
-4.02068830900083
-3.2218284161445
-3.49853541625411
-3.74261170683833
-3.1839938782235
-2.29074618016703
-1.95810473809162
-2.11243577619507
-1.6588107763594
0.0954682926429058
2.4225776660181
3.96549635189331
4.36730324409606
4.63546268898405
5.7794453140463
7.52469616791562
8.79034395108933
9.25933800105301
9.89621894483051
11.6587428303067
14.0818580748924
15.6472805274129
15.5360061791482
14.5333951947393
13.9447401739879
13.9687857054481
13.6551740176475
12.4423736184247
11.158493241098
11.0820760179343
12.2661984163375
13.3613026012023
13.2323689104468
12.3030119663076
11.9076928832173
12.5475561081773
13.3667898489071
13.50687205651
13.4628513427457
14.5458087970416
17.1009214166182
19.8545893982614
21.3326171384114
21.5609392410653
21.8556478538883
23.0053817601459
24.2614489376698
24.4651308597924
23.774524142714
23.6177701650971
24.8462550013789
26.5027931113275
26.8872538772481
25.6055251291377
23.9704312294717
23.2586441514027
23.1300401777703
22.2830197230267
20.4388852340081
18.9598692524323
19.2028259222136
20.7409381561386
21.8241136203839
21.5336517856575
20.84651735921
21.238123370745
22.6822481182787
23.6893158068666
23.3102237887839
22.4097689971351
22.4764628853263
23.5325666090754
23.9595341146737
22.5556280877376
20.1714889697794
18.7775575137713
19.1724049867734
20.3152063696202
21.0915353351022
22.0701437351323
24.8149954480044
29.6076516122343
34.6373997623573
37.8504967408324
39.1403512716448
40.0746936182095
41.589119041757
42.7578512114167
42.2887711974756
40.6954403032494
40.1196517056506
41.8938537239763
45.0236401880589
47.6464250499709
49.5778298902246
52.540403901888
57.7061678138347
63.8151411657213
68.4674352111819
70.9782174112881
72.9983048018462
75.9732479114912
78.7609977610833
78.6732304864052
74.7429534882077
68.9703301638244
63.8083461737016
59.0739761727621
52.3223351468294
42.2345620623639
30.5622701620504
19.9980754683519
10.7291223628191
0.279954798921878
-13.0180096016415
-27.4505190867517
-39.7113962765505
-48.7968809253961
-56.8615949677201
-65.8417357675322
-74.3504131406388
-79.1703083285863
-79.5954137783467
-78.851353747281
-80.4087758783025
-83.7705840577556
-85.32290739516
-83.4116662294483
-81.1145735516962
-82.8110415194132
-88.5209648249106
-93.0074068972413
-90.7995410451969
-81.0424391879252
-66.729142895997
-50.3615661533724
-32.3851245349407
-14.2421029016494
-1.00911304380577
0.946123894515399
-11.4417886344711
-37.4535383322079
-76.669505494602
-130.549593845927
-196.942311195342
-263.862412338126
-313.126943379117
-333.319032558087
-327.222264281796
-301.678234722657
-248.930531676
-143.441931777641
35.4756831096669
276.327312753352
536.645654531287
778.382105728964
1001.81567709514
1236.01889725236
1487.50164573753
1699.26487935026
1771.89730331642
1639.15257884539
1330.7654058282
959.820148164549
641.126465538924
412.748581627871
228.821349180192
22.9608890324754
-222.204160487259
-461.576038751182
-632.857941867268
-710.078841391604
-717.338904014023
-700.553692616821
-692.21714208554
-699.728812351893
-716.668174095204
-736.227647426866
-753.418971592823
-761.05890951451
-750.343086995388
-717.214768061617
-666.642238955521
-609.753864916946
-557.605316192383
-517.807286704815
-494.516228941688
-487.764646885072
-491.144244459415
-492.206259125369
-478.790010728798
-447.21877324229
-404.427813533199
-361.56135458484
-325.489591746288
-296.43318796857
-272.44039491855
-253.914133270778
-242.533892442648
-236.660771880652
-229.823055737306
-214.957418607335
-190.062747087745
-159.393004535085
-129.537179041757
-104.920776706599
-86.6083840796248
-73.7324354548226
-64.5823812799702
-56.5076320662007
-46.3946514482656
-32.6280625561738
-16.5979245856842
-1.46123224510192
10.9859334355498
21.881214341964
33.5040750628895
46.3460607357052
58.6094581503341
68.6014207674039
76.8859829348284
85.4953715266449
95.3185810264037
105.043123813943
112.917741414261
118.971677540825
124.856107616693
131.642910276572
138.523513282046
144.06433187213
148.288322840418
152.809933481137
158.838016235381
165.636395183567
171.402610795028
175.389840610894
178.560258439556
182.047823931482
185.550425524455
187.771814242443
188.279094267807
188.282345742692
189.276387319987
191.281481701454
192.925302435958
193.213168102278
192.691223578256
192.570407713853
193.052707553355
193.084263872268
191.82762339806
189.877998089741
188.600840445098
188.433952751843
188.339090550834
187.086616844866
184.704878853641
182.272208707469
180.415493027552
178.523952997152
175.681264623486
172.036465628984
168.770984743362
166.67578651631
165.172146332315
163.027930683965
159.831551850304
156.348745301523
153.383530395826
150.699976878131
147.418933018217
143.320987461608
139.290742762127
136.280712013122
134.1289325635
131.764111246465
128.529987407949
124.924218326506
121.838897261548
119.347215603498
116.638187566041
113.153747903032
109.383795538466
106.226275169417
103.721438677993
100.821992682813
96.5414233958
91.0481836066232
85.3507392572209
80.0380796145088
74.7308718441401
68.9233441721399
63.0454310084139
58.2703560413933
55.2312173845776
53.2556270511392
51.0974588754131
48.2522420822901
45.2300914860514
42.5300213557751
39.7226592378785
35.8612486558771
30.676998466394
24.9813893148876
19.7276096623257
14.9216860625023
9.76348192883964
3.80847833208611
-2.35655356102423
-7.77188681088347
-12.2143207333261
-16.3246293321038
-20.6347741038221
-24.8137231310272
-28.1380249431076
-30.563822254652
-32.974387392726
-36.2445029953615
-40.2961390721002
-44.3215509873659
-47.8354385310305
-51.1728599705287
-54.8225585087033
-58.5380316362188
-61.4574663491522
-63.1198416326323
-64.0629304482891
-65.2103554226746
-66.8170269847565
-68.3031931100485
-69.1419287610469
-69.6054167368698
-70.3949488535472
-71.672431690453
-72.8062322289622
-73.1975384185592
-73.1147134603335
-73.4293944704334
-74.5711943352973
-76.0361633149786
-77.0644556067317
-77.5876134864726
-78.2167082304572
-79.321886018088
-80.4550900862077
-80.9109514680952
-80.7069158302982
-80.685538426043
-81.567826055432
-83.1487123891284
-84.6424075312423
-85.6963869717317
-86.7453146029279
-88.2717651197239
-89.9930262383811
-91.0894718871312
-91.2046341066388
-90.9075763726784
-90.9912596230134
-91.4975809259271
-91.7191423315297
-91.1531784656167
-90.1450998651468
-89.3833353424974
-88.9340226345241
-88.1193638042402
-86.4285755168957
-84.2690329254651
-82.5456924415137
-81.5807455210642
-80.7586522159296
-79.3487189475232
-77.4296958978142
-75.7189356474326
-74.5551982802398
-73.4005528299988
-71.5413561546836
-69.0764909217388
-66.8793282759292
-65.5501521076866
-64.7006250579362
-63.4880495204798
-61.6913864040116
-59.9235795959316
-58.7231064435964
-57.751804786903
-56.1869126698489
-53.8080155324701
-51.3370454459922
-49.5506696702306
-48.3009330641185
-46.7207361733016
-44.3499844960865
-41.7096161736375
-39.5721506090731
-37.8962546899145
-35.8489060131043
-32.9135854017623
-29.6361370320215
-27.0049629582483
-25.2421250090124
-23.5716750443654
-21.2778204595239
-18.6872899329669
-16.8005021257389
-16.0497662148346
-15.7964989346013
-15.2096395174507
-14.3577051552623
-14.0650144565166
-14.7028750338492
-15.4931064448586
-15.2525261601208
-13.6468355127595
-11.3769777400315
-9.12365716098213
-6.68057257845635
-3.41600901862722
0.583486679465594
4.25230938356628
6.57455837021524
7.60621110191477
8.19542093051079
8.80657238106673
9.00708963719042
8.26336889267033
6.93289326903661
6.07415194882148
6.2796008173231
7.06086289221182
7.60448832752076
7.90025472492178
8.73985214568275
10.5833914262728
12.8142498328115
14.4090908140338
15.1675455985282
15.8739901387146
17.1599278200167
18.5735481197158
19.1198549573256
18.5886338510241
17.9033987818874
17.9772136375104
18.5400294537703
18.4865002749285
17.3216279194961
15.8234892604412
15.043818520529
14.9528440513077
14.5314531180839
13.2273382150487
11.8709970758281
11.8043695884212
13.2941360511717
15.2588594154156
16.6538111393338
17.7073726564797
19.4041215478423
21.9172235571728
24.0893286903651
24.7003923793109
23.909416517718
23.001778048035
22.7681984295535
22.6186463635145
21.5592237690659
19.707457767167
18.3166963056732
18.2557672879611
18.9430142111158
19.1476880885495
18.6093021483212
18.340445607399
19.2186110925919
20.7453519940415
21.6384144577524
21.4871582441122
21.2696579318003
22.0242566226098
23.4283794505529
24.1854547622438
23.7233698552074
22.9362988441455
22.9456699473894
23.5076365765637
23.2220704117351
21.339434844423
18.8093595715577
17.161747956337
16.6690734868098
16.2262922779682
15.1288367662722
14.3676390860548
15.6242891063609
19.1804910799085
23.4687299884134
26.9098954990387
29.6759296930156
33.0681757798184
37.3350139124859
40.8736277654219
42.0043412521062
41.0924915507669
40.2238562946234
40.7697073563537
41.964884771848
42.3556864473917
42.2130976073743
43.6644125211425
48.2213907253774
54.8274222856094
60.9750775623598
65.5097933973495
69.5349424946566
74.2895501613562
78.832263186993
80.6492731773864
78.4853680979951
73.7469931055093
68.6390217278812
63.4404939456607
56.4355568207973
46.5093328108831
34.9014305931942
23.7479694366567
13.3607748089417
1.94766246435491
-11.7397100787373
-26.3158634764339
-39.0995742296913
-49.2302593259137
-58.451824294416
-68.4409147031584
-78.1696119225826
-84.887271425443
-87.5827568763407
-88.3932052913748
-89.9478452346587
-91.9330949841511
-91.3164905559272
-86.0564390022345
-77.6885643895212
-69.6760469348327
-63.8288990010379
-59.3167026499852
-55.0633386493817
-51.8405686107516
-51.2017225653735
-53.1009406779857
-55.8087886114739
-58.0559807853028
-59.8186932905611
-60.5184213398528
-58.5300023730075
-55.330765842452
-60.1581301700425
-86.6910315097046
-140.755315240758
-210.763057105212
-273.655709542052
-312.986184197604
-329.429644450862
-329.447849921261
-303.331675163243
-220.640751420758
-55.222515642446
183.353668437794
449.125101408239
697.571024736302
924.577141859425
1160.41093646436
1417.26066137015
1643.27554227651
1738.77606595101
1631.16793888321
1342.05821029875
980.579134170402
664.662023409699
440.069179378439
267.158432800735
79.2044799251058
-148.424523044828
-380.053112532532
-558.275984216445
-653.447586709514
-679.083905657035
-670.291592925391
-655.899405597421
-649.436647131596
-655.913897363734
-676.658424109932
-705.584379159777
-726.932035178382
-723.831076118352
-691.726240652003
-642.261455045235
-592.993128314272
-553.947268005314
-524.419911581388
-500.555515114576
-482.442703625079
-472.299785813541
-467.674503624959
-459.634230534129
-439.128442106913
-404.584568785262
-362.738122618403
-322.822329467409
-290.839490181809
-268.478598578734
-254.775748235714
-246.664823239168
-238.544875054366
-224.065601356696
-200.570547033389
-171.868413605008
-145.393378149222
-125.836243387875
-111.681564500693
-98.0601455909699
-82.3067541108434
-65.9726159484735
-51.7183101171668
-39.5397679485786
-26.9395984366414
-12.315662636438
3.02014208153785
16.5985140383643
27.7829455470277
38.1541845881685
49.1050449612191
60.0240956595815
69.3803937518202
77.0386014593052
84.5904394000097
93.2661473560233
102.247820617006
109.643077278178
114.847711318185
119.234860730998
124.350351324528
130.041563905486
134.947689182916
138.61850996829
142.401324870928
147.889350347732
154.930901636372
161.761897658531
167.065065704294
171.310000038895
175.736614038041
180.42249462092
184.003018193491
185.390759392448
185.223436727617
185.148007281001
185.866794043533
186.442995346973
185.696060163348
183.834221985611
182.238541489173
181.752679557044
181.73107852782
181.035963410796
179.61389670729
178.573161267743
178.687417604163
179.303898130896
179.078226288819
177.574560996551
175.682075439706
174.37693309626
173.494390711975
172.094522307687
169.872975580309
167.705390533559
166.579168724178
166.296731034878
165.639941851531
163.791875979115
161.204060769785
158.847732927325
156.881991967137
154.479727636073
150.993413240509
146.887935990899
143.197497718373
140.210357921044
137.091643879783
132.928710004298
127.850159631801
122.809454314257
118.374893965045
114.123450955848
109.385849257676
104.295518863911
99.7195447742768
96.1576150376695
93.0735890329917
89.558484011638
85.4720018595058
81.5828144963185
78.5422017796018
76.0432593644795
73.2459654887198
69.859780584766
66.4078574384392
63.3002086424451
59.9612001446609
55.2405240847068
48.677827367799
41.0512848645906
33.5261973052549
26.4972654209352
19.5779477666451
12.6620085487471
6.56130632923133
2.27553209739485
-0.231830157386476
-2.16514584174279
-4.69804336642732
-7.89265277418208
-11.0308348485198
-13.8500857129245
-17.0476137464183
-21.4062165800654
-26.7092240503906
-31.8944676087642
-36.287162206313
-40.3417407828075
-44.9422922092744
-50.1582247868992
-55.0408260178647
-58.7000389730185
-61.2712749369541
-63.5654469423301
-65.9218288605431
-67.7951264429176
-68.6071877690154
-68.7128436259923
-69.1705108754267
-70.5689076102993
-72.3953938139031
-73.7337061042844
-74.3722095761231
-74.914404639686
-75.8263360142834
-76.7481962899245
-77.0133653785835
-76.681246503369
-76.6728715413334
-77.7570549577044
-79.6512409540995
-81.378200479355
-82.4092625022749
-83.1313270012849
-84.0927552060125
-85.096856664899
-85.395101135697
-84.7469169228538
-83.9244693844466
-83.931456187145
-84.8831078299012
-85.9570534763485
-86.4533818748763
-86.5855237618762
-87.012148631712
-87.7932989245229
-88.2028553150706
-87.6681802442992
-86.5782397910396
-85.8418501402866
-85.7226107213137
-85.4582476487344
-84.1758542885154
-81.9334737156249
-79.5650857011986
-77.5894978503209
-75.6730913502705
-73.3739029853817
-71.1394622598465
-70.1259187345154
-70.9345512135985
-72.8330605861321
-74.4758242389797
-75.2347489622207
-75.4797796899021
-75.5392554298612
-74.8166760025598
-72.3339412422581
-68.0525723055506
-63.2139644845825
-59.1430692541089
-55.9511766586553
-52.7464188447746
-49.0455316939885
-45.5444740652524
-43.2565035098323
-42.1702306844328
-41.21772902921
-39.6245736129408
-37.8779322215534
-37.0146232818571
-37.1198870690888
-36.9878595471887
-35.4205447663107
-32.5329437556718
-29.4327365786666
-26.754942530828
-23.9972275123873
-20.5056506009351
-16.7477869928643
-14.0986350232248
-13.3139239594392
-13.624117102282
-13.6273523091454
-12.8565039743934
-12.0501806209539
-11.8740875820122
-11.8614183375937
-11.0108340616733
-9.23974723834718
-7.70846302442682
-7.49101419305536
-8.26301495396496
-8.70312581447556
-8.09935102118293
-7.09874905169767
-6.68230136736247
-6.78269111935386
-6.40932265550455
-5.11050028639113
-3.78490127933625
-3.68260251324207
-4.83952947994105
-5.9857120032555
-6.07168332452659
-5.44784724150124
-5.19779787722268
-5.56539434778198
-5.60031572007269
-4.49571794462108
-2.79255399552082
-1.75961263533186
-1.6915199708461
-1.37417491778312
0.50351443094381
3.767728971259
7.03656210174758
9.45377561123959
11.558894131439
14.1379676904629
16.6416085214725
17.418909153537
15.6403700261139
12.4676979940282
9.88711259280902
8.61926536085275
7.73522536352966
6.3910702428539
5.31139087132387
5.98402550436801
8.59005099020054
11.4572750003017
12.900373687399
13.1616991593258
13.9503050864687
16.1556486541624
18.6901023456972
19.9441869085441
19.9087411759616
20.1379931028469
21.5917982831369
23.2455575277507
23.3917632044335
21.9905728184013
20.9637352684294
21.9654242297553
24.4806217208457
26.7014575528687
27.9833783954814
29.5899346562662
32.7155964706226
36.4591102017641
38.5890289444149
38.2699870698121
37.2210254224056
37.709094776834
39.9088701187722
42.0448291405374
43.1067324898615
44.5053785482608
48.3776041111671
54.6892351970902
60.9802496836247
65.2092104887905
68.0551014744416
71.6566114866969
76.4037561369975
79.9905379397354
80.0146690073979
76.7475960176799
72.4508183052075
68.1755050955269
62.3471113372997
53.0878930253572
41.206093729022
29.7735908774085
20.6829294995619
12.6536505422671
3.34248228393971
-7.22554481053574
-16.527608894522
-22.9844883692828
-28.3725886655505
-35.7909932530783
-45.6394499204617
-54.8776829458892
-60.6807360760642
-63.8022424480813
-67.2252030994309
-71.83736464166
-74.8394338035275
-73.0361707558568
-66.7163243949504
-59.09905148195
-52.3212069278872
-45.5432843404414
-37.6303099424318
-30.2851443356433
-26.7501389505625
-27.6228613760102
-29.9559022101923
-31.5055814433234
-34.1868634445686
-40.9722276750819
-49.8934752991123
-54.8073545388285
-54.8862345450391
-61.3905711133884
-89.7971097011307
-142.341615879894
-201.053661412798
-242.832392789228
-261.803507005112
-271.373024517794
-279.134890077423
-262.099903062325
-175.919330330554
3.7106044408969
249.770680815777
501.361601610554
717.722110639628
912.468345239462
1126.90944823352
1365.50412030391
1561.80829717664
1617.28197492074
1481.54819603518
1198.10423968799
871.783092170198
589.978268587385
370.677852957701
177.80208203431
-23.0126132181387
-226.953663142726
-400.113472737409
-514.99616117529
-571.311633572524
-587.877216905132
-584.200868127505
-573.642182222203
-568.144582178719
-579.383023792639
-610.150039223289
-647.252111804587
-668.430264876147
-659.282578396397
-623.492037398807
-576.830423467643
-533.128124095512
-497.201764115985
-468.991843583617
-449.740469352856
-441.153602551153
-439.897624575839
-436.582124790308
-422.252446597251
-395.336579316252
-361.324987946339
-326.535718522182
-293.937248105021
-264.967036670231
-242.706508747925
-230.312926955699
-225.94919365295
-221.426181595235
-208.035410028546
-184.081881254923
-155.891742139205
-131.25015318264
-112.607753309909
-96.9716896006745
-81.2076000208037
-65.7515215411888
-52.8725800271718
-42.8014413413856
-33.0953912274473
-21.7068913882413
-9.34883175250837
1.89853234653697
11.5738448350084
21.299294746672
32.2556509641104
43.2725012059671
52.1985618854814
58.7171233442527
64.8255849361737
72.3327444811917
80.6755407461296
87.8863631590268
93.3619098158001
98.7540617282804
105.828073777141
114.110228604461
121.371979450279
126.280417703467
129.805173842385
133.705252168586
138.223290548597
142.003152951651
144.194044279569
145.829694169379
148.612784704977
152.708486510138
156.450277385156
158.34432516618
158.792825658654
159.39609214397
160.865691003385
162.300014026228
162.672756030246
162.456428926901
163.184278545982
165.512888631657
168.31481649975
169.971003021698
170.194048973962
170.098009455369
170.552503457094
171.026833898243
170.369808294983
168.39101587011
166.118210802533
164.419974218528
162.839709603952
160.171998151792
156.018173819644
151.323094014536
147.273702833863
144.04711762438
140.983251652218
137.808444647178
135.179419732144
133.800470434921
133.314473109033
132.484337770845
130.485225848687
127.686050151104
124.987284575083
122.648413408372
120.125969439632
117.037261025257
113.870099239828
111.435469348449
109.763695795597
107.906220674583
104.93909475325
100.921860119065
96.6513185010685
92.6075389146621
88.4693651489229
83.7479792315736
78.6003082384476
73.6943920089819
69.302037364861
64.8354695971695
59.4673129716687
53.0693226656416
46.3167176858329
39.8983862051228
33.8843320446451
28.0041779555154
22.3425224290618
17.4306319156534
13.5708342499632
10.2935898557193
6.70322726503201
2.32406024981124
-2.57309223775278
-7.49611979039446
-12.3631129556791
-17.4305007006051
-22.6940034166436
-27.6431576168115
-31.7560009945914
-35.1102103691191
-38.3055921127696
-41.7712297943057
-45.3104739408754
-48.4129270385492
-50.8829460442487
-52.9771251184584
-54.9369677943598
-56.6024459455242
-57.6528388738314
-58.158331723864
-58.6925780111175
-59.8145124012174
-61.534202331317
-63.3868401087474
-64.9648888510004
-66.2199267683409
-67.215500608436
-67.7625881105366
-67.5036651769397
-66.3771099974806
-64.8515640641691
-63.5891142571801
-62.9177931988585
-62.7242890338689
-62.8299823313987
-63.3133693704962
-64.3611831499992
-65.8859824873445
-67.4656454555828
-68.7284869515647
-69.7037530786224
-70.67868115969
-71.7275080894462
-72.4993273255618
-72.5298170546476
-71.6919009093766
-70.2486272920114
-68.4951951095956
-66.492481088424
-64.2449862722608
-62.0671046374399
-60.6036971615479
-60.3858826012336
-61.3891847396089
-63.0815628312996
-64.8787941700076
-66.472300270502
-67.7070063174016
-68.2762369071057
-67.7213976189547
-65.8090934959818
-62.8407078387239
-59.4863547809807
-56.2886597985049
-53.3718464850116
-50.6401598727097
-48.1669398200258
-46.2721808024841
-45.1995682924105
-44.8138785410455
-44.715114720262
-44.6411946952131
-44.6611199238839
-44.911404107048
-45.1987255846724
-44.9773085502125
-43.7702907192435
-41.5686761871823
-38.7654028489033
-35.7402438864272
-32.6185884415679
-29.479445345824
-26.6931224107356
-24.8765383312098
-24.4228189222987
-25.1199336400058
-26.3152113883353
-27.4557065558547
-28.4012467363288
-29.2052368252909
-29.7196373504851
-29.5785094324899
-28.6015193569766
-27.0882922723983
-25.5815153094688
-24.3386437648011
-23.1309078877745
-21.5941621865247
-19.681882176281
-17.6707838334349
-15.7638281563339
-13.8503379866299
-11.7518201330319
-9.61530865686435
-7.89992692458925
-6.93304759241224
-6.59279337518108
-6.52449755365255
-6.60119994139673
-7.01614756712692
-7.89234462522572
-8.95875921265942
-9.77208806362955
-10.2216416251618
-10.6310517947019
-11.2713092922111
-11.8988122514345
-11.9529444564082
-11.2053503572099
-10.0321397610861
-8.9344966004127
-7.91542574491781
-6.53940179517954
-4.62088033807551
-2.63147085368756
-1.23708840631927
-0.51012862440777
0.165716364735658
1.33448747385759
2.79795268384149
3.89230154444476
4.35104214268711
4.62304436025269
5.22164580569131
5.96844328514619
6.16684078325704
5.53120981383957
4.67448192627749
4.48923282323996
5.18603485936502
6.20814035373255
7.09859727788555
8.14107511412192
9.89840890661412
12.2596069285585
14.3069376399261
15.2620679963488
15.3269444011276
15.3311247123932
15.6504746957887
15.8278945405698
15.3920539782464
14.7465267437856
14.8688439091189
16.1477535850465
17.8979549334789
19.2562086688574
20.3259190684937
22.0503771102204
24.9475834869879
28.3805481072814
31.3735045516587
33.9220249291199
37.0209890420371
41.2927734001472
46.0001656545415
49.8078034969189
52.3720726232661
54.6896375165413
57.7147692998356
61.0473905971445
63.4414580987921
64.4750704162335
65.1266215159953
66.4066637459257
67.8159642254702
67.7298715042451
65.3010466643015
61.4056486835776
57.3532212816982
53.0549292216912
47.1370847010638
38.9266993978942
29.6582968653828
21.1688845158145
13.6827915432428
5.62165684735963
-4.20317992948147
-14.8385117495652
-24.2082892938379
-31.5942944681826
-38.2932049823798
-45.5875736530482
-52.8262535919275
-58.3204842763842
-61.8939779180648
-65.4902516469184
-70.7435074820544
-76.6619865552585
-80.674950994981
-81.7645321114001
-81.2869078490116
-80.0159559989924
-75.4257020190209
-63.7022407114504
-45.00956925272
-25.5661925339333
-13.1302241465878
-10.4261931614047
-13.8629044984634
-18.6048549778228
-23.5190969110444
-30.5394780991686
-41.0865276120669
-55.9829900591727
-79.00073564573
-116.578934538101
-169.705351382522
-226.186607681752
-265.748593578289
-276.934071135116
-267.429824637748
-252.025524863391
-227.553864996403
-164.233509556376
-29.7948304795071
174.674445556788
407.887248478563
624.588100198551
819.608270526907
1028.33219732131
1274.36520037893
1515.52990728297
1650.71877597189
1593.24814005446
1346.45494009943
1008.54358041065
698.915351550039
472.579893197622
297.953659796421
109.945085645251
-118.991477245113
-355.040435349297
-538.245294664995
-633.80238535968
-652.280751617872
-631.210595952707
-605.753447585315
-594.768275671193
-603.474334937046
-628.650598850534
-659.505606284183
-679.973730817662
-677.280470355479
-650.619029208279
-610.310568182875
-567.984393797163
-528.789818986817
-493.384529118857
-464.631922045705
-448.294234961213
-445.7122126398
-447.999792772608
-440.596199225506
-414.813866561713
-374.514477594597
-331.508132217534
-295.583387675465
-269.454098434848
-251.383523652668
-239.398959472091
-231.487152577228
-223.550598236408
-210.348452421097
-189.797658416538
-165.255634295351
-142.182342667095
-122.762753868158
-104.938195071445
-86.737434592863
-69.9618863321418
-58.1681790269533
-51.4514145974839
-44.9489021749993
-33.4553465776444
-16.8123227450096
0.339068717544725
13.9583515935654
24.5677558877718
35.3860073661148
47.617230102894
59.0125769530943
67.1378696383958
72.7098258401036
78.6577615541767
86.3986705234785
94.336493808971
100.400876293937
105.044558820987
110.672288224982
118.351310679175
126.251734565879
131.896062087147
135.246472431355
138.622275937633
143.660654763223
149.345878546384
153.578984376887
156.047747206321
158.549454142316
162.420426369991
166.582972625502
168.84522961377
168.744742844652
168.20522595297
169.185293221576
171.415905461905
173.099643793583
173.484469504063
173.818985974719
175.460643573456
177.743338808886
178.519656711083
176.728825407603
173.665697193747
171.344813054375
170.13529067094
168.698262568976
166.145366231524
163.436603203191
162.147960184763
162.297642191233
162.172189758308
160.424786766925
157.714249365457
155.778597067755
155.207018331709
154.813906201824
153.322827667809
151.019856378345
149.16907750191
148.043058828547
146.286715091518
142.539349699312
137.213553504788
132.1018541397
128.328021126775
125.287853792657
121.846506698377
118.061323263518
115.073391457863
113.341470618499
111.661354069109
108.39123313609
103.36468783458
98.0326144668128
93.674164070988
90.0015406250573
85.8884556596723
81.1153372976029
76.7271894672131
73.5280093025437
70.7765016650074
66.9061980194989
61.4033833955762
55.4237118043569
50.3663291170031
46.268352754401
42.0444777897928
37.1117629886811
32.1408407804161
27.9305922825939
23.9886094576837
18.8356071985268
11.7548945337553
3.74957451737215
-3.53362148811221
-9.52435669601567
-14.9214575172315
-20.2627765036711
-24.9210059682795
-27.9365247331916
-29.5578562225839
-31.3359483489118
-34.499331215606
-38.630088066122
-42.311824393711
-44.8797148180985
-47.0216201277483
-49.5606388817152
-52.1663084049772
-53.7825755040013
-54.1990168544939
-54.6025637720461
-56.2662121356909
-59.0113236565661
-61.4201729159487
-62.5141898228639
-62.7396061333915
-63.0793455332737
-63.6105500085984
-63.5150017726523
-62.5262675499945
-61.7903321426161
-62.8344001982952
-65.8507798235251
-69.4680142809599
-72.2938779364482
-74.2521183485909
-76.0767365899752
-77.8022570742995
-78.4007411391661
-77.1269695330206
-74.7712454471959
-73.0524975993043
-72.8027668314046
-73.2076675150727
-73.0292934448099
-72.1951924825306
-71.7253812867667
-72.2060194867669
-72.9285502199987
-72.8769148169515
-72.2294762318939
-72.3066143311206
-73.9307655537968
-76.2821874091947
-77.7268869588386
-77.5576906165679
-76.4590011094334
-75.2401624368517
-73.6547669594001
-70.9265411725396
-67.2348823833146
-64.0582802781457
-62.7538288641064
-63.1050348518259
-63.6670017005842
-63.4380979572284
-62.7229145331477
-62.198992720791
-61.60259629218
-59.9053910886814
-56.7798704654771
-53.3428874444106
-51.0623538612997
-50.1383826128169
-49.4013960715417
-47.8220971194833
-45.6695575192181
-43.8906984498776
-42.6723913206192
-41.1970359418449
-38.9331607458513
-36.672675185565
-35.8076360213746
-36.6762839340635
-38.0868751993201
-38.6302942927704
-38.0931772348684
-37.2221482716385
-36.3220389615993
-34.7001704068125
-31.7551539066719
-28.1996460275153
-25.6325667006229
-24.8476649368327
-24.9950870550133
-24.6635285935823
-23.4793918508884
-22.1970859023188
-21.3061211334371
-20.1638847576518
-17.9164966168126
-14.9842163465688
-13.0116965523509
-13.1506773603003
-14.778608600011
-16.2696194278552
-16.815109977208
-16.9767278215303
-17.3819434193847
-17.4515317816385
-15.9792692185698
-12.8488358761673
-9.55432774387926
-7.68677782343626
-7.22191430867227
-6.75573772643668
-5.33932085630233
-3.5309872042284
-2.38292294121568
-1.83944234612898
-0.776316924320717
1.33972543052015
3.43313438175813
3.92020295224008
2.6039802515346
0.940440295814071
0.342040512717574
0.715443530777065
1.05693202775993
1.16092826626867
2.03269252647635
4.39559032284942
7.33378633174897
9.03084352946878
8.8035206693438
7.85161355728854
7.7582500783854
8.68589671685901
9.56631082789764
9.89814522158264
10.6181168632831
12.7853881712305
15.8319186557077
17.8328089038975
17.6301886852926
16.1459030561087
15.1975685097604
15.3555817965161
15.5956752191543
15.0829885933696
14.5732995553425
15.4483060444168
17.6363711159004
19.2815128372877
18.788604029947
16.7003263770388
14.9883508913149
14.6761503705645
14.8727522312012
14.3987480385945
13.719478283394
14.4862674318437
17.221225322848
20.2699011462108
21.5774014539796
21.1172081647988
20.8586283258369
22.3206806772625
24.8940146584071
27.0595125670726
28.7631480361131
31.6668660850807
36.8694729864005
43.1634618565871
48.2789912123286
51.6014366907292
54.8077181992517
59.5496571510181
65.2188294977803
69.731463154798
72.2301470841693
73.9947472825302
76.2521025333878
77.8448375922964
76.0910487993772
69.9716760957442
61.5412606076587
53.6140685776792
46.6398114006193
38.8047351657912
29.1467337005512
19.4136413799461
12.0090988402525
6.6629067062858
0.381662120677682
-8.97235756607186
-20.0206710934949
-29.6534253145338
-36.9748559871287
-44.1714693778046
-53.0790367966863
-62.0609622722658
-67.6218097236458
-68.9164920570758
-69.1747620185136
-71.8093351877284
-76.024379615662
-77.7739917127952
-75.1695519453054
-71.4476897893299
-71.370522896948
-75.2385021832454
-77.9412449487925
-74.3144083721273
-64.2782503533191
-51.7570881949853
-39.4220617457411
-26.3719031862072
-11.5661194815885
1.83861903665671
6.93994442813762
-2.5863730312691
-29.7552439981756
-74.9379025021626
-135.905823845649
-204.792953433649
-266.83537567292
-306.866393501105
-319.503439051427
-310.045270369986
-280.654960401293
-215.840366377743
-88.2905092293816
113.921970524984
366.22807439256
621.070102170345
848.948558066712
1063.66506741231
1296.98254948383
1541.00793487035
1719.6146118576
1730.64076029489
1530.32265741686
1181.619369492
815.19812031579
533.663250055597
344.476437948092
178.911597779054
-27.79102401258
-273.40651262939
-496.264439327965
-635.171540078666
-679.456573697057
-667.926595773073
-650.048004882767
-652.120726954973
-673.574572911999
-703.184049200687
-731.579916076375
-751.342201246841
-753.958239140094
-732.866334339802
-689.463575482
-633.541704260982
-577.131957369269
-528.973475523912
-494.403637058808
-477.031500925623
-476.709912108902
-485.525869114483
-489.001986099156
-474.760131535655
-441.2576194417
-397.631450250887
-354.995184144012
-318.585796218497
-288.040272172874
-262.898122656968
-245.001268606995
-234.933289971243
-228.175881718748
-217.134486684322
-197.428762746562
-171.231657324917
-144.090565175267
-119.524838162656
-97.6539846456573
-78.1975589075801
-62.6082202556445
-52.0534297633814
-44.3274551311217
-34.6918321138693
-20.4594594650035
-3.83237412206153
10.7104011747218
21.4409486989502
30.7902744743967
41.7036819337044
53.7888121504299
64.0797188311248
71.1596838083784
77.1769017944993
85.2160852842335
95.5282284299912
105.43462656853
112.8310608682
118.647878785189
125.214663646404
132.915675830189
139.627752205402
143.613898109609
145.976680184502
149.423831931277
154.966167837797
160.810719161756
164.76894165868
166.954176985229
169.325214790863
172.869596802508
176.25551087997
177.707649943973
177.548310007315
177.996541876052
180.4620102327
183.841837576212
185.969887851974
186.260332826611
186.139306493728
186.866961151876
187.762030388778
187.192711637303
184.958126037071
182.841026124123
182.548735165818
183.6968980272
184.40740213687
183.667124352079
182.36947194224
181.801699283753
181.728473048456
180.675575600444
178.013216511123
175.01296162892
173.407432378132
173.28526480212
173.02911703495
171.326299633626
168.60850713323
166.109142369573
163.909208341944
160.651460518567
155.339461302699
148.832449367152
143.013976161581
138.657339197144
134.717686146608
129.917434713506
124.521298800981
120.004352223204
117.110902167975
114.891538404402
111.974080180263
108.365667138308
105.393992350343
103.852007822214
102.765986534197
100.389417497531
96.1415529253454
91.0357512435887
86.161242354088
81.296203121411
75.4618170502235
68.6002564446048
62.0684897248027
57.2205460400207
53.8795101302033
50.6480910471878
46.6167601585006
42.2630762447092
38.4766286076149
35.1267161803623
31.1316894028367
25.9268789537124
20.3379374750632
15.6492232968222
12.0487301199709
8.45632853249825
3.92659949999523
-1.22257894115251
-5.98914776375666
-10.1244567585733
-14.4684211729226
-19.7315908118042
-25.3724910105793
-30.1116323724215
-33.4573744688444
-36.2681432424792
-39.6270461749105
-43.5028196674588
-46.9205591086399
-49.3568101694841
-51.4713678162009
-54.1989883880365
-57.4234459539909
-60.0258660951087
-61.2878905424342
-61.8342426278339
-62.888235217247
-64.8084332761771
-66.7887555900223
-68.0529176751819
-68.9186620788539
-70.3191576524464
-72.4435242038708
-74.33948482238
-75.0506297102227
-74.8253012515263
-74.8234838174566
-75.7049392244075
-76.926554950114
-77.6183839875286
-77.8274477950335
-78.4616868924114
-80.0184390902161
-81.810799704163
-82.7549444786571
-82.7154750516942
-82.6560722564856
-83.3993255752224
-84.6108619745679
-85.3090130389351
-85.1888282258642
-84.9956949116429
-85.4669327435804
-86.2699428271071
-86.3746816293618
-85.3973850046588
-84.1553113423888
-83.6928300337259
-84.0338753660041
-84.2614413478291
-83.7759835525431
-83.050778024468
-82.8962739705034
-83.2362379827315
-83.0519842215796
-81.6079676282562
-79.3730149616361
-77.4374625380696
-76.1865659662582
-74.9455211476852
-73.0165620657989
-70.7026589122848
-68.957558420152
-68.1386267272438
-67.5288732949028
-66.2708576315199
-64.4836485238044
-63.0928683785695
-62.6049220253674
-62.4437800098681
-61.7118424063318
-60.348763670208
-59.1477968032208
-58.621883750779
-58.2475503236986
-57.1099100524087
-55.0978809778904
-53.0510772832113
-51.6432081558477
-50.471572064616
-48.5656111244638
-45.6554012998525
-42.5306780413817
-40.0212688808289
-37.9596930667961
-35.5157582322078
-32.4661501899394
-29.6939637070436
-28.2019862574734
-27.8866138446256
-27.6638854550785
-26.787669599084
-25.6446523493728
-25.0058544573349
-24.757132614387
-23.8306609128412
-21.4794965436278
-18.247648752828
-15.3536711297875
-13.2664909180998
-11.3084610038033
-8.77698227055515
-6.08666989684998
-4.40918625762334
-4.26347914367361
-4.89247168055724
-5.23571221309879
-5.21955965406913
-5.68071605216119
-7.04625074066696
-8.53404271007949
-8.95376005457139
-8.08302805507076
-6.83794958964221
-6.0403801745947
-5.41427490068169
-4.11147083693952
-2.02499891645334
-0.103524055979804
0.785139048252333
0.952247814870475
1.48880126326992
2.87819834368314
4.43344469297524
5.27971434212529
5.55915512293745
6.24799741168343
7.82985535473921
9.60347444710106
10.5717373969046
10.7529276259312
11.1718323606542
12.5196029514656
14.2358964351758
15.220486748363
15.2339085831468
15.1394643358203
15.6818445303797
16.4484922950027
16.4207542992507
15.3963200211263
14.3768579176031
14.3649804525881
15.1297167807675
15.5643091520432
15.1643015580537
14.6704216204724
15.0346523786519
16.1138740828838
16.8753624224953
16.8758144776121
17.0319306478541
18.5910558693801
21.5965054842697
24.8524319324971
27.4381532287183
29.7668441979883
32.7808846072113
36.3766325440764
39.2319164899787
40.3760098607038
40.4818097233549
41.1373388396074
42.9823031629938
45.1262212184548
46.6171035753674
48.0128040805018
50.9154368857217
55.9859073958345
61.9991921814754
67.2007637367544
71.2277346074143
75.0976417482852
79.2904436429196
82.4752938152428
82.6269175556418
79.1593728097858
73.3628490522436
66.6397149413366
58.895653810825
49.1759724141996
37.6034288284218
25.9136754462262
15.7608645177176
6.98806335092193
-1.83501093685115
-11.3051457509485
-20.3230205080111
-27.6430463264223
-33.7424330594241
-40.4132366365072
-48.4877420765742
-56.6565233602627
-62.9842336073647
-67.1921097375294
-70.7318217888628
-74.5355204770299
-77.3330379428209
-76.6540032848468
-71.2100594109402
-61.8524723185619
-50.4979082784925
-38.989003216458
-29.2113990152861
-23.2220495208188
-21.9069995795463
-23.4978421875448
-24.7407159244819
-24.4501573838371
-25.1830000191851
-30.1370367701534
-38.7673935631059
-47.647655829944
-57.0213424143417
-74.661222488138
-109.494289770031
-159.798716840547
-210.275291976146
-244.516370299473
-260.197126265146
-266.996352938343
-265.078328062866
-227.790108147916
-114.057111966426
94.5978800467104
369.331562565025
652.328181836524
904.749731990088
1134.54070183785
1370.1332502532
1603.39105589787
1763.84618884575
1760.41509608579
1558.13201220447
1216.9171247765
852.041403644683
550.760719431675
320.67660480089
111.895157253774
-116.680775286389
-353.513153814189
-549.036875445943
-664.408407010925
-702.9224267923
-699.601198880263
-689.100723384377
-686.620478831962
-693.165578207722
-708.400458889978
-732.487951445135
-758.371420250032
-769.720495140479
-751.552370650599
-703.363345390697
-640.561891688599
-582.906856684499
-541.931030931826
-518.073145595043
-506.267160487785
-501.237517262165
-497.82455011171
-489.616295142338
-470.496134740736
-438.357175577877
-396.609106729765
-351.86209122557
-310.703593391861
-278.403838735961
-258.539184401313
-251.165869215509
-250.586857282583
-246.732404767584
-231.371891196392
-204.309766231082
-173.218367547971
-146.748967554303
-127.614868417598
-112.199535861778
-96.0064280414079
-78.3564783562127
-61.6744396546003
-47.4796690842617
-34.4831792649296
-20.661331926928
-5.98198948469055
7.86104749136488
20.0144815163508
31.668457883327
44.3204185417776
57.5575150867916
69.3827885488171
78.6507183162593
86.4118130353615
94.4788193971948
103.169469377191
111.134794723686
117.336978205779
122.461508599018
127.93617673666
133.960951832956
139.214846788144
142.626988870865
144.879444018197
147.704880102202
151.928696480855
156.755311698109
161.072865614547
164.93047303449
169.255212314366
174.306102893989
179.022861822465
182.178767959542
183.836473630425
185.229845534785
187.27185706747
189.622339216798
191.406611194576
192.476885522178
193.488602179282
194.7597492414
195.550033968166
194.816542713184
192.502538964073
189.688550417902
187.422523839439
185.740890880886
184.064421927788
182.29787060028
181.075400254521
180.818546628847
180.922539807674
180.242943382017
178.325173982599
175.820378449752
173.582915539514
171.639883451549
169.329924590166
166.328232212998
163.128495819153
160.338151205464
157.771116080215
154.607186514473
150.461813820781
145.98319022754
142.192090325009
139.401220177315
137.057159664788
134.603785084985
132.146609430291
130.037508971931
128.004622164496
125.094132088667
120.616062786518
114.932054308458
109.088003486601
103.758508183672
98.8087793729448
93.9179550927793
89.3151774380825
85.5916313441492
82.8453245007687
80.3452118078906
77.2338775197186
73.4194265185664
69.548037916876
66.1274805244126
62.9309727076446
59.3846002827889
55.3370850719586
51.1593686550384
47.078685553131
42.7023956628608
37.429572968678
31.2486991014809
24.8867907021708
19.1075286192475
14.037713334995
9.31428235612089
4.74350707611309
0.532134902654164
-3.19814492927157
-6.88127097022493
-11.2279300037713
-16.4752204648898
-22.1040752907383
-27.3853988035391
-32.067541776294
-36.3823492303115
-40.4765833533121
-44.1121433687228
-47.052867055846
-49.5720928647376
-52.316644070849
-55.6207280239482
-59.121894298869
-62.1676082644401
-64.4944996793674
-66.3455107494325
-67.9655870980844
-69.2313931739801
-69.9390498102796
-70.3293488720536
-71.06385899348
-72.5849160869809
-74.6376145296741
-76.5632234211868
-78.0001994577845
-79.1319253430117
-80.2450282035172
-81.2654763542137
-81.9228578468924
-82.2993710724136
-82.9638137219984
-84.4263371672854
-86.5639403734869
-88.7374518569298
-90.4489051982174
-91.7235906717256
-92.8060304855921
-93.6701946940822
-94.043517396933
-93.8910592022814
-93.6418221140098
-93.7716562403301
-94.2381214358405
-94.4976052835573
-94.0962930154592
-93.0959059349377
-91.8428101529959
-90.4706295390108
-88.8508537715898
-87.0437810593194
-85.565643648308
-84.9967849776941
-85.350319479651
-85.9959612570363
-86.2598555924899
-85.9722822593164
-85.3330142188843
-84.3761967247458
-82.8245812171505
-80.5509284985909
-77.9893424256007
-75.8544658602297
-74.4354113111954
-73.3268576547467
-71.931746882544
-70.098287472058
-68.1153502265333
-66.1596105562367
-64.0017969288905
-61.3888602282183
-58.5592613989419
-56.1251952059315
-54.3897810397586
-52.9514683831816
-51.1189450346099
-48.6302258680618
-45.7946469920766
-42.9518119043827
-40.0344686979954
-36.8429659755227
-33.6320396534639
-31.1373496882927
-29.8880313945107
-29.622597373767
-29.547931606297
-29.1302001872057
-28.4521184389224
-27.7684648428599
-26.944483771727
-25.5759937618326
-23.6265522818467
-21.6762921242216
-20.3637585780882
-19.6790982416529
-18.9975191691396
-17.8053336812296
-16.1974346280285
-14.5629134719569
-12.9624414805127
-11.0826610048276
-8.82736177581326
-6.69596321424515
-5.34911949309177
-4.8548535894543
-4.58087272484051
-3.89312672898961
-2.78649533974162
-1.68162932771551
-0.732383753345175
0.377450952669321
1.86013246543099
3.27576718188686
3.82919072292373
3.22254148555518
2.00509853292971
0.97145745436822
0.365331475157632
-0.132767626213209
-0.7055909757199
-0.984732966523694
-0.498338653778546
0.635540820524099
1.74540155953628
2.38326404251262
2.8510842336194
3.79266105949652
5.38396480073737
7.16349395536567
8.67189256470564
9.99323263457208
11.4574403864878
12.9424073439305
13.7968425566655
13.5768500074895
12.6527985768953
11.8522202471109
11.5561094202096
11.3976095088209
10.921150908931
10.2817865087276
10.0185451831784
10.2103536800034
10.2114921866639
9.43122721024044
8.20086783189907
7.5681017694323
8.20645972536951
9.78228940829165
11.5399809596046
13.2826055597283
15.4264590376861
18.073655272034
20.4086510493591
21.3486969112585
20.7188685683749
19.467800725352
18.6268505127731
18.3180491785251
18.0281362059131
17.6905964448972
18.0628449143487
19.8537231802266
22.766152284057
25.7826790885431
28.3879010457649
31.1478466840594
34.870529839843
39.4272057565364
43.7714484370516
47.1263530677939
49.7772935297127
52.445270318342
55.123202906419
56.9969226618103
57.6338209528544
57.8926405880745
59.294774484706
62.5583873605583
67.0658768915673
71.8108188196975
76.4762603337876
81.2279688805521
85.6163700691066
88.2205905523814
87.6719498342517
83.8134317217571
77.5317505028259
69.5426097719652
59.7607346290669
48.0167997193809
34.9898010391227
21.9162708710549
9.36917163492428
-3.20677251037156
-16.4448037289465
-29.8034432983957
-41.810074002885
-51.5762600021155
-59.6563992057965
-67.1567048284404
-74.3010095768102
-80.3371457837939
-84.8084215389126
-88.3623530555385
-91.9557683080294
-95.5470696138837
-97.9900754756314
-98.0196101706683
-94.697986806316
-86.8580509302517
-73.23097844683
-54.4535392454131
-34.9678411995384
-21.4442952027819
-17.8357445669203
-21.9493300968461
-27.9009335614917
-32.3003503137595
-37.1121373966491
-45.7869668704211
-57.8966901689808
-70.0622229522153
-82.8758645297071
-104.2636794033
-142.248290449116
-193.428749161905
-241.425579282178
-269.759468877588
-275.465342869131
-265.899719674652
-239.969778371849
-176.331000079076
-47.3810208145023
151.428945082231
389.93849554172
627.776376944591
852.625043254346
1087.93899094972
1353.28958463122
1613.75500560686
1775.95648716969
1748.11430670254
1515.9506401614
1163.29738187656
813.75903249797
543.171628869758
339.166833999797
138.107504690812
-101.932982010752
-360.710690042818
-577.748420951505
-706.211623745296
-745.909854716772
-732.641100875959
-705.076658806742
-683.703045976972
-673.714993501868
-676.799235357029
-693.949617372096
-719.133710623403
-736.815141954718
-730.53685660356
-695.111197206657
-640.162997911637
-582.272065385182
-534.228443383093
-500.521149062563
-479.758158693129
-468.360602118051
-461.675343482909
-453.925140579495
-439.729632830324
-416.692264991245
-386.252298018655
-351.922542501493
-317.160313121786
-284.993311186837
-258.534357193321
-240.093848756976
-228.876593425749
-220.091489410626
-207.556535096375
-188.039169017954
-163.292034519884
-137.941155565581
-115.565204192073
-96.7177345665346
-80.0307668171906
-64.3041196005701
-49.228371595061
-34.713379832422
-20.4145318699993
-6.20194869928804
7.3486997957825
19.431486362857
29.9755496468583
39.8163896100311
49.7932969460402
59.912943918851
69.6129899677223
78.6896233165547
87.6067662871241
96.7869364988668
105.874148140932
113.999355082638
120.746289197263
126.596653189132
132.320985995942
138.131815500914
143.656313732739
148.656072927771
153.453883715703
158.478127487243
163.556022563165
167.941244163483
171.099497482511
173.284688529413
175.21006070327
177.268511393592
179.278046973346
180.983665651963
182.557018823226
184.392804129754
186.484229702512
188.244911346215
189.069502488893
188.963615909718
188.481909275236
188.089034792266
187.751976002617
187.211943703711
186.484426649219
185.879512373662
185.520460638786
185.032791193274
183.86666817583
181.891974295832
179.546623525904
177.375942725413
175.540027466309
173.8497287184
172.184210237968
170.681769616193
169.453917735388
168.242290376664
166.530739452876
164.032630768728
160.978420219888
157.866802362547
154.993392959943
152.302080986314
149.652312123202
147.07364322296
144.653249444253
142.238759047683
139.412491161481
135.846309199847
131.639327140308
127.234946846433
123.015345580899
119.040366428448
115.180584689833
111.392791955568
107.745899161908
104.183248003229
100.390320599771
96.0196377379512
91.0579553726803
85.9065920413599
81.0628616713251
76.7465995452924
72.8515841053863
69.1921933196337
65.6830656001576
62.2351315904495
58.5622641050878
54.2319792798546
48.9844918332418
42.9830416627287
36.7041314042019
30.5767915872995
24.7467512789703
19.1625241751937
13.7958263089405
8.69322973512455
3.82631073944836
-1.00385260446888
-6.01780166008214
-11.2039280973681
-16.2647468908274
-20.8517601866983
-24.8443351731893
-28.3879210906101
-31.7002068433365
-34.9090356193746
-38.0941766100538
-41.405725559422
-45.0239387200533
-48.9509689933382
-52.8866878687574
-56.3852878689677
-59.1676506642325
-61.2755678345634
-62.9383501420574
-64.3513495728872
-65.6292598884151
-66.9272624662743
-68.4823321823075
-70.4381005848297
-72.638161426581
-74.6739491896142
-76.1955992961114
-77.1733566778764
-77.8442650043156
-78.4467802293891
-79.0754596329745
-79.7923409293589
-80.7717291209394
-82.20799550043
-84.0523101828932
-85.9226906189381
-87.3663031904589
-88.227897967335
-88.7308772748967
-89.208534460461
-89.8242557882322
-90.5879944387318
-91.5634891695393
-92.9105317661439
-94.6491866756065
-96.4473567505249
-97.7604777063734
-98.2318595049528
-97.9271154168323
-97.1653737708845
-96.1894141894429
-95.0744139707705
-93.9180877657288
-92.9656933349762
-92.4242304349445
-92.1776988086052
-91.8075007500283
-90.9651115463396
-89.6876521757019
-88.2962396133245
-87.0272837063096
-85.8622132133319
-84.7300974473709
-83.7462175015373
-83.10310501691
-82.7221041089651
-82.1482499809912
-80.9049621653326
-78.9365218996974
-76.6236389111147
-74.3688854942704
-72.267024366178
-70.2306026561457
-68.3256899684204
-66.8002168977815
-65.7231368118857
-64.7186122583743
-63.208136401645
-60.9318224706502
-58.1425167455088
-55.2613219688453
-52.4485614716596
-49.6146906475098
-46.7848803677871
-44.2552542604066
-42.2774209560983
-40.6830941226833
-38.9940387911931
-36.9454290857418
-34.78766283652
-32.9858362604128
-31.6982060645353
-30.6863599501445
-29.7239291903718
-28.9016074409019
-28.3762381160845
-27.8968993039562
-26.8057897951263
-24.6290282470018
-21.5795736553332
-18.350217471901
-15.4469401699642
-12.879619352959
-10.5372528146933
-8.66132458646302
-7.70415635950364
-7.70577007018057
-8.02719027457332
-7.87771851889477
-7.05418327021203
-6.00423992567414
-5.16341286631545
-4.42638661510511
-3.40785312540168
-2.09085873221991
-0.94457175849125
-0.311369119460998
0.12752057767613
1.05116695070105
2.68613706887369
4.50192778586484
5.80980390850588
6.50702589081442
7.03629736611092
7.67389117050531
8.14590726891052
8.1186794678589
7.90467194674974
8.3767059938655
10.0909732999825
12.679892737731
15.2771899166434
17.4362861148105
19.3904081635293
21.3884508431861
23.0659219252984
23.7550457771831
23.3636066986569
22.6442843516042
22.4286700910675
22.7490570241903
22.9409905097883
22.5664385029328
21.9533718121538
21.6818799916121
21.7520549220785
21.5830882879413
20.8642741663466
20.1088051955898
20.1220979271614
21.0305044291332
22.1224977676738
22.7093946743991
22.8854101543088
23.2180107596013
23.8340112040515
24.1726581762654
23.7667606709392
22.9951636349786
22.7385043606023
23.3181186766264
24.0868480525797
24.2230073868803
23.7064434024669
23.2176781999493
23.1373033149928
23.0296635851733
22.3412546921604
21.3766400381458
21.1740277350427
22.331938830528
24.2673774356063
25.8826075677377
26.793537277037
27.5345013498141
28.5160618943691
29.1928246960572
28.6406768756319
26.8413017652098
24.949024426409
24.0897605351058
24.1822359195979
24.2942255335599
24.0585610907857
24.2729122177028
25.8771080613473
28.6676827482904
31.4945735460377
33.7279481956177
36.0533938154155
39.4880663302319
43.8680164799998
47.8185114371409
50.3125712392973
51.8202911106139
53.5568174207778
55.8391377693868
57.7612217205368
58.6532563359568
59.3665409979011
61.5619295353697
65.7797182988267
70.7329467719369
74.746700158267
77.4988635797101
79.8413438072687
82.0263491293286
82.7860901653827
80.5844232776235
75.4424612055699
68.9144327174212
62.1958999752473
54.8141367884516
45.5786767423761
34.4573409464377
22.8165883851054
11.7011688335482
0.537997744090518
-11.8669803384762
-25.3014646147695
-37.8790989922502
-48.0652993184182
-56.4107486050216
-64.6555259486069
-73.3024346669971
-80.8510920698362
-85.7463859374362
-88.4633552185536
-90.8779567540294
-93.6282651672801
-94.8791787722786
-92.1362054869368
-84.8417668060279
-74.6382694918077
-63.4279289144362
-52.1471532247039
-41.6831830875644
-33.9041621830354
-30.5651863416207
-31.383529426212
-34.4910083884561
-39.2412502084928
-47.1936241761002
-58.8139048810217
-70.0907631654325
-75.563330272044
-76.7428901736986
-85.6468320334654
-115.64185993998
-166.571481452354
-221.212295281067
-260.071973064046
-279.455419830139
-290.012171656204
-293.357930512445
-262.808714357233
-155.854466446154
47.1898504974594
317.520249744831
597.024200689166
847.488546642028
1078.23868796498
1318.44458296385
1559.40743601759
1729.8582522192
1738.8605811674
1551.71068147652
1226.3802194505
873.368683462673
575.439460740894
340.382604684811
123.979987219546
-108.297200947739
-343.365293621082
-536.254006192955
-653.731280192073
-699.563043991762
-703.378685936382
-694.001612885594
-686.116112144983
-685.654943182892
-697.434550259447
-722.309134978684
-750.051242344007
-761.771561162496
-743.450066441848
-697.34658166599
-639.575424282939
-587.247732961894
-548.521889182518
-523.058704591323
-507.912352565085
-500.166659617887
-495.012665253053
-485.00486074648
-463.908999987588
-431.303477175311
-392.387311706454
-353.375264456961
-318.052191152049
-288.601167478661
-267.507827838031
-256.110867786532
-250.949412773326
-243.6024348869
-226.424310465734
-199.076355800365
-168.69772003396
-143.154650950175
-124.415404462552
-108.64817249466
-91.8406365401834
-74.0006242725168
-57.7262250296623
-44.0567122111585
-31.1677792430729
-17.0797473924502
-2.33286053732759
10.9050259932613
21.856545817447
32.1579640372624
43.638942328294
55.9242340816825
67.0012899991996
75.8894385719269
83.8651871041576
92.7376158131274
102.543248216833
111.64532177655
118.960376650097
125.311630206035
132.209120311163
139.785584971256
146.625860128271
151.631725542685
155.408506728403
159.394870583655
163.969828153612
168.042181873073
170.58455935851
172.022791917465
173.674813413328
176.059012184093
178.336007318594
179.571737624305
180.090580324292
181.121181456128
183.22994329534
185.611297416299
187.127438120004
187.69024557837
188.191747514438
189.153665273643
189.93718818815
189.558487101832
188.010774126947
186.343131414877
185.397647354133
184.844493185654
183.720393293592
181.703637076599
179.454353404077
177.640459267836
175.998194357968
173.681770784327
170.428374939526
167.004793943479
164.362909311669
162.599541124875
161.014518349562
159.098026759737
157.112601967863
155.551211714859
154.264253480484
152.452239260998
149.543113724459
145.813467773863
141.977089585194
138.31473949707
134.465102844067
130.075304779505
125.390426923641
121.005167837509
117.149439756515
113.478404326605
109.627192648689
105.764489422553
102.402307195083
99.7208281376249
97.2933557754219
94.5415938149909
91.2943559643559
87.7373194897334
83.8986199821559
79.4363529030122
74.0570264735461
68.0124704255638
61.9896198081548
56.4943987174366
51.4828924039195
46.6536336774966
41.9535758342885
37.611447448373
33.68919995094
29.8116265489494
25.5024905893921
20.7385679875846
16.0178130845496
11.8398136256487
8.22746719601915
4.8378026867365
1.44703417646918
-1.84952373106024
-4.95638558000201
