Value(μV)
187.402725219727
192.934204101563
199.610122680664
201.612899780273
196.462905883789
192.934204101563
194.936981201172
194.078643798828
191.885116577148
197.416610717773
203.901779174805
205.618453979492
204.092529296875
196.272155761719
186.353637695313
179.200866699219
173.383270263672
168.996246337891
169.091613769531
177.48420715332
187.87956237793
192.934204101563
194.078643798828
188.833267211914
175.481430053711
158.505508422852
146.488845825195
144.009216308594
144.390701293945
144.867553710938
150.685134887695
160.985137939453
165.753646850586
158.696243286133
147.061065673828
137.333282470703
123.504592895508
109.96199798584
106.337928771973
107.196258544922
113.109222412109
124.839775085449
130.180511474609
127.510147094727
118.926811218262
101.569412231445
84.3073806762695
74.198127746582
66.2823867797852
63.9934997558594
72.2907180786133
80.2064590454102
82.3999710083008
81.7323837280273
71.7184982299805
54.0749816894531
39.1018409729004
31.0907306671143
26.3222141265869
24.2240657806396
28.1342506408691
31.7583236694336
30.4231376647949
29.1833248138428
23.1749935150146
9.44166374206543
-4.38703584671021
-16.1175880432129
-27.7527694702148
-35.382396697998
-30.2323970794678
-22.2212886810303
-24.3194370269775
-29.3740653991699
-35.0009155273438
-44.0610961914063
-51.1185035705566
-57.4129447937012
-62.4675712585449
-62.7536849975586
-60.7509078979492
-59.2249794006348
-56.4592399597168
-55.6962776184082
-56.0777587890625
-58.3666496276855
-70.3833084106445
-81.2555313110352
-84.4981231689453
-86.8823776245117
-87.1684875488281
-83.925895690918
-77.7268295288086
-72.1953506469727
-75.6286773681641
-85.0703430175781
-89.4573822021484
-93.0814514160156
-97.6592254638672
-94.1305236816406
-91.1740417480469
-88.8851547241211
-82.6860809326172
-79.1573791503906
-77.8221969604492
-80.778678894043
-86.2147903442383
-89.5527496337891
-94.5120086669922
-97.4684906005859
-95.1795959472656
-89.7434921264648
-84.0212707519531
-79.4434967041016
-78.8712692260742
-84.3073806762695
-86.3101577758789
-82.9721984863281
-84.5934906005859
-89.1712646484375
-88.0268249511719
-84.9749755859375
-82.0184936523438
-78.394416809082
-78.6805267333984
-78.6805267333984
-77.6314544677734
-79.3481216430664
-78.5851593017578
-76.6777496337891
-75.8194198608398
-74.5796051025391
-72.4814605712891
-68.3805313110352
-65.7101669311523
-64.1842422485352
-63.039794921875
-64.1842422485352
-62.7536849975586
-54.6472053527832
-51.3092422485352
-55.7916488647461
-55.3147964477539
-50.832389831543
-50.9277610778809
-49.8786888122559
-46.6360969543457
-47.6851692199707
-46.2546157836914
-39.6740608215332
-33.4749908447266
-28.2296199798584
-26.7990646362305
-28.6111011505127
-31.4722118377686
-34.3333206176758
-30.0416564941406
-22.0305480957031
-18.9786968231201
-17.9296245574951
-15.6407356262207
-16.4990692138672
-16.022216796875
-12.8749961853027
-13.0657367706299
-13.0657367706299
-12.6842555999756
-12.9703664779663
-8.96481227874756
-4.00555419921875
-2.38425850868225
0
0
-4.10092449188232
-5.53147983551025
-4.38703584671021
-5.91296100616455
-7.15277528762817
-3.05185079574585
2.8611102104187
4.29166507720947
3.05185079574585
0.858333051204681
-2.5749990940094
-3.147221326828
-2.95648050308228
-4.48240613937378
-3.24259161949158
1.14444410800934
7.91573810577393
10.5861072540283
11.2537002563477
14.0194396972656
12.4935140609741
8.96481227874756
5.81759071350098
1.62129580974579
1.23981440067291
5.24536848068237
11.4444408416748
17.0712909698486
21.0768451690674
21.1722145080566
17.357400894165
13.9240694046021
12.3981437683105
11.3490705490112
8.29721927642822
6.6759238243103
11.0629596710205
14.1148099899292
16.7851791381836
20.2185115814209
14.9731435775757
5.43610954284668
0.9537034034729
0
3.05185079574585
10.6814785003662
18.5972156524658
21.2675857543945
19.9324016571045
18.6925868988037
16.4990692138672
15.4499950408936
16.5944385528564
13.3518476486206
10.204626083374
12.1120328903198
16.4036979675293
24.5101776123047
29.1833248138428
28.0388793945313
27.4666576385498
27.657398223877
23.9379558563232
19.4555492401123
19.5509204864502
20.0277709960938
21.5536975860596
23.5564746856689
22.6027698516846
22.6981410980225
22.9842510223389
21.5536975860596
19.5509204864502
18.8833274841309
20.6953639984131
21.9351787567139
19.8370304107666
16.4036979675293
19.360179901123
26.0361022949219
25.3685111999512
19.7416610717773
15.8314762115479
13.1611070632935
13.0657367706299
14.0194396972656
16.8805503845215
21.0768451690674
20.2185115814209
18.2157344818115
21.5536975860596
24.0333251953125
23.8425846099854
27.1805477142334
32.9027671813965
37.1944313049316
37.7666549682617
39.197208404541
44.4425773620605
45.2055397033691
44.1564674377441
45.300910949707
43.0120239257813
39.9601707458496
43.2027626037598
49.783317565918
59.5110931396484
71.0509033203125
78.2990493774414
84.7842330932617
90.6971969604492
89.8388595581055
82.9721984863281
72.0999755859375
61.4184989929199
54.4564628601074
47.7805404663086
39.864803314209
33.8564720153809
29.1833248138428
19.9324016571045
7.0574049949646
-7.43888664245605
-20.7907333374023
-35.9546165466309
-60.7509078979492
-79.1573791503906
-82.7814559936523
-86.8823776245117
-93.6536712646484
-95.6564483642578
-92.986083984375
-89.0758972167969
-85.3564529418945
-81.4462738037109
-76.7731246948242
-72.0046081542969
-69.3342361450195
-70.4786834716797
-70.0018310546875
-66.854606628418
-62.9444236755371
-51.4999847412109
-42.9166526794434
-43.9657249450684
-39.4833221435547
-34.9055442810059
-38.7203598022461
-43.8703575134277
-47.1129493713379
-56.8407211303711
-90.220344543457
-152.115692138672
-227.744369506836
-283.726776123047
-285.920288085938
-281.914733886719
-302.991577148438
-277.813812255859
-187.688827514648
-32.6166572570801
210.291595458984
470.271148681641
697.252563476563
936.632080078125
1198.70983886719
1445.62365722656
1663.44946289063
1814.51611328125
1780.85034179688
1466.12817382813
1014.54968261719
669.690551757813
442.804473876953
241.47770690918
40.8185043334961
-187.87956237793
-442.32763671875
-641.365539550781
-737.784973144531
-752.185852050781
-724.337707519531
-690.958129882813
-666.3525390625
-668.546081542969
-705.263671875
-752.471984863281
-789.952514648438
-803.590454101563
-780.320129394531
-721.095153808594
-645.847961425781
-572.8896484375
-511.852600097656
-480.475769042969
-479.808166503906
-493.827606201172
-510.231323242188
-513.569274902344
-494.209106445313
-455.20263671875
-399.124877929688
-336.275817871094
-283.249908447266
-251.014739990234
-238.330474853516
-240.428619384766
-251.205474853516
-254.829544067383
-242.049926757813
-216.967529296875
-180.917541503906
-137.142547607422
-99.5666351318359
-70.5740509033203
-54.0749816894531
-53.2166481018066
-53.5981292724609
-51.404613494873
-49.5925750732422
-37.9573936462402
-13.6379585266113
15.0685138702393
39.1018409729004
54.5518341064453
63.3259048461914
65.9009017944336
67.9990539550781
72.2907180786133
80.0157165527344
92.6999740600586
105.288856506348
117.305519104004
128.845321655273
139.622177124023
146.870330810547
148.777725219727
151.63883972168
156.407363891602
162.51106262207
170.9990234375
175.1953125
176.435134887695
182.729568481445
187.87956237793
186.639755249023
189.786972045898
195.699935913086
195.986053466797
197.988830566406
205.236968994141
205.999938964844
199.610122680664
193.029571533203
186.258270263672
184.160125732422
187.784194946289
188.642532348633
192.838821411133
201.422164916992
205.046234130859
204.474014282227
200.182342529297
187.784194946289
175.290679931641
172.524948120117
175.1953125
178.247161865234
182.729568481445
191.026794433594
198.274932861328
195.986053466797
186.449020385742
173.287902832031
160.889770507813
150.399032592773
143.341613769531
146.011993408203
154.309204101563
161.843460083008
169.854568481445
168.80549621582
156.884216308594
145.821243286133
131.515701293945
115.302742004395
108.245338439941
107.100891113281
109.675888061523
114.539779663086
119.117553710938
121.69255065918
112.727745056152
97.7546005249023
86.7870101928711
74.8657150268555
62.9444236755371
59.8925743103027
66.0916442871094
74.2934951782227
77.6314544677734
77.6314544677734
73.0536804199219
62.1814613342285
46.6360969543457
30.3277683258057
22.8888816833496
22.6981410980225
23.7472152709961
29.8509159088135
37.9573936462402
38.3388748168945
30.8046188354492
16.8805503845215
0.0953703373670578
-15.5453653335571
-24.7009181976318
-25.7499923706055
-27.943510055542
-26.6083240509033
-16.5944385528564
-16.7851791381836
-26.7990646362305
-32.4259147644043
-42.7259140014648
-58.4620170593262
-69.5249786376953
-75.4379425048828
-71.7184982299805
-61.6092376708984
-56.1731300354004
-53.5027618408203
-54.8379440307617
-64.4703521728516
-72.0046081542969
-77.345344543457
-82.6860809326172
-84.1166381835938
-81.5416412353516
-78.7759017944336
-74.6749725341797
-71.5277557373047
-75.0564575195313
-75.1518249511719
-72.6721954345703
-78.2990493774414
-85.4518280029297
-89.2666397094727
-91.1740417480469
-88.6944122314453
-82.3046035766602
-81.9231185913086
-83.6397857666016
-76.8684921264648
-77.0592346191406
-86.9777526855469
-88.9805297851563
-90.220344543457
-96.3240432739258
-95.4657135009766
-89.0758972167969
-86.0240478515625
-85.7379379272461
-81.0647888183594
-80.9694213867188
-88.5036773681641
-88.5990447998047
-86.6916351318359
-85.8333053588867
-79.2527542114258
-77.345344543457
-79.5388641357422
-76.5823822021484
-76.3916397094727
-78.1083068847656
-74.5796051025391
-74.2934951782227
-76.4870147705078
-73.4351654052734
-71.3370132446289
-70.0971984863281
-64.2796096801758
-59.2249794006348
-59.1296119689941
-59.4157218933105
-57.9851684570313
-54.6472053527832
-49.4018363952637
-47.7805404663086
-49.4972076416016
-48.3527641296387
-47.6851692199707
-49.8786888122559
-48.6388740539551
-44.9194297790527
-44.4425773620605
-44.0610961914063
-38.8157272338867
-31.6629524230957
-27.657398223877
-30.0416564941406
-32.3305435180664
-29.3740653991699
-30.1370277404785
-35.0962867736816
-33.0935096740723
-26.0361022949219
-25.2731399536133
-26.8944358825684
-21.3629570007324
-17.357400894165
-20.1231422424316
-23.4611034393311
-25.0823993682861
-21.1722145080566
-12.2074031829834
-7.43888664245605
-8.77407169342041
-9.72777462005615
-7.24814605712891
-8.20184898376465
-12.0166625976563
-13.1611070632935
-14.9731435775757
-14.7824029922485
-9.44166374206543
-6.00833129882813
-4.1962947845459
0.381481349468231
5.34073925018311
8.10647869110107
5.91296100616455
0.0953703373670578
-4.86388731002808
-4.67314672470093
-1.9074068069458
0.0953703373670578
4.10092449188232
8.67870044708252
8.96481227874756
5.81759071350098
3.43333220481873
1.33518481254578
0.858333051204681
2.76573991775513
1.52592539787292
0.0953703373670578
3.91018390655518
9.25092315673828
12.2074031829834
12.302773475647
11.4444408416748
8.77407169342041
4.1962947845459
2.5749990940094
2.5749990940094
3.24259161949158
9.44166374206543
18.0249938964844
24.2240657806396
24.2240657806396
20.8861045837402
19.7416610717773
15.5453653335571
6.96203470230103
3.5287024974823
6.86666440963745
5.81759071350098
6.58055353164673
15.6407356262207
19.360179901123
17.2620315551758
16.1175880432129
15.4499950408936
13.6379585266113
12.0166625976563
13.6379585266113
15.5453653335571
19.360179901123
22.5074005126953
22.8888816833496
25.2731399536133
23.1749935150146
20.5999927520752
21.4583263397217
19.074068069458
18.3111057281494
20.1231422424316
22.9842510223389
27.0851764678955
28.1342506408691
25.8453617095947
21.9351787567139
18.787956237793
14.687032699585
12.8749961853027
15.7361059188843
19.074068069458
21.5536975860596
25.0823993682861
25.6546211242676
22.3166599273682
19.360179901123
16.9759197235107
14.9731435775757
12.9703664779663
13.3518476486206
16.6898097991943
18.5018463134766
21.4583263397217
27.2759170532227
28.7064723968506
26.8944358825684
24.891658782959
22.0305480957031
18.1203651428223
16.5944385528564
20.1231422424316
20.6953639984131
22.2212886810303
30.8999900817871
38.4342460632324
42.5351715087891
44.8240585327148
46.2546157836914
45.7777633666992
41.2953567504883
36.7175827026367
37.9573936462402
45.2055397033691
50.6416511535645
55.887020111084
67.9990539550781
76.0101623535156
76.296272277832
78.394416809082
77.9175643920898
74.6749725341797
74.198127746582
69.0481262207031
59.3203506469727
51.6907234191895
42.5351715087891
35.2870254516602
35.0009155273438
35.0009155273438
21.9351787567139
1.81203651428223
-10.204626083374
-17.8342533111572
-27.7527694702148
-46.1592445373535
-66.5684967041016
-75.7240524291992
-81.2555313110352
-87.4546051025391
-91.6508941650391
-98.0407104492188
-98.7083053588867
-89.1712646484375
-83.1629333496094
-81.2555313110352
-78.9666442871094
-78.8712692260742
-78.2990493774414
-77.7268295288086
-75.1518249511719
-65.4240493774414
-57.2222023010254
-52.8351669311523
-44.4425773620605
-43.2027626037598
-46.5407257080078
-41.1046180725098
-42.0583190917969
-50.7370223999023
-55.7916488647461
-73.3397903442383
-123.027740478516
-200.659194946289
-270.661010742188
-288.39990234375
-281.151763916016
-301.942504882813
-297.07861328125
-221.640670776367
-92.318489074707
119.59440612793
381.481353759766
613.61279296875
840.594177246094
1099.81079101563
1354.06811523438
1583.91064453125
1773.60217285156
1822.71789550781
1606.41796875
1182.97375488281
799.0126953125
544.183166503906
329.409149169922
123.218475341797
-96.13330078125
-354.300811767578
-580.423889160156
-713.846984863281
-760.864562988281
-739.40625
-694.582214355469
-663.396057128906
-656.243286132813
-684.091430664063
-730.536804199219
-772.595092773438
-799.0126953125
-790.333984375
-742.744201660156
-670.8349609375
-593.394226074219
-529.496154785156
-486.960968017578
-472.464660644531
-486.197998046875
-504.985961914063
-509.659088134766
-495.353546142578
-459.685028076172
-409.424865722656
-353.347106933594
-296.411010742188
-252.731399536133
-236.899917602539
-241.668441772461
-249.202697753906
-251.682327270508
-242.431396484375
-216.586044311523
-179.58235168457
-138.096252441406
-96.7055282592773
-67.1407165527344
-52.9305381774902
-48.6388740539551
-54.5518341064453
-59.1296119689941
-54.4564628601074
-42.630542755127
-18.3111057281494
9.34629344940186
32.6166572570801
54.0749816894531
67.8083114624023
75.3425674438477
78.5851593017578
74.8657150268555
75.3425674438477
84.7842330932617
98.3268203735352
116.256446838379
134.186065673828
144.581436157227
147.156433105469
146.011993408203
145.153656005859
149.63606262207
157.742538452148
162.224945068359
167.184204101563
175.004577636719
178.342529296875
178.247161865234
181.394393920898
182.538833618164
182.252716064453
185.590682983398
188.451797485352
192.171234130859
201.422164916992
206.095306396484
197.607345581055
187.784194946289
186.353637695313
185.97216796875
187.402725219727
191.980499267578
190.454574584961
189.596237182617
197.607345581055
198.274932861328
189.691604614258
181.108276367188
171.761978149414
162.701797485352
158.505508422852
163.655502319336
172.811050415039
176.816604614258
176.625869750977
173.955505371094
166.230499267578
152.687911987305
141.911071777344
138.096252441406
137.524032592773
146.011993408203
158.886993408203
160.031433105469
154.881439208984
149.922180175781
141.624954223633
131.134216308594
119.880516052246
108.054595947266
101.37866973877
105.288856506348
115.874961853027
121.024963378906
116.542556762695
112.537002563477
105.76570892334
89.9342269897461
76.9638671875
69.4296035766602
61.4184989929199
60.3694267272949
67.1407165527344
74.6749725341797
79.4434967041016
76.0101623535156
64.8518295288086
47.5897979736328
28.4203605651855
21.3629570007324
23.0796222686768
25.3685111999512
29.278694152832
34.7148017883301
38.5296173095703
35.1916542053223
27.2759170532227
14.7824029922485
0
-11.8259220123291
-21.2675857543945
-23.6518440246582
-18.6925868988037
-10.0138854980469
-4.1962947845459
-10.4907369613647
-23.0796222686768
-31.5675830841064
-41.8675804138184
-56.2685012817383
-62.7536849975586
-58.8434982299805
-52.3583183288574
-47.5897979736328
-46.7314682006836
-46.7314682006836
-48.734245300293
-56.1731300354004
-65.5194244384766
-74.5796051025391
-80.3018264770508
-82.3999710083008
-82.6860809326172
-75.7240524291992
-64.5657196044922
-60.8462753295898
-64.2796096801758
-70.6694183349609
-78.1083068847656
-83.4490509033203
-87.7407150268555
-92.2231216430664
-88.1221923828125
-80.9694213867188
-80.9694213867188
-78.2036819458008
-77.6314544677734
-86.2147903442383
-90.220344543457
-90.7925643920898
-95.4657135009766
-98.899040222168
-99.3758926391602
-96.2286758422852
-87.8360824584961
-84.2120132446289
-86.1194152832031
-86.4055252075195
-89.7434921264648
-94.416633605957
-95.3703384399414
-95.3703384399414
-96.3240432739258
-94.702751159668
-88.3129348754883
-82.9721984863281
-81.3508987426758
-80.3018264770508
-81.4462738037109
-81.4462738037109
-77.0592346191406
-72.1953506469727
-70.7647933959961
-74.1027526855469
-75.1518249511719
-70.3833084106445
-66.1870193481445
-65.9009017944336
-70.1925735473633
-70.8601608276367
-63.3259048461914
-54.8379440307617
-53.2166481018066
-56.3638725280762
-52.5490570068359
-48.6388740539551
-52.2629470825195
-53.2166481018066
-49.783317565918
-47.1129493713379
-46.1592445373535
-42.1536903381348
-35.9546165466309
-32.5212860107422
-33.1888771057129
-32.9027671813965
-30.6138782501221
-31.8536930084229
-31.1861019134521
-25.6546211242676
-18.5972156524658
-12.0166625976563
-14.1148099899292
-14.8777732849121
-11.3490705490112
-17.6435127258301
-21.1722145080566
-14.7824029922485
-10.8722190856934
-6.00833129882813
-1.71666610240936
-3.71944332122803
-5.24536848068237
-6.86666440963745
-9.537034034729
-10.1092557907104
-9.63240432739258
-8.3925895690918
-9.25092315673828
-12.4935140609741
-11.1583299636841
-7.91573810577393
-1.14444410800934
5.1499981880188
-0.572222054004669
-7.0574049949646
-10.2999963760376
-13.256477355957
-9.15555286407471
-1.52592539787292
5.7222204208374
10.204626083374
10.4907369613647
11.8259220123291
11.9212923049927
7.72499752044678
5.91296100616455
5.7222204208374
4.57777643203735
7.72499752044678
10.204626083374
13.9240694046021
21.3629570007324
24.3194370269775
21.3629570007324
12.302773475647
3.24259161949158
2.8611102104187
6.77129411697388
7.91573810577393
10.2999963760376
16.30832862854
18.4064750671387
18.8833274841309
19.6462898254395
16.9759197235107
14.9731435775757
12.8749961853027
10.3953666687012
12.2074031829834
13.5425882339478
16.8805503845215
24.1286964416504
26.9898052215576
26.226842880249
25.0823993682861
24.1286964416504
22.0305480957031
17.0712909698486
15.5453653335571
16.9759197235107
16.4990692138672
16.7851791381836
18.0249938964844
19.360179901123
18.787956237793
19.360179901123
22.0305480957031
18.787956237793
14.0194396972656
10.9675893783569
7.43888664245605
13.4472179412842
23.5564746856689
25.3685111999512
23.3657341003418
22.6027698516846
22.3166599273682
21.5536975860596
20.5046234130859
17.5481433868408
17.5481433868408
25.9407329559326
29.4694347381592
24.6055469512939
24.2240657806396
25.5592517852783
22.2212886810303
18.6925868988037
15.0685138702393
13.4472179412842
12.7796258926392
12.302773475647
16.6898097991943
17.4527721405029
18.5018463134766
29.6601753234863
33.761100769043
27.0851764678955
23.2703628540039
26.6083240509033
34.4286918640137
39.4833221435547
39.3879508972168
37.1944313049316
32.4259147644043
32.2351760864258
38.4342460632324
44.0610961914063
46.2546157836914
50.6416511535645
60.5601654052734
71.6231231689453
79.4434967041016
88.7897872924805
96.3240432739258
92.2231216430664
84.7842330932617
79.1573791503906
67.6175689697266
56.8407211303711
53.2166481018066
49.0203552246094
41.6768379211426
37.9573936462402
31.2814712524414
12.6842555999756
-8.48795986175537
-19.5509204864502
-32.8073959350586
-53.7888717651367
-63.4212760925293
-68.8573837280273
-82.3046035766602
-90.9833068847656
-94.2258987426758
-96.8962631225586
-92.986083984375
-85.7379379272461
-82.7814559936523
-79.729606628418
-73.4351654052734
-71.4323883056641
-73.4351654052734
-70.8601608276367
-64.6610870361328
-56.2685012817383
-53.0259094238281
-52.9305381774902
-46.4453544616699
-43.1073951721191
-40.5323944091797
-35.4777679443359
-37.0036926269531
-42.0583190917969
-57.7944259643555
-101.187927246094
-168.614761352539
-237.949005126953
-273.4267578125
-271.32861328125
-279.816589355469
-295.838806152344
-258.930480957031
-154.213836669922
15.4499950408936
250.823989868164
498.119293212891
715.372924804688
936.727478027344
1175.7255859375
1411.00415039063
1611.09118652344
1715.80773925781
1592.87536621094
1210.91723632813
822.187683105469
578.421081542969
386.249877929688
195.223083496094
-1.71666610240936
-227.553634643555
-451.292449951172
-605.410888671875
-674.268310546875
-670.358093261719
-621.71923828125
-585.669250488281
-582.617431640625
-606.74609375
-651.37939453125
-697.824768066406
-727.103454589844
-729.583129882813
-702.307189941406
-641.270141601563
-566.30908203125
-511.471130371094
-476.851684570313
-454.153564453125
-452.532257080078
-465.884124755859
-474.753540039063
-469.508178710938
-445.951721191406
-401.699859619141
-348.673950195313
-298.604522705078
-254.829544067383
-229.842514038086
-229.556411743164
-238.235107421875
-243.957336425781
-242.336029052734
-222.499008178711
-184.636978149414
-142.864776611328
-101.855522155762
-70.3833084106445
-57.5083160400391
-54.0749816894531
-59.2249794006348
-67.8083114624023
-61.0370178222656
-44.5379486083984
-30.70924949646
-7.82036781311035
19.7416610717773
37.099063873291
48.4481315612793
55.6962776184082
59.2249794006348
62.4675712585449
65.6147918701172
69.9064559936523
77.345344543457
88.4083023071289
103.667556762695
119.880516052246
127.510147094727
128.273101806641
131.515701293945
141.529586791992
151.829574584961
152.020324707031
145.535140991211
144.009216308594
150.303649902344
158.219390869141
158.314758300781
158.1240234375
166.135131835938
171.666610717773
174.146240234375
179.3916015625
180.345306396484
181.012908935547
182.157348632813
176.816604614258
172.906433105469
171.285125732422
171.571243286133
179.677719116211
187.307342529297
192.171234130859
195.413833618164
189.691604614258
175.672164916992
163.274017333984
159.173095703125
156.407363891602
155.072174072266
161.461990356445
170.140686035156
176.339752197266
179.296234130859
180.345306396484
171.475875854492
149.731430053711
133.136993408203
129.989776611328
136.66569519043
144.104583740234
149.159210205078
156.216613769531
160.41291809082
157.837905883789
143.15087890625
122.169403076172
107.673110961914
99.2805252075195
98.899040222168
99.8527450561523
100.424964904785
108.531448364258
112.918479919434
109.96199798584
104.144409179688
93.8444137573242
82.5907135009766
70.5740509033203
62.4675712585449
61.7999801635742
62.8490524291992
69.7157211303711
78.4897918701172
74.4842376708984
61.323127746582
44.251838684082
24.891658782959
10.9675893783569
5.1499981880188
7.34351634979248
13.5425882339478
12.3981437683105
7.72499752044678
8.0111083984375
7.72499752044678
-1.23981440067291
-17.6435127258301
-33.5703582763672
-39.3879508972168
-35.382396697998
-31.1861019134521
-27.0851764678955
-28.7064723968506
-36.431468963623
-37.5759124755859
-37.4805450439453
-49.3064651489258
-66.1870193481445
-70.2879409790039
-61.7999801635742
-58.7481307983398
-61.4184989929199
-55.3147964477539
-46.9222068786621
-46.7314682006836
-50.4509086608887
-59.6064605712891
-79.6342315673828
-94.8934860229492
-91.9370040893555
-83.7351608276367
-77.1546020507813
-67.7129440307617
-59.3203506469727
-55.219425201416
-56.4592399597168
-58.0805358886719
-59.701831817627
-69.1434936523438
-76.3916397094727
-70.0971984863281
-62.4675712585449
-63.8027572631836
-68.2851638793945
-68.7620162963867
-67.2360916137695
-68.6666412353516
-67.2360916137695
-64.2796096801758
-71.3370132446289
-76.3916397094727
-71.7184982299805
-71.9092330932617
-75.0564575195313
-75.5333099365234
-74.0073852539063
-74.5796051025391
-75.4379425048828
-70.3833084106445
-66.854606628418
-66.7592391967773
-65.4240493774414
-66.2823867797852
-68.6666412353516
-68.8573837280273
-68.6666412353516
-70.0971984863281
-70.6694183349609
-67.5222015380859
-62.4675712585449
-55.9823913574219
-50.6416511535645
-52.0722045898438
-51.404613494873
-47.5897979736328
-50.4509086608887
-52.0722045898438
-48.9249839782715
-47.5897979736328
-50.2601699829102
-48.1620216369629
-38.5296173095703
-32.7120246887207
-33.3796195983887
-36.431468963623
-39.1018409729004
-35.9546165466309
-28.8972129821777
-24.9870281219482
-24.7009181976318
-26.226842880249
-29.1833248138428
-32.9027671813965
-33.0935096740723
-27.8481388092041
-26.226842880249
-27.8481388092041
-25.177770614624
-19.6462898254395
-16.30832862854
-19.6462898254395
-22.6027698516846
-17.6435127258301
-13.5425882339478
-15.2592544555664
-18.5972156524658
-17.9296245574951
-9.06018257141113
-0.286111027002335
-1.62129580974579
-2.38425850868225
1.23981440067291
-5.91296100616455
-13.0657367706299
-8.10647869110107
-8.86944198608398
-10.7768487930298
-5.7222204208374
-1.14444410800934
1.9074068069458
2.95648050308228
3.147221326828
3.43333220481873
3.24259161949158
1.43055510520935
-1.62129580974579
-1.04907369613647
-1.04907369613647
-5.7222204208374
-5.1499981880188
2.1935179233551
9.06018257141113
8.48795986175537
0.9537034034729
-2.67036962509155
-2.38425850868225
-5.81759071350098
-5.7222204208374
0.667592406272888
5.1499981880188
8.3925895690918
9.72777462005615
10.5861072540283
14.8777732849121
14.687032699585
10.4907369613647
10.0138854980469
15.35462474823
20.2185115814209
16.30832862854
11.1583299636841
9.63240432739258
8.0111083984375
11.3490705490112
13.8286991119385
12.588885307312
14.9731435775757
14.9731435775757
12.7796258926392
14.7824029922485
16.6898097991943
21.2675857543945
22.6981410980225
16.30832862854
12.9703664779663
6.19907188415527
-3.71944332122803
-0.572222054004669
4.38703584671021
5.62685012817383
7.0574049949646
8.96481227874756
17.738883972168
21.4583263397217
14.1148099899292
10.6814785003662
14.7824029922485
14.7824029922485
11.635181427002
14.9731435775757
18.5972156524658
21.4583263397217
23.4611034393311
14.5916624069214
7.15277528762817
11.2537002563477
9.82314491271973
4.67314672470093
6.58055353164673
12.588885307312
22.0305480957031
34.1425819396973
44.3472061157227
47.6851692199707
44.251838684082
40.4370231628418
39.6740608215332
37.4805450439453
34.1425819396973
34.9055442810059
43.5842437744141
55.887020111084
64.5657196044922
72.9583129882813
79.2527542114258
78.4897918701172
78.1083068847656
76.5823822021484
72.2907180786133
71.5277557373047
68.7620162963867
65.7101669311523
60.274055480957
42.0583190917969
29.8509159088135
32.6166572570801
28.2296199798584
12.4935140609741
-0.9537034034729
-16.7851791381836
-32.7120246887207
-41.5814666748047
-52.7397994995117
-62.1814613342285
-62.6583137512207
-67.4268264770508
-76.7731246948242
-81.827751159668
-86.4055252075195
-89.7434921264648
-84.4027481079102
-78.4897918701172
-78.5851593017578
-79.8249740600586
-80.3971939086914
-75.8194198608398
-65.137939453125
-60.3694267272949
-60.274055480957
-53.4073905944824
-44.251838684082
-36.0499877929688
-28.8018417358398
-26.3222141265869
-28.0388793945313
-32.8073959350586
-41.2953567504883
-64.6610870361328
-123.123107910156
-200.9453125
-254.543441772461
-267.704528808594
-266.655456542969
-271.996215820313
-270.088806152344
-224.883255004883
-101.37866973877
98.6129302978516
348.864715576172
589.9609375
794.339538574219
1002.81915283203
1231.61254882813
1458.59399414063
1633.0263671875
1657.82263183594
1414.24682617188
1008.25524902344
689.622924804688
472.655395507813
281.723999023438
102.237007141113
-90.3157119750977
-300.893432617188
-491.538726806641
-613.517395019531
-646.229431152344
-611.5146484375
-563.9248046875
-543.038696289063
-556.581298828125
-597.495178222656
-648.995178222656
-692.865539550781
-713.465515136719
-703.356262207031
-664.063659667969
-601.977600097656
-535.790588378906
-477.805389404297
-433.458190917969
-421.441528320313
-435.7470703125
-451.960052490234
-465.311889648438
-455.011901855469
-412.667449951172
-362.598022460938
-308.713775634766
-258.072143554688
-226.695297241211
-210.577713012695
-210.291595458984
-225.360107421875
-236.995300292969
-228.888809204102
-202.280487060547
-165.658279418945
-123.9814453125
-87.4546051025391
-63.5166473388672
-47.3036880493164
-40.1509132385254
-43.679615020752
-49.4972076416016
-48.9249839782715
-35.7638778686523
-12.8749961853027
11.5398111343384
35.1916542053223
56.4592399597168
68.0944213867188
68.0944213867188
64.0888671875
63.039794921875
66.7592391967773
74.4842376708984
84.2120132446289
93.4629364013672
98.0407104492188
105.670333862305
117.686996459961
124.172180175781
127.605514526367
133.423110961914
143.818466186523
153.641616821289
155.930511474609
158.410140991211
164.799942016602
168.519393920898
169.282348632813
168.614761352539
166.039764404297
167.851791381836
173.669387817383
174.813827514648
178.437911987305
181.58512878418
176.530502319336
176.053649902344
175.1953125
171.285125732422
172.429580688477
174.623092651367
176.816604614258
177.102722167969
174.909210205078
173.478652954102
169.854568481445
161.652725219727
156.216613769531
154.690689086914
156.407363891602
162.701797485352
168.71012878418
172.334197998047
173.669387817383
169.377716064453
158.886993408203
146.584213256836
138.096252441406
133.804580688477
129.608291625977
130.180511474609
138.668472290039
144.390701293945
141.148101806641
136.66569519043
130.085144042969
116.542556762695
102.904594421387
95.5610809326172
93.0814514160156
93.5583038330078
100.424964904785
110.915702819824
113.20458984375
104.907371520996
93.5583038330078
82.5907135009766
70.6694183349609
63.6120147705078
64.756462097168
63.6120147705078
59.3203506469727
58.1759071350098
57.4129447937012
52.3583183288574
39.5786895751953
26.9898052215576
19.2648086547852
9.15555286407471
2.47962880134583
-0.47685170173645
-1.04907369613647
4.57777643203735
5.1499981880188
-1.62129580974579
-8.0111083984375
-21.2675857543945
-36.8129501342773
-43.5842437744141
-48.4481315612793
-49.0203552246094
-42.9166526794434
-44.0610961914063
-44.4425773620605
-37.099063873291
-41.7722091674805
-55.0286865234375
-62.6583137512207
-67.1407165527344
-70.9555358886719
-76.3916397094727
-78.4897918701172
-72.5768280029297
-62.3722038269043
-54.6472053527832
-53.9796104431152
-58.0805358886719
-63.4212760925293
-70.8601608276367
-78.012939453125
-80.5879364013672
-76.1055297851563
-66.854606628418
-58.1759071350098
-51.404613494873
-55.219425201416
-67.2360916137695
-74.0073852539063
-77.8221969604492
-74.7703475952148
-68.0944213867188
-69.9064559936523
-68.0944213867188
-60.7509078979492
-56.936092376709
-58.4620170593262
-65.805534362793
-68.2851638793945
-68.1897964477539
-72.9583129882813
-72.8629379272461
-66.2823867797852
-64.9472045898438
-63.8981285095215
-55.6962776184082
-55.1240577697754
-61.2277565002441
-58.652759552002
-58.8434982299805
-67.903678894043
-72.2907180786133
-67.3314590454102
-59.2249794006348
-54.7425765991211
-53.6935005187988
-52.2629470825195
-51.6907234191895
-53.5981292724609
-53.0259094238281
-48.2573928833008
-44.8240585327148
-45.0148010253906
-44.6333198547363
-46.0638732910156
-46.0638732910156
-43.7749862670898
-45.6823921203613
-45.1101722717285
-41.2953567504883
-40.4370231628418
-37.3851737976074
-36.7175827026367
-37.6712837219238
-33.0935096740723
-29.9462871551514
-28.8018417358398
-22.6981410980225
-21.7444381713867
-26.3222141265869
-23.6518440246582
-22.9842510223389
-23.2703628540039
-15.1638841629028
-11.5398111343384
-16.2129573822021
-20.409252166748
-20.7907333374023
-20.409252166748
-19.6462898254395
-16.022216796875
-13.4472179412842
-14.2101802825928
-19.5509204864502
-25.0823993682861
-23.9379558563232
-21.0768451690674
-21.839807510376
-20.8861045837402
-16.9759197235107
-13.3518476486206
-11.5398111343384
-9.06018257141113
-4.48240613937378
-2.67036962509155
-4.29166507720947
-5.24536848068237
-5.43610954284668
-8.20184898376465
-8.77407169342041
-0.667592406272888
6.48518323898315
7.43888664245605
7.53425693511963
7.24814605712891
5.05462789535522
3.62407302856445
3.05185079574585
0
-1.04907369613647
-1.23981440067291
0
4.38703584671021
3.05185079574585
-0.286111027002335
4.00555419921875
8.3925895690918
5.62685012817383
3.43333220481873
4.10092449188232
4.7685170173645
11.635181427002
19.360179901123
16.9759197235107
12.0166625976563
8.29721927642822
1.33518481254578
-1.43055510520935
-0.0953703373670578
-1.81203651428223
1.23981440067291
8.20184898376465
11.7305517196655
12.8749961853027
9.44166374206543
6.29444265365601
4.95925760269165
0.858333051204681
-0.381481349468231
0.286111027002335
2.8611102104187
8.3925895690918
12.588885307312
14.4962921142578
16.1175880432129
17.1666603088379
13.6379585266113
1.9074068069458
-4.67314672470093
1.33518481254578
5.91296100616455
8.0111083984375
16.6898097991943
19.7416610717773
13.8286991119385
13.1611070632935
14.687032699585
11.8259220123291
10.2999963760376
10.1092557907104
13.256477355957
18.5972156524658
18.2157344818115
15.5453653335571
16.5944385528564
20.5999927520752
21.7444381713867
19.9324016571045
21.3629570007324
26.5129547119141
30.5185089111328
30.6138782501221
29.0879535675049
29.1833248138428
32.9027671813965
36.9083213806152
39.864803314209
46.6360969543457
48.8296127319336
45.5870208740234
52.5490570068359
67.6175689697266
77.0592346191406
80.9694213867188
82.1138610839844
78.7759017944336
68.8573837280273
56.0777587890625
44.3472061157227
30.5185089111328
19.5509204864502
17.9296245574951
19.9324016571045
19.2648086547852
11.4444408416748
-3.147221326828
-14.9731435775757
-25.5592517852783
-37.099063873291
-44.6333198547363
-53.2166481018066
-58.8434982299805
-61.7046089172363
-69.3342361450195
-74.198127746582
-79.8249740600586
-82.5907135009766
-77.9175643920898
-72.6721954345703
-66.3777542114258
-61.5138702392578
-59.5110931396484
-58.0805358886719
-55.1240577697754
-51.5953521728516
-51.8814659118652
-50.355541229248
-40.6277656555176
-33.4749908447266
-34.1425819396973
-38.2435073852539
-42.0583190917969
-44.0610961914063
-62.7536849975586
-116.35181427002
-190.645309448242
-252.540664672852
-275.048065185547
-273.331390380859
-282.582305908203
-287.160095214844
-243.003631591797
-127.128662109375
66.2823867797852
320.062866210938
563.734069824219
768.208068847656
989.371887207031
1234.18762207031
1472.99487304688
1671.365234375
1744.22814941406
1559.87731933594
1150.35705566406
775.551574707031
536.458190917969
342.474884033203
150.971252441406
-44.4425773620605
-264.557312011719
-482.001708984375
-626.20166015625
-678.273864746094
-661.297912597656
-615.329406738281
-582.903503417969
-586.622985839844
-624.389587402344
-670.930358886719
-716.04052734375
-746.082153320313
-738.261779785156
-696.012756347656
-630.207214355469
-559.537780761719
-499.8359375
-455.774841308594
-438.512817382813
-448.145233154297
-466.551696777344
-475.421142578125
-470.652618408203
-451.101715087891
-405.514678955078
-341.139709472656
-286.397125244141
-249.011962890625
-225.360107421875
-223.261962890625
-236.327697753906
-241.38232421875
-232.226776123047
-213.343444824219
-179.105499267578
-134.949035644531
-96.13330078125
-71.1462707519531
-57.1268348693848
-51.7860946655273
-54.2657241821289
-54.170352935791
-49.783317565918
-40.2462844848633
-17.357400894165
3.24259161949158
18.9786968231201
41.7722091674805
55.3147964477539
55.219425201416
60.6555366516113
68.8573837280273
72.7675704956055
78.4897918701172
86.8823776245117
93.8444137573242
104.907371520996
119.308296203613
125.888847351074
129.036071777344
135.616622924805
138.95458984375
138.477737426758
140.480514526367
146.011993408203
154.595321655273
157.456436157227
155.262908935547
160.41291809082
170.522171020508
176.530502319336
177.579574584961
179.48698425293
186.162902832031
190.359191894531
188.261047363281
186.925872802734
186.639755249023
182.538833618164
179.3916015625
183.874008178711
190.073089599609
194.841598510742
198.75178527832
196.462905883789
190.263824462891
181.489761352539
171.475875854492
165.658279418945
161.938842773438
159.268463134766
162.606430053711
170.903656005859
177.770309448242
178.819381713867
173.383270263672
163.369384765625
155.549026489258
148.110137939453
139.717544555664
140.194396972656
144.104583740234
147.633285522461
152.306427001953
153.164764404297
148.777725219727
137.810134887695
124.93514251709
113.967559814453
103.858299255371
99.948112487793
104.144409179688
112.25089263916
119.022186279297
121.501815795898
119.880516052246
105.670333862305
81.2555313110352
65.9009017944336
60.7509078979492
57.2222023010254
58.4620170593262
63.9934997558594
67.4268264770508
68.3805313110352
67.8083114624023
57.9851684570313
41.1046180725098
26.7990646362305
13.3518476486206
3.147221326828
5.43610954284668
13.1611070632935
15.6407356262207
16.9759197235107
20.0277709960938
16.5944385528564
-1.14444410800934
-18.9786968231201
-25.177770614624
-29.9462871551514
-30.8999900817871
-28.2296199798584
-30.4231376647949
-28.9925842285156
-23.1749935150146
-26.7990646362305
-41.0092468261719
-56.936092376709
-69.2388687133789
-72.7675704956055
-67.6175689697266
-62.9444236755371
-59.3203506469727
-53.3120193481445
-50.355541229248
-52.8351669311523
-59.7972030639648
-68.3805313110352
-75.247200012207
-81.2555313110352
-84.7842330932617
-82.5907135009766
-78.4897918701172
-73.9120101928711
-67.0453491210938
-62.3722038269043
-64.8518295288086
-72.9583129882813
-78.2036819458008
-78.2990493774414
-79.5388641357422
-78.012939453125
-73.1490478515625
-69.5249786376953
-67.1407165527344
-66.5684967041016
-66.9499816894531
-66.3777542114258
-68.1897964477539
-72.4814605712891
-76.1055297851563
-74.4842376708984
-72.7675704956055
-75.1518249511719
-73.8166427612305
-68.5712738037109
-65.2333145141602
-67.0453491210938
-71.2416458129883
-75.6286773681641
-79.4434967041016
-75.9147872924805
-71.1462707519531
-73.8166427612305
-74.0073852539063
-67.9990539550781
-66.6638641357422
-70.8601608276367
-72.0999755859375
-69.5249786376953
-68.5712738037109
-71.0509033203125
-69.9064559936523
-63.7073860168457
-57.3175735473633
-53.0259094238281
-51.404613494873
-50.0694274902344
-47.1129493713379
-48.9249839782715
-51.9768333435059
-48.8296127319336
-47.2083168029785
-44.3472061157227
-38.8157272338867
-39.2925796508789
-40.1509132385254
-36.3360977172852
-32.9981384277344
-32.9981384277344
-32.04443359375
-28.0388793945313
-26.7036952972412
-27.657398223877
-27.1805477142334
-26.7036952972412
-27.657398223877
-23.4611034393311
-15.5453653335571
-10.5861072540283
-7.72499752044678
-6.86666440963745
-9.15555286407471
-14.7824029922485
-19.2648086547852
-21.0768451690674
-22.5074005126953
-23.3657341003418
-22.4120292663574
-15.8314762115479
-12.302773475647
-13.256477355957
-6.1037015914917
-1.52592539787292
-7.53425693511963
-12.4935140609741
-13.9240694046021
-12.302773475647
-7.34351634979248
-1.9074068069458
1.52592539787292
2.47962880134583
8.29721927642822
11.9212923049927
4.00555419921875
0.286111027002335
0.667592406272888
-2.00277709960938
-2.00277709960938
-1.52592539787292
1.43055510520935
6.00833129882813
5.91296100616455
8.10647869110107
10.0138854980469
5.43610954284668
2.09814739227295
3.43333220481873
5.7222204208374
5.1499981880188
6.00833129882813
12.302773475647
19.8370304107666
20.5999927520752
13.5425882339478
8.58333015441895
6.96203470230103
3.91018390655518
1.71666610240936
1.52592539787292
2.5749990940094
1.9074068069458
4.00555419921875
9.9185152053833
10.8722190856934
4.95925760269165
0.667592406272888
1.52592539787292
2.00277709960938
4.95925760269165
11.7305517196655
14.7824029922485
17.4527721405029
18.4064750671387
12.0166625976563
5.81759071350098
3.5287024974823
5.24536848068237
6.29444265365601
6.38981294631958
13.0657367706299
18.4064750671387
18.2157344818115
22.6981410980225
24.4148063659668
14.9731435775757
10.3953666687012
11.9212923049927
12.2074031829834
15.35462474823
17.4527721405029
18.4064750671387
21.1722145080566
20.3138828277588
15.2592544555664
10.8722190856934
12.0166625976563
12.2074031829834
7.91573810577393
9.9185152053833
18.787956237793
27.3712882995605
35.1916542053223
39.197208404541
43.7749862670898
51.8814659118652
52.1675758361816
47.6851692199707
43.679615020752
37.099063873291
37.2898025512695
45.2055397033691
53.6935005187988
59.701831817627
60.0833129882813
62.9444236755371
75.7240524291992
84.4981231689453
84.5934906005859
85.9286727905273
83.7351608276367
80.4925689697266
79.3481216430664
73.1490478515625
68.1897964477539
61.6092376708984
46.8268356323242
38.7203598022461
35.382396697998
28.3249912261963
18.1203651428223
4.95925760269165
-7.43888664245605
-17.1666603088379
-30.995361328125
-50.0694274902344
-62.4675712585449
-71.1462707519531
-84.5934906005859
-89.6481170654297
-85.9286727905273
-89.4573822021484
-92.6045989990234
-85.9286727905273
-79.5388641357422
-78.7759017944336
-81.16015625
-81.2555313110352
-78.6805267333984
-77.6314544677734
-72.7675704956055
-62.9444236755371
-54.2657241821289
-50.355541229248
-46.2546157836914
-38.2435073852539
-38.6249885559082
-45.7777633666992
-49.5925750732422
-56.4592399597168
-81.16015625
-140.099029541016
-223.548080444336
-282.868438720703
-288.686004638672
-283.631378173828
-303.468414306641
-291.356384277344
-209.337890625
-62.9444236755371
163.274017333984
420.869323730469
650.807189941406
882.080261230469
1133.38110351563
1383.15600585938
1612.99853515625
1776.27258300781
1780.94567871094
1513.90881347656
1066.33581542969
708.697021484375
489.822052001953
294.598968505859
91.5555267333984
-130.848098754883
-384.533203125
-595.683166503906
-703.260864257813
-726.912719726563
-694.296081542969
-654.431274414063
-635.929443359375
-640.125732421875
-677.12939453125
-725.863647460938
-761.722900390625
-780.606201171875
-766.300659179688
-714.609985351563
-642.509948730469
-564.687805175781
-502.601684570313
-471.701690673828
-468.554473876953
-482.097076416016
-499.454467773438
-506.41650390625
-489.440582275391
-446.428558349609
-388.634124755859
-328.741546630859
-278.576751708984
-246.246215820313
-231.940673828125
-235.087890625
-245.960113525391
-245.101776123047
-232.79899597168
-208.384185791016
-167.947174072266
-127.796257019043
-94.3212661743164
-66.4731292724609
-49.6879463195801
-51.6907234191895
-61.7999801635742
-60.9416465759277
-53.5027618408203
-38.9110984802246
-9.82314491271973
20.7907333374023
47.1129493713379
66.854606628418
73.2444229125977
69.8110885620117
65.9962768554688
66.2823867797852
72.7675704956055
86.4055252075195
102.52311706543
116.733299255371
127.033294677734
132.755508422852
134.472183227539
137.333282470703
143.532363891602
149.254577636719
154.786056518555
162.41569519043
171.285125732422
176.244384765625
176.721237182617
176.053649902344
173.669387817383
174.241607666016
179.3916015625
183.874008178711
189.596237182617
197.225860595703
198.084197998047
195.127716064453
191.789749145508
183.874008178711
179.48698425293
179.963836669922
179.3916015625
184.255493164063
191.694381713867
196.749008178711
199.991607666016
197.225860595703
189.691604614258
181.012908935547
173.764755249023
171.475875854492
169.568466186523
170.80827331543
179.868453979492
186.353637695313
186.353637695313
181.012908935547
166.039764404297
149.445327758789
140.480514526367
135.711990356445
137.905517578125
149.445327758789
158.600875854492
159.840682983398
156.02587890625
147.44255065918
132.660140991211
117.59162902832
108.912925720215
105.384223937988
103.286079406738
101.569412231445
103.476821899414
106.719413757324
106.814781188965
103.858299255371
90.7925643920898
73.1490478515625
65.2333145141602
60.5601654052734
56.8407211303711
61.99072265625
68.2851638793945
69.8110885620117
72.5768280029297
73.4351654052734
61.6092376708984
43.1073951721191
29.5648059844971
19.8370304107666
14.4962921142578
18.5972156524658
29.0879535675049
35.9546165466309
37.2898025512695
36.1453590393066
24.7009181976318
7.24814605712891
-6.1037015914917
-16.6898097991943
-22.2212886810303
-21.9351787567139
-20.2185115814209
-18.9786968231201
-17.6435127258301
-19.6462898254395
-29.9462871551514
-44.9194297790527
-55.0286865234375
-60.9416465759277
-67.4268264770508
-69.8110885620117
-63.3259048461914
-54.8379440307617
-52.9305381774902
-52.6444282531738
-54.4564628601074
-63.3259048461914
-70.4786834716797
-73.6259002685547
-78.394416809082
-82.0184936523438
-82.0184936523438
-80.111083984375
-77.6314544677734
-76.296272277832
-77.345344543457
-77.8221969604492
-78.4897918701172
-85.4518280029297
-87.5499725341797
-84.3073806762695
-87.0731201171875
-85.2610855102539
-76.4870147705078
-71.6231231689453
-71.6231231689453
-77.345344543457
-81.5416412353516
-82.4953460693359
-86.5009002685547
-89.9342269897461
-88.9805297851563
-82.876823425293
-80.3971939086914
-83.925895690918
-82.5907135009766
-78.6805267333984
-78.1083068847656
-79.8249740600586
-80.8740463256836
-79.729606628418
-78.4897918701172
-76.296272277832
-72.4814605712891
-69.4296035766602
-70.3833084106445
-71.5277557373047
-69.7157211303711
-70.4786834716797
-73.0536804199219
-70.6694183349609
-66.6638641357422
-66.2823867797852
-68.1897964477539
-69.1434936523438
-63.8981285095215
-56.6499824523926
-57.0314636230469
-57.8897972106934
-54.3610954284668
-53.0259094238281
-53.2166481018066
-51.1185035705566
-45.6823921203613
-45.5870208740234
-50.355541229248
-46.6360969543457
-44.1564674377441
-50.0694274902344
-47.7805404663086
-39.7694320678711
-38.148136138916
-33.761100769043
-30.995361328125
-34.6194343566895
-29.1833248138428
-23.5564746856689
-26.9898052215576
-25.7499923706055
-23.6518440246582
-23.3657341003418
-17.357400894165
-11.8259220123291
-12.6842555999756
-17.357400894165
-19.5509204864502
-17.6435127258301
-16.1175880432129
-13.0657367706299
-7.82036781311035
-4.57777643203735
-4.29166507720947
-6.29444265365601
-8.0111083984375
-8.67870044708252
-8.20184898376465
-7.15277528762817
-7.72499752044678
-5.53147983551025
-1.43055510520935
2.09814739227295
8.10647869110107
6.96203470230103
1.33518481254578
3.43333220481873
2.67036962509155
-4.10092449188232
-6.00833129882813
-3.43333220481873
-0.190740674734116
8.48795986175537
14.9731435775757
11.8259220123291
10.8722190856934
10.1092557907104
4.57777643203735
4.7685170173645
9.15555286407471
10.6814785003662
12.4935140609741
18.5018463134766
21.6490669250488
18.0249938964844
18.5972156524658
20.5046234130859
16.30832862854
11.1583299636841
8.77407169342041
9.34629344940186
8.77407169342041
8.20184898376465
11.2537002563477
15.8314762115479
16.4990692138672
12.1120328903198
7.15277528762817
5.43610954284668
7.72499752044678
10.204626083374
11.8259220123291
12.302773475647
14.4009208679199
21.0768451690674
25.6546211242676
20.5046234130859
12.3981437683105
11.9212923049927
11.3490705490112
10.7768487930298
15.0685138702393
15.2592544555664
15.8314762115479
23.8425846099854
30.1370277404785
26.6083240509033
18.8833274841309
15.9268465042114
14.5916624069214
9.72777462005615
6.29444265365601
7.72499752044678
11.3490705490112
12.3981437683105
15.8314762115479
19.9324016571045
15.9268465042114
10.1092557907104
9.9185152053833
12.7796258926392
13.9240694046021
15.2592544555664
21.5536975860596
27.943510055542
28.9925842285156
27.5620288848877
30.995361328125
35.0009155273438
36.8129501342773
38.3388748168945
41.0092468261719
49.6879463195801
55.4101676940918
52.453685760498
49.2110939025879
47.6851692199707
49.6879463195801
51.3092422485352
53.0259094238281
62.5629425048828
72.0046081542969
76.1055297851563
77.1546020507813
81.7323837280273
90.7925643920898
93.5583038330078
86.3101577758789
73.4351654052734
63.5166473388672
55.0286865234375
44.5379486083984
41.1999855041504
39.6740608215332
35.4777679443359
30.4231376647949
16.8805503845215
-2.09814739227295
-17.6435127258301
-31.8536930084229
-54.0749816894531
-71.1462707519531
-72.6721954345703
-76.6777496337891
-85.4518280029297
-90.8879318237305
-93.4629364013672
-94.702751159668
-95.8471908569336
-90.8879318237305
-83.925895690918
-81.4462738037109
-81.16015625
-79.9203414916992
-76.296272277832
-71.9092330932617
-65.3286819458008
-55.4101676940918
-47.6851692199707
-43.4888763427734
-38.2435073852539
-33.5703582763672
-35.2870254516602
-39.9601707458496
-42.1536903381348
-56.2685012817383
-105.098114013672
-182.348083496094
-258.548980712891
-295.075836181641
-286.873992919922
-294.026763916016
-308.618408203125
-263.317504882813
-154.976806640625
30.1370277404785
285.538787841797
537.125732421875
773.453430175781
1028.66442871094
1286.06909179688
1524.11340332031
1726.4892578125
1831.68273925781
1722.76977539063
1343.19592285156
899.151550292969
605.506286621094
400.746154785156
195.795303344727
-16.6898097991943
-263.412872314453
-513.855407714844
-682.470153808594
-753.521057128906
-754.760864257813
-717.8525390625
-681.039611816406
-666.161804199219
-686.666442871094
-728.62939453125
-766.777526855469
-796.056213378906
-803.208984375
-770.496948242188
-703.833129882813
-623.912780761719
-550.382202148438
-499.359100341797
-477.996154785156
-481.715576171875
-500.1220703125
-516.144287109375
-512.329467773438
-482.192443847656
-431.264678955078
-373.184143066406
-317.106384277344
-269.421203613281
-244.815658569336
-242.431396484375
-247.009185791016
-253.112884521484
-250.537887573242
-227.839736938477
-192.838821411133
-154.881439208984
-114.730522155762
-80.778678894043
-61.2277565002441
-52.8351669311523
-53.8842430114746
-58.2712783813477
-54.5518341064453
-41.5814666748047
-21.0768451690674
4.10092449188232
27.2759170532227
48.4481315612793
63.4212760925293
67.9990539550781
71.2416458129883
75.6286773681641
79.2527542114258
84.4981231689453
93.8444137573242
107.86385345459
123.409217834473
134.66291809082
143.15087890625
153.83235168457
159.173095703125
158.982360839844
161.175872802734
166.802719116211
172.143463134766
174.146240234375
178.056427001953
179.963836669922
179.3916015625
186.735122680664
192.171234130859
191.026794433594
199.037902832031
210.959197998047
212.008270263672
207.335113525391
201.326782226563
195.127716064453
191.599014282227
186.925872802734
187.211975097656
194.36474609375
203.04345703125
212.103637695313
213.72492980957
208.956420898438
201.136047363281
186.925872802734
175.004577636719
169.854568481445
171.380493164063
177.865676879883
181.394393920898
188.165679931641
193.983276367188
183.969390869141
170.140686035156
162.701797485352
149.445327758789
136.951812744141
138.573104858398
143.246246337891
147.53791809082
154.881439208984
156.502731323242
153.260131835938
148.396255493164
134.56755065918
119.68977355957
109.389778137207
100.997192382813
103.190704345703
110.724967956543
116.256446838379
120.166625976563
115.49348449707
102.999969482422
90.0296020507813
78.6805267333984
65.3286819458008
55.219425201416
57.6990547180176
68.5712738037109
78.2036819458008
81.9231185913086
77.6314544677734
67.9990539550781
59.2249794006348
49.1157264709473
34.0472106933594
24.0333251953125
21.9351787567139
26.9898052215576
34.7148017883301
38.5296173095703
38.8157272338867
31.7583236694336
17.9296245574951
6.77129411697388
-3.33796191215515
-15.8314762115479
-22.2212886810303
-18.2157344818115
-13.1611070632935
-10.2999963760376
-7.53425693511963
-12.9703664779663
-27.0851764678955
-39.864803314209
-50.6416511535645
-60.1786842346191
-63.4212760925293
-58.2712783813477
-50.7370223999023
-45.3962821960449
-41.2953567504883
-45.0148010253906
-56.7453536987305
-67.6175689697266
-76.3916397094727
-82.7814559936523
-83.925895690918
-82.0184936523438
-80.0157165527344
-76.6777496337891
-73.0536804199219
-74.2934951782227
-80.2064590454102
-86.5962677001953
-92.318489074707
-99.5666351318359
-103.476821899414
-102.141632080078
-99.2805252075195
-93.6536712646484
-83.3536758422852
-74.2934951782227
-75.9147872924805
-87.2638626098633
-92.8907089233398
-94.5120086669922
-98.0407104492188
-98.4221878051758
-95.2749710083008
-91.5555267333984
-89.5527496337891
-88.0268249511719
-87.2638626098633
-90.8879318237305
-92.6999740600586
-90.7925643920898
-89.7434921264648
-87.0731201171875
-82.0184936523438
-81.5416412353516
-83.2583084106445
-80.9694213867188
-78.6805267333984
-81.7323837280273
-82.5907135009766
-77.2499771118164
-75.247200012207
-75.8194198608398
-74.3888626098633
-72.0046081542969
-68.4759063720703
-69.5249786376953
-68.9527587890625
-62.7536849975586
-62.5629425048828
-63.4212760925293
-59.6064605712891
-57.6036834716797
-55.3147964477539
-54.170352935791
-54.8379440307617
-53.5981292724609
-52.6444282531738
-51.9768333435059
-49.2110939025879
-43.679615020752
-39.3879508972168
-38.5296173095703
-39.4833221435547
-40.6277656555176
-41.3907279968262
-41.1999855041504
-40.913875579834
-40.7231369018555
-37.5759124755859
-33.761100769043
-32.04443359375
-28.9925842285156
-25.7499923706055
-26.1314735412598
-26.0361022949219
-25.2731399536133
-27.1805477142334
-28.0388793945313
-25.177770614624
-18.8833274841309
-12.6842555999756
-12.0166625976563
-11.8259220123291
-8.86944198608398
-10.7768487930298
-16.4036979675293
-19.8370304107666
-20.0277709960938
-12.4935140609741
-1.9074068069458
2.95648050308228
6.6759238243103
8.77407169342041
8.67870044708252
7.43888664245605
2.95648050308228
-0.47685170173645
-0.762962698936462
-0.0953703373670578
4.00555419921875
10.9675893783569
16.6898097991943
19.8370304107666
15.9268465042114
8.48795986175537
5.91296100616455
4.7685170173645
4.95925760269165
8.96481227874756
13.5425882339478
18.5972156524658
25.4638805389404
27.5620288848877
23.9379558563232
20.7907333374023
15.0685138702393
8.0111083984375
6.1037015914917
7.72499752044678
10.5861072540283
13.7333288192749
17.1666603088379
20.8861045837402
23.2703628540039
24.9870281219482
19.360179901123
10.7768487930298
11.5398111343384
15.5453653335571
15.2592544555664
16.8805503845215
22.9842510223389
26.3222141265869
24.4148063659668
21.4583263397217
19.4555492401123
19.1694374084473
20.0277709960938
18.3111057281494
16.1175880432129
19.074068069458
25.4638805389404
29.5648059844971
29.3740653991699
29.4694347381592
30.3277683258057
28.8018417358398
23.3657341003418
18.2157344818115
20.5046234130859
26.1314735412598
32.04443359375
35.4777679443359
35.2870254516602
35.9546165466309
33.1888771057129
26.9898052215576
24.0333251953125
19.7416610717773
12.588885307312
13.0657367706299
18.1203651428223
21.9351787567139
25.8453617095947
26.3222141265869
22.6027698516846
20.6953639984131
24.9870281219482
30.5185089111328
32.1398048400879
36.5268402099609
45.7777633666992
52.5490570068359
58.3666496276855
65.4240493774414
67.2360916137695
61.8953514099121
54.0749816894531
48.066650390625
47.9712791442871
51.9768333435059
54.4564628601074
61.1323890686035
69.3342361450195
72.0046081542969
76.8684921264648
85.3564529418945
88.8851547241211
82.9721984863281
75.1518249511719
69.1434936523438
61.7046089172363
54.0749816894531
44.9194297790527
31.9490642547607
23.2703628540039
21.2675857543945
12.7796258926392
-1.81203651428223
-18.2157344818115
-35.0009155273438
-46.2546157836914
-59.5110931396484
-72.1953506469727
-77.8221969604492
-85.6425628662109
-94.7981185913086
-100.52033996582
-101.855522155762
-97.6592254638672
-91.9370040893555
-88.8851547241211
-85.4518280029297
-82.9721984863281
-84.4027481079102
-85.3564529418945
-84.7842330932617
-81.16015625
-70.2879409790039
-60.8462753295898
-59.0342407226563
-54.3610954284668
-46.3499870300293
-44.1564674377441
-47.8759117126465
-52.1675758361816
-55.219425201416
-69.8110885620117
-113.395332336426
-182.920318603516
-258.167510986328
-301.561004638672
-298.223052978516
-305.185089111328
-323.210083007813
-279.244354248047
-173.001800537109
2.00277709960938
253.398986816406
506.130401611328
736.831237792969
990.897827148438
1255.45520019531
1496.93286132813
1707.41516113281
1829.96606445313
1730.685546875
1361.22082519531
933.48486328125
641.460876464844
426.496154785156
219.351776123047
10.7768487930298
-236.995300292969
-489.535949707031
-660.05810546875
-737.30810546875
-739.501586914063
-698.39697265625
-662.537780761719
-649.471984863281
-665.589599609375
-709.173828125
-759.052551269531
-790.6201171875
-791.764587402344
-760.864562988281
-695.249755859375
-613.421997070313
-542.180358886719
-490.680389404297
-467.219299316406
-473.609100341797
-491.729461669922
-506.321136474609
-506.225769042969
-479.235961914063
-429.643371582031
-370.513763427734
-311.288787841797
-262.363800048828
-234.420288085938
-230.223999023438
-239.951782226563
-249.011962890625
-248.344360351563
-232.79899597168
-203.138824462891
-162.129577636719
-117.019409179688
-78.5851593017578
-53.7888717651367
-47.3036880493164
-51.8814659118652
-55.887020111084
-57.8897972106934
-50.0694274902344
-26.7990646362305
2.09814739227295
29.8509159088135
54.170352935791
67.4268264770508
71.1462707519531
72.1953506469727
71.4323883056641
71.8138656616211
74.8657150268555
84.5934906005859
100.615707397461
115.874961853027
131.134216308594
142.483291625977
146.202728271484
148.873107910156
153.164764404297
155.549026489258
158.028656005859
164.132354736328
169.186981201172
173.955505371094
178.533279418945
180.726791381836
183.68327331543
187.211975097656
188.165679931641
193.601791381836
201.136047363281
200.84992980957
198.370300292969
197.130493164063
194.174011230469
191.026794433594
190.073089599609
192.648086547852
194.078643798828
196.176788330078
201.326782226563
203.997161865234
204.664749145508
200.563827514648
187.402725219727
176.149017333984
174.718460083008
177.198089599609
180.917541503906
186.449020385742
192.648086547852
195.032348632813
186.639755249023
172.715682983398
162.797164916992
151.924957275391
141.243469238281
141.815689086914
148.110137939453
149.63606262207
152.020324707031
156.216613769531
156.216613769531
148.682357788086
134.949035644531
119.59440612793
105.76570892334
96.7055282592773
98.4221878051758
109.103668212891
116.637924194336
117.400886535645
117.114776611328
111.297187805176
95.6564483642578
78.2990493774414
69.4296035766602
65.9009017944336
67.2360916137695
73.7212753295898
79.4434967041016
84.1166381835938
84.2120132446289
75.8194198608398
63.8027572631836
49.4972076416016
34.5240631103516
24.891658782959
25.7499923706055
32.9981384277344
39.864803314209
44.3472061157227
44.6333198547363
36.6222114562988
21.839807510376
5.1499981880188
-9.82314491271973
-17.9296245574951
-16.5944385528564
-13.8286991119385
-10.7768487930298
-7.24814605712891
-7.6296272277832
-10.3953666687012
-16.6898097991943
-28.8018417358398
-42.8212814331055
-56.936092376709
-67.7129440307617
-63.4212760925293
-53.4073905944824
-49.783317565918
-47.3990592956543
-50.9277610778809
-58.7481307983398
-67.1407165527344
-76.2009048461914
-80.6833038330078
-81.2555313110352
-80.9694213867188
-78.2990493774414
-73.3397903442383
-70.7647933959961
-70.2879409790039
-71.4323883056641
-78.2990493774414
-86.5962677001953
-91.5555267333984
-92.986083984375
-92.5092315673828
-90.1249694824219
-86.9777526855469
-85.7379379272461
-83.2583084106445
-84.5934906005859
-91.8416366577148
-91.8416366577148
-92.2231216430664
-97.4684906005859
-95.084228515625
-90.9833068847656
-91.0786743164063
-86.3101577758789
-82.4953460693359
-87.3592300415039
-90.8879318237305
-89.6481170654297
-93.367561340332
-97.7546005249023
-95.084228515625
-92.0323791503906
-87.2638626098633
-84.6888580322266
-90.9833068847656
-93.9397811889648
-94.8934860229492
-97.5638580322266
-92.7953414916992
-87.7407150268555
-86.8823776245117
-86.3101577758789
-84.4981231689453
-78.1083068847656
-72.8629379272461
-70.3833084106445
-67.6175689697266
-68.4759063720703
-70.6694183349609
-67.903678894043
-60.5601654052734
-57.1268348693848
-59.7972030639648
-58.1759071350098
-53.5027618408203
-53.2166481018066
-52.453685760498
-50.9277610778809
-51.0231323242188
-47.017578125
-44.3472061157227
-43.4888763427734
-39.7694320678711
-42.7259140014648
-47.4944305419922
-40.5323944091797
-30.5185089111328
-29.1833248138428
-28.7064723968506
-22.6981410980225
-19.360179901123
-19.6462898254395
-19.4555492401123
-20.8861045837402
-23.9379558563232
-26.6083240509033
-26.1314735412598
-22.7935104370117
-18.2157344818115
-13.3518476486206
-9.72777462005615
-8.77407169342041
-10.6814785003662
-10.5861072540283
-8.77407169342041
-10.204626083374
-11.8259220123291
-7.34351634979248
-0.381481349468231
1.71666610240936
0.858333051204681
1.9074068069458
2.47962880134583
-1.04907369613647
-4.1962947845459
-5.62685012817383
-6.96203470230103
-4.67314672470093
0.381481349468231
3.24259161949158
8.0111083984375
14.687032699585
17.4527721405029
15.5453653335571
10.0138854980469
4.67314672470093
3.62407302856445
5.62685012817383
8.20184898376465
14.0194396972656
21.1722145080566
22.0305480957031
23.0796222686768
23.3657341003418
12.9703664779663
4.1962947845459
5.1499981880188
5.7222204208374
8.3925895690918
13.1611070632935
15.9268465042114
18.2157344818115
16.5944385528564
13.8286991119385
14.4962921142578
12.588885307312
12.2074031829834
14.5916624069214
15.35462474823
19.074068069458
25.2731399536133
27.657398223877
28.5157318115234
27.8481388092041
24.0333251953125
22.125919342041
21.3629570007324
19.4555492401123
20.6953639984131
23.4611034393311
25.2731399536133
28.1342506408691
30.70924949646
31.0907306671143
27.0851764678955
19.5509204864502
13.6379585266113
14.4009208679199
16.4990692138672
16.8805503845215
22.5074005126953
27.8481388092041
26.9898052215576
26.7990646362305
23.9379558563232
17.2620315551758
18.0249938964844
21.9351787567139
22.8888816833496
23.6518440246582
21.5536975860596
21.7444381713867
24.891658782959
25.4638805389404
25.177770614624
25.177770614624
24.2240657806396
22.2212886810303
19.2648086547852
20.0277709960938
30.0416564941406
40.1509132385254
41.0092468261719
44.0610961914063
49.4018363952637
49.6879463195801
48.4481315612793
46.5407257080078
45.6823921203613
45.1101722717285
40.8185043334961
43.4888763427734
52.3583183288574
53.7888717651367
57.3175735473633
66.7592391967773
73.6259002685547
77.7268295288086
80.4925689697266
83.1629333496094
80.111083984375
72.1953506469727
68.5712738037109
64.2796096801758
54.3610954284668
44.1564674377441
37.3851737976074
32.9027671813965
27.3712882995605
16.6898097991943
2.28888821601868
-12.2074031829834
-24.3194370269775
-32.04443359375
-45.9685020446777
-64.0888671875
-70.6694183349609
-72.3860855102539
-80.111083984375
-88.3129348754883
-88.6944122314453
-87.6453399658203
-86.8823776245117
-81.2555313110352
-77.7268295288086
-79.2527542114258
-80.3018264770508
-81.2555313110352
-78.9666442871094
-70.0018310546875
-62.7536849975586
-59.0342407226563
-51.5953521728516
-44.5379486083984
-41.962947845459
-37.3851737976074
-37.0036926269531
-41.4860992431641
-41.0092468261719
-52.0722045898438
-98.9944152832031
-176.339752197266
-250.633255004883
-286.683227539063
-285.348052978516
-297.07861328125
-314.436004638672
-269.898071289063
-163.464767456055
8.0111083984375
253.208251953125
503.364654541016
733.970153808594
986.033935546875
1247.634765625
1494.16711425781
1708.94116210938
1822.24108886719
1712.56518554688
1345.8662109375
932.626525878906
650.330322265625
434.125793457031
220.877700805664
4.86388731002808
-243.957336425781
-493.255401611328
-663.300720214844
-737.975708007813
-738.547912597656
-702.784057617188
-667.401611328125
-650.234985351563
-667.878479003906
-708.124755859375
-748.466430664063
-780.224731445313
-784.897888183594
-748.466430664063
-685.998840332031
-614.471069335938
-543.897033691406
-492.683166503906
-471.987823486328
-477.042449951172
-492.969299316406
-504.032257080078
-498.310028076172
-470.652618408203
-424.684112548828
-363.933227539063
-304.803619384766
-263.603607177734
-242.145294189453
-240.237884521484
-248.916580200195
-256.736968994141
-256.069366455078
-238.235107421875
-203.806411743164
-160.699020385742
-118.926811218262
-86.5962677001953
-65.3286819458008
-55.219425201416
-58.1759071350098
-65.3286819458008
-65.9962768554688
-54.5518341064453
-32.5212860107422
-6.77129411697388
18.4064750671387
38.148136138916
53.7888717651367
60.9416465759277
58.7481307983398
61.6092376708984
68.7620162963867
74.198127746582
85.9286727905273
100.997192382813
112.346260070801
124.744407653809
136.66569519043
140.289764404297
138.76383972168
138.382369995117
141.815689086914
149.826797485352
159.649948120117
166.70735168457
170.617538452148
175.099945068359
177.770309448242
178.247161865234
182.729568481445
186.830490112305
188.356414794922
192.171234130859
197.607345581055
198.65641784668
196.55827331543
192.45735168457
184.064758300781
179.963836669922
183.492538452148
189.024017333984
193.792526245117
198.465682983398
204.283264160156
203.901779174805
191.312896728516
179.48698425293
171.857345581055
166.135131835938
167.947174072266
175.481430053711
181.012908935547
183.77864074707
184.064758300781
178.533279418945
169.377716064453
160.41291809082
150.017547607422
140.480514526367
135.235137939453
137.047180175781
147.061065673828
157.837905883789
160.317535400391
153.546249389648
144.104583740234
133.613845825195
119.308296203613
108.531448364258
104.812004089355
104.907371520996
110.820335388184
120.262001037598
126.270332336426
124.649032592773
117.114776611328
105.86107635498
87.5499725341797
73.6259002685547
70.8601608276367
67.5222015380859
67.1407165527344
72.0046081542969
77.1546020507813
79.8249740600586
72.8629379272461
58.5573883056641
45.5870208740234
33.1888771057129
22.8888816833496
23.8425846099854
32.2351760864258
37.8620262145996
42.0583190917969
43.9657249450684
37.2898025512695
23.5564746856689
9.9185152053833
-2.38425850868225
-14.8777732849121
-22.6981410980225
-22.8888816833496
-19.074068069458
-15.7361059188843
-13.7333288192749
-14.7824029922485
-22.6981410980225
-32.9027671813965
-41.2953567504883
-51.0231323242188
-56.936092376709
-56.6499824523926
-53.5981292724609
-47.7805404663086
-45.8731346130371
-49.783317565918
-54.3610954284668
-60.8462753295898
-69.3342361450195
-79.2527542114258
-84.2120132446289
-79.6342315673828
-72.3860855102539
-66.4731292724609
-62.8490524291992
-62.9444236755371
-64.6610870361328
-67.3314590454102
-73.5305328369141
-82.0184936523438
-87.4546051025391
-86.4055252075195
-80.6833038330078
-75.0564575195313
-71.1462707519531
-70.8601608276367
-76.5823822021484
-82.2092361450195
-82.876823425293
-86.6916351318359
-92.4138565063477
-89.4573822021484
-84.1166381835938
-83.6397857666016
-83.8305282592773
-86.1194152832031
-87.4546051025391
-88.8851547241211
-92.6999740600586
-94.3212661743164
-92.4138565063477
-93.9397811889648
-97.2777481079102
-93.6536712646484
-87.3592300415039
-85.1657104492188
-84.5934906005859
-85.2610855102539
-85.0703430175781
-84.9749755859375
-82.9721984863281
-77.7268295288086
-77.6314544677734
-81.0647888183594
-77.7268295288086
-70.9555358886719
-72.4814605712891
-77.345344543457
-72.9583129882813
-65.4240493774414
-60.5601654052734
-58.0805358886719
-59.1296119689941
-60.3694267272949
-61.7999801635742
-63.7073860168457
-64.2796096801758
-61.1323890686035
-56.8407211303711
-53.5027618408203
-47.9712791442871
-45.1101722717285
-44.4425773620605
-39.2925796508789
-37.0036926269531
-38.3388748168945
-36.6222114562988
-35.8592491149902
-37.7666549682617
-34.4286918640137
-27.1805477142334
-22.9842510223389
-23.1749935150146
-23.9379558563232
-20.5999927520752
-15.8314762115479
-14.5916624069214
-14.2101802825928
-15.1638841629028
-16.9759197235107
-17.5481433868408
-14.4009208679199
-8.20184898376465
-9.06018257141113
-14.4962921142578
-14.4962921142578
-13.5425882339478
-11.2537002563477
-4.86388731002808
0.858333051204681
6.00833129882813
10.1092557907104
12.302773475647
14.4962921142578
13.8286991119385
7.15277528762817
-1.04907369613647
-4.29166507720947
-0.762962698936462
6.86666440963745
12.2074031829834
11.635181427002
12.302773475647
14.7824029922485
14.2101802825928
13.1611070632935
12.302773475647
10.5861072540283
10.6814785003662
13.8286991119385
15.2592544555664
17.8342533111572
23.9379558563232
26.3222141265869
23.9379558563232
20.9814739227295
20.7907333374023
15.8314762115479
7.24814605712891
7.0574049949646
10.5861072540283
11.8259220123291
16.4036979675293
19.4555492401123
17.4527721405029
16.7851791381836
15.1638841629028
12.0166625976563
13.9240694046021
17.6435127258301
19.7416610717773
25.6546211242676
31.3768424987793
30.1370277404785
27.5620288848877
24.9870281219482
17.6435127258301
10.7768487930298
11.4444408416748
15.5453653335571
18.4064750671387
18.5972156524658
22.3166599273682
28.8018417358398
30.1370277404785
24.2240657806396
19.7416610717773
15.7361059188843
13.7333288192749
16.7851791381836
20.2185115814209
23.0796222686768
24.9870281219482
27.4666576385498
28.7064723968506
27.943510055542
22.9842510223389
13.6379585266113
12.7796258926392
20.6953639984131
22.7935104370117
18.8833274841309
18.5972156524658
19.4555492401123
18.3111057281494
19.074068069458
19.9324016571045
19.074068069458
20.3138828277588
24.7962875366211
28.4203605651855
33.1888771057129
41.1046180725098
46.6360969543457
49.4972076416016
47.9712791442871
44.6333198547363
43.3935050964355
38.6249885559082
36.8129501342773
40.7231369018555
40.7231369018555
46.2546157836914
63.9934997558594
76.296272277832
76.296272277832
79.3481216430664
85.7379379272461
82.6860809326172
78.1083068847656
74.2934951782227
62.6583137512207
51.9768333435059
46.2546157836914
39.4833221435547
34.2379531860352
31.1861019134521
23.8425846099854
9.537034034729
-8.67870044708252
-24.7962875366211
-38.0527648925781
-53.5981292724609
-64.1842422485352
-67.3314590454102
-78.7759017944336
-90.220344543457
-90.5064544677734
-91.7462692260742
-89.4573822021484
-80.4925689697266
-75.4379425048828
-73.3397903442383
-70.4786834716797
-68.8573837280273
-72.6721954345703
-76.9638671875
-74.5796051025391
-67.5222015380859
-61.2277565002441
-55.4101676940918
-46.7314682006836
-40.1509132385254
-42.9166526794434
-46.6360969543457
-46.1592445373535
-48.1620216369629
-60.0833129882813
-99.0897827148438
-167.374938964844
-241.668441772461
-289.830474853516
-296.315643310547
-298.509155273438
-313.577667236328
-288.304534912109
-200.086975097656
-47.4944305419922
185.590682983398
439.466522216797
658.055358886719
887.802490234375
1147.20983886719
1398.03381347656
1616.05041503906
1757.38928222656
1704.17260742188
1372.76062011719
955.896911621094
672.647033691406
471.034118652344
275.52490234375
81.2555313110352
-154.690689086914
-411.332275390625
-591.868347167969
-680.562744140625
-696.394226074219
-659.485900878906
-625.247924804688
-610.656311035156
-623.435913085938
-667.497009277344
-715.945129394531
-747.798828125
-754.570129394531
-728.724792480469
-668.641479492188
-596.827575683594
-532.929443359375
-482.383178710938
-457.586883544922
-457.491516113281
-470.17578125
-486.484100341797
-489.535949707031
-469.317443847656
-428.403564453125
-371.562835693359
-311.861022949219
-264.652679443359
-237.662887573242
-232.703628540039
-237.662887573242
-240.810104370117
-242.908248901367
-233.657333374023
-201.517532348633
-159.268463134766
-119.785148620605
-86.6916351318359
-65.4240493774414
-55.4101676940918
-55.9823913574219
-63.6120147705078
-62.7536849975586
-47.7805404663086
-29.9462871551514
-11.5398111343384
16.4036979675293
45.1101722717285
59.7972030639648
66.2823867797852
69.7157211303711
68.2851638793945
66.6638641357422
70.6694183349609
82.3046035766602
99.8527450561523
113.776817321777
120.83422088623
125.698104858398
126.365699768066
129.131439208984
136.188842773438
138.382369995117
139.431442260742
143.913848876953
152.497177124023
162.41569519043
168.80549621582
174.336975097656
177.198089599609
179.868453979492
181.775863647461
180.917541503906
186.544387817383
191.599014282227
187.593460083008
186.735122680664
187.402725219727
180.059204101563
173.001800537109
174.813827514648
181.489761352539
184.827713012695
186.449020385742
188.547164916992
185.018463134766
178.151794433594
176.339752197266
176.053649902344
170.140686035156
163.560134887695
164.227722167969
170.331420898438
175.386047363281
181.012908935547
184.446243286133
175.004577636719
160.794387817383
152.306427001953
147.34716796875
147.061065673828
151.161987304688
154.404586791992
155.453659057617
159.745315551758
159.459213256836
147.728652954102
137.524032592773
127.986999511719
116.065704345703
109.294410705566
107.291633605957
107.95922088623
112.155517578125
118.73607635498
120.166625976563
112.060150146484
95.4657135009766
78.012939453125
70.1925735473633
64.1842422485352
61.7999801635742
74.3888626098633
86.6916351318359
86.7870101928711
81.827751159668
76.296272277832
63.5166473388672
45.5870208740234
34.1425819396973
24.6055469512939
19.4555492401123
22.6981410980225
23.9379558563232
23.7472152709961
23.2703628540039
16.4990692138672
4.57777643203735
-8.0111083984375
-18.4064750671387
-24.0333251953125
-20.2185115814209
-11.8259220123291
-14.2101802825928
-17.8342533111572
-15.7361059188843
-21.2675857543945
-31.9490642547607
-40.0555419921875
-48.6388740539551
-61.5138702392578
-69.8110885620117
-65.9962768554688
-60.3694267272949
-58.9388694763184
-57.2222023010254
-54.0749816894531
-56.5546112060547
-66.3777542114258
-76.4870147705078
-84.9749755859375
-86.3101577758789
-79.4434967041016
-74.6749725341797
-72.6721954345703
-68.8573837280273
-62.2768325805664
-63.3259048461914
-77.4407196044922
-86.7870101928711
-85.2610855102539
-86.2147903442383
-90.7925643920898
-89.5527496337891
-82.3999710083008
-73.8166427612305
-70.3833084106445
-78.9666442871094
-87.6453399658203
-86.3101577758789
-86.6916351318359
-90.9833068847656
-92.986083984375
-93.5583038330078
-90.1249694824219
-82.4953460693359
-77.4407196044922
-76.8684921264648
-82.0184936523438
-89.7434921264648
-91.269416809082
-92.4138565063477
-92.6999740600586
-86.4055252075195
-81.827751159668
-77.2499771118164
-72.5768280029297
-71.4323883056641
-71.4323883056641
-75.1518249511719
-77.0592346191406
-76.3916397094727
-75.6286773681641
-72.7675704956055
-69.4296035766602
-68.0944213867188
-69.2388687133789
-71.4323883056641
-73.2444229125977
-71.4323883056641
-69.2388687133789
-67.0453491210938
-59.3203506469727
-54.9333152770996
-54.170352935791
-48.066650390625
-42.1536903381348
-36.7175827026367
-33.1888771057129
-35.5731353759766
-34.0472106933594
-31.1861019134521
-38.2435073852539
-43.9657249450684
-39.1018409729004
-33.761100769043
-32.9981384277344
-31.7583236694336
-25.8453617095947
-19.1694374084473
-14.7824029922485
-10.0138854980469
-10.2999963760376
-13.8286991119385
-13.7333288192749
-11.4444408416748
-11.635181427002
-14.7824029922485
-16.6898097991943
-20.3138828277588
-17.0712909698486
-5.1499981880188
-1.14444410800934
0.762962698936462
3.5287024974823
-0.9537034034729
-7.15277528762817
-14.8777732849121
-22.2212886810303
-18.3111057281494
-7.53425693511963
-0.9537034034729
0.762962698936462
3.71944332122803
6.1037015914917
1.62129580974579
-7.15277528762817
-14.7824029922485
-15.35462474823
-10.4907369613647
-10.7768487930298
-8.3925895690918
2.00277709960938
7.24814605712891
6.77129411697388
6.29444265365601
6.58055353164673
5.43610954284668
1.81203651428223
3.91018390655518
9.63240432739258
12.302773475647
16.1175880432129
20.8861045837402
19.8370304107666
15.8314762115479
13.1611070632935
8.96481227874756
4.57777643203735
0.190740674734116
-3.71944332122803
1.62129580974579
12.3981437683105
17.357400894165
17.8342533111572
20.1231422424316
22.5074005126953
15.7361059188843
6.77129411697388
11.5398111343384
20.7907333374023
23.8425846099854
27.0851764678955
30.8046188354492
29.6601753234863
22.7935104370117
18.5018463134766
20.3138828277588
20.409252166748
20.8861045837402
28.2296199798584
34.6194343566895
38.2435073852539
43.3935050964355
46.2546157836914
45.7777633666992
43.3935050964355
36.2407302856445
26.6083240509033
25.7499923706055
35.2870254516602
44.8240585327148
54.170352935791
68.2851638793945
76.8684921264648
79.3481216430664
82.3046035766602
83.3536758422852
84.8796005249023
81.4462738037109
74.2934951782227
69.1434936523438
58.9388694763184
49.0203552246094
39.0064697265625
27.7527694702148
23.8425846099854
23.7472152709961
21.0768451690674
15.7361059188843
7.53425693511963
-2.95648050308228
-14.7824029922485
-30.8999900817871
-48.8296127319336
-57.9851684570313
-59.8925743103027
-63.039794921875
-66.5684967041016
-70.0018310546875
-71.6231231689453
-64.3749771118164
-54.8379440307617
-54.2657241821289
-54.5518341064453
-51.1185035705566
-50.0694274902344
-51.7860946655273
-54.8379440307617
-49.3064651489258
-35.4777679443359
-30.0416564941406
-32.3305435180664
-33.6657295227051
-28.1342506408691
-20.1231422424316
-22.7935104370117
-30.0416564941406
-49.4972076416016
-103.381446838379
-177.579574584961
-238.044372558594
-261.219360351563
-261.314727783203
-267.990661621094
-275.52490234375
-246.913803100586
-146.965698242188
23.5564746856689
248.630477905273
486.007263183594
691.911804199219
891.903442382813
1118.78942871094
1363.2236328125
1573.80139160156
1672.60498046875
1530.21716308594
1155.60241699219
807.9775390625
578.802612304688
376.808227539063
189.405502319336
7.72499752044678
-196.367523193359
-400.936920166016
-545.804443359375
-609.034973144531
-609.893310546875
-570.696105957031
-534.073913574219
-531.594299316406
-560.872985839844
-609.988708496094
-661.584045410156
-689.718322753906
-685.617370605469
-660.725708007813
-608.653503417969
-533.978515625
-468.649841308594
-428.022094726563
-407.898956298828
-412.858215332031
-438.322082519531
-456.823913574219
-454.535034179688
-430.215606689453
-383.102661132813
-327.501739501953
-275.52490234375
-238.139739990234
-221.259185791016
-214.106414794922
-218.398071289063
-230.319366455078
-228.411956787109
-212.675857543945
-183.68327331543
-138.573104858398
-95.751823425293
-67.2360916137695
-50.5462799072266
-46.7314682006836
-51.6907234191895
-53.9796104431152
-55.5055389404297
-52.8351669311523
-29.9462871551514
1.33518481254578
23.4611034393311
40.7231369018555
52.9305381774902
56.8407211303711
55.5055389404297
52.9305381774902
55.1240577697754
59.9879455566406
64.1842422485352
78.4897918701172
98.4221878051758
110.915702819824
121.787925720215
127.414772033691
126.174957275391
122.074035644531
119.499038696289
123.218475341797
128.654586791992
140.671249389648
153.73698425293
155.83512878418
154.213836669922
151.066619873047
148.205505371094
149.731430053711
154.595321655273
162.129577636719
167.374938964844
167.279571533203
168.328643798828
168.328643798828
164.036987304688
159.936065673828
160.603652954102
164.895324707031
168.042541503906
170.617538452148
175.481430053711
179.868453979492
175.386047363281
164.036987304688
159.077728271484
154.213836669922
151.73420715332
160.889770507813
165.944396972656
166.135131835938
167.470321655273
159.077728271484
145.535140991211
132.660140991211
119.59440612793
109.675888061523
107.100891113281
117.877738952637
134.090698242188
140.861999511719
144.104583740234
145.916625976563
135.044403076172
119.117553710938
107.86385345459
96.9916381835938
93.0814514160156
97.182373046875
104.144409179688
112.441627502441
113.681442260742
105.76570892334
90.6018218994141
73.1490478515625
64.5657196044922
61.7999801635742
62.0860900878906
62.5629425048828
60.6555366516113
64.5657196044922
66.7592391967773
54.4564628601074
38.9110984802246
26.5129547119141
12.302773475647
2.95648050308228
-0.9537034034729
-1.33518481254578
5.81759071350098
13.7333288192749
10.7768487930298
2.67036962509155
-1.62129580974579
-10.8722190856934
-26.226842880249
-35.8592491149902
-45.9685020446777
-54.7425765991211
-50.355541229248
-42.3444290161133
-33.2842483520508
-26.226842880249
-32.8073959350586
-44.251838684082
-56.1731300354004
-67.7129440307617
-69.7157211303711
-69.7157211303711
-67.7129440307617
-57.8897972106934
-55.6962776184082
-58.5573883056641
-54.170352935791
-54.6472053527832
-64.756462097168
-70.8601608276367
-72.9583129882813
-77.6314544677734
-74.6749725341797
-62.7536849975586
-61.323127746582
-63.8981285095215
-55.4101676940918
-50.2601699829102
-58.8434982299805
-68.9527587890625
-70.4786834716797
-71.1462707519531
-77.8221969604492
-79.6342315673828
-75.0564575195313
-71.7184982299805
-65.805534362793
-64.9472045898438
-67.6175689697266
-62.2768325805664
-62.2768325805664
-68.9527587890625
-67.0453491210938
-59.9879455566406
-59.3203506469727
-61.4184989929199
-60.7509078979492
-64.0888671875
-71.5277557373047
-74.5796051025391
-74.7703475952148
-70.9555358886719
-61.0370178222656
-55.9823913574219
-57.1268348693848
-53.3120193481445
-47.7805404663086
-48.2573928833008
-47.9712791442871
-44.7286911010742
-46.6360969543457
-50.5462799072266
-47.4944305419922
-45.4916534423828
-49.3064651489258
-47.9712791442871
-45.3962821960449
-44.5379486083984
-40.8185043334961
-38.3388748168945
-34.810173034668
-33.1888771057129
-32.2351760864258
-27.943510055542
-27.8481388092041
-28.8018417358398
-26.7990646362305
-27.1805477142334
-27.2759170532227
-26.0361022949219
-27.2759170532227
-27.5620288848877
-25.4638805389404
-27.4666576385498
-31.4722118377686
-29.9462871551514
-25.0823993682861
-23.3657341003418
-25.5592517852783
-26.5129547119141
-21.6490669250488
-14.4962921142578
-13.1611070632935
-12.6842555999756
-8.67870044708252
-9.72777462005615
-10.204626083374
-6.58055353164673
-5.7222204208374
-3.91018390655518
-4.1962947845459
-10.0138854980469
-12.4935140609741
-9.34629344940186
-7.43888664245605
-11.1583299636841
-12.8749961853027
-12.4935140609741
-16.022216796875
-14.1148099899292
-7.34351634979248
-5.34073925018311
-4.00555419921875
-1.81203651428223
-3.05185079574585
-9.06018257141113
-12.6842555999756
-7.82036781311035
0.0953703373670578
0
-0.286111027002335
8.67870044708252
11.5398111343384
8.0111083984375
6.6759238243103
0.9537034034729
0.381481349468231
5.81759071350098
3.43333220481873
-1.04907369613647
0
4.10092449188232
8.48795986175537
14.2101802825928
18.2157344818115
16.6898097991943
11.3490705490112
7.24814605712891
9.44166374206543
11.9212923049927
8.67870044708252
13.3518476486206
21.839807510376
22.7935104370117
20.6953639984131
18.8833274841309
15.9268465042114
6.86666440963745
3.147221326828
12.7796258926392
21.4583263397217
29.4694347381592
40.7231369018555
48.5435028076172
50.9277610778809
46.7314682006836
38.6249885559082
32.3305435180664
29.7555465698242
33.761100769043
46.0638732910156
59.4157218933105
65.5194244384766
65.3286819458008
64.2796096801758
69.5249786376953
74.6749725341797
76.5823822021484
76.6777496337891
70.4786834716797
64.5657196044922
55.3147964477539
41.4860992431641
34.7148017883301
30.2323970794678
24.3194370269775
24.9870281219482
24.7009181976318
12.1120328903198
-0.381481349468231
-9.82314491271973
-24.6055469512939
-40.7231369018555
-49.4018363952637
-49.4018363952637
-50.355541229248
-55.6962776184082
-63.5166473388672
-73.4351654052734
-79.729606628418
-79.4434967041016
-74.7703475952148
-67.5222015380859
-63.4212760925293
-58.4620170593262
-50.4509086608887
-50.4509086608887
-53.121280670166
-52.453685760498
-49.4018363952637
-44.0610961914063
-41.4860992431641
-38.9110984802246
-27.943510055542
-18.3111057281494
-22.2212886810303
-28.3249912261963
-39.4833221435547
-77.5360870361328
-146.774948120117
-225.836959838867
-273.522125244141
-278.576751708984
-274.380462646484
-279.053619384766
-271.423980712891
-204.474014282227
-56.0777587890625
162.892547607422
415.337829589844
634.784973144531
834.490478515625
1061.09045410156
1302.09130859375
1530.3125
1690.05773925781
1655.05688476563
1346.05700683594
951.033020019531
667.783142089844
455.965606689453
259.979553222656
72.9583129882813
-130.752731323242
-351.725799560547
-530.545227050781
-628.490539550781
-650.711853027344
-613.803527832031
-569.933166503906
-555.627624511719
-571.554443359375
-615.806274414063
-669.118286132813
-705.359008789063
-715.945129394531
-695.440490722656
-642.128479003906
-572.794250488281
-508.037811279297
-458.635955810547
-432.409118652344
-426.019317626953
-435.556335449219
-456.347076416016
-462.450775146484
-443.281341552734
-407.326721191406
-354.205444335938
-293.263793945313
-245.197143554688
-216.013824462891
-203.329559326172
-212.199005126953
-227.744369506836
-230.223999023438
-220.877700805664
-195.795303344727
-157.837905883789
-119.59440612793
-82.6860809326172
-57.6990547180176
-51.8814659118652
-51.6907234191895
-53.4073905944824
-57.5083160400391
-51.9768333435059
-36.0499877929688
-12.4935140609741
15.8314762115479
38.3388748168945
53.7888717651367
63.1351661682129
64.3749771118164
63.8027572631836
64.2796096801758
68.4759063720703
78.012939453125
85.8333053588867
95.5610809326172
108.817558288574
119.59440612793
126.556442260742
129.608291625977
130.180511474609
133.232360839844
141.148101806641
146.584213256836
147.919403076172
150.399032592773
155.262908935547
159.173095703125
159.268463134766
159.745315551758
167.374938964844
174.146240234375
174.527725219727
173.764755249023
171.857345581055
170.903656005859
172.238830566406
173.001800537109
171.189758300781
169.473098754883
174.813827514648
180.059204101563
181.394393920898
182.061981201172
176.721237182617
168.042541503906
161.557357788086
156.598098754883
152.592544555664
151.257354736328
156.02587890625
162.034210205078
167.947174072266
171.857345581055
167.565689086914
161.080505371094
154.404586791992
144.390701293945
134.758285522461
128.845321655273
132.56477355957
143.818466186523
150.399032592773
149.731430053711
145.43977355957
135.044403076172
121.501815795898
110.820335388184
101.760154724121
96.8962631225586
97.2777481079102
100.711082458496
107.673110961914
110.820335388184
109.00830078125
103.858299255371
92.0323791503906
80.8740463256836
70.7647933959961
61.2277565002441
56.8407211303711
55.4101676940918
58.7481307983398
63.9934997558594
66.3777542114258
61.6092376708984
51.6907234191895
40.0555419921875
21.9351787567139
8.0111083984375
6.77129411697388
9.25092315673828
14.2101802825928
17.8342533111572
15.6407356262207
5.62685012817383
-9.34629344940186
-22.4120292663574
-34.7148017883301
-40.913875579834
-39.864803314209
-40.0555419921875
-37.9573936462402
-33.9518394470215
-31.6629524230957
-32.3305435180664
-37.9573936462402
-45.2055397033691
-55.1240577697754
-64.5657196044922
-63.4212760925293
-61.6092376708984
-66.3777542114258
-62.1814613342285
-48.734245300293
-45.8731346130371
-53.5981292724609
-58.7481307983398
-65.4240493774414
-72.2907180786133
-73.7212753295898
-71.1462707519531
-64.9472045898438
-59.6064605712891
-61.99072265625
-67.8083114624023
-71.4323883056641
-75.3425674438477
-77.2499771118164
-76.3916397094727
-79.5388641357422
-84.8796005249023
-82.4953460693359
-74.198127746582
-67.7129440307617
-63.7073860168457
-64.4703521728516
-68.0944213867188
-69.3342361450195
-74.7703475952148
-83.8305282592773
-83.2583084106445
-75.4379425048828
-70.2879409790039
-69.8110885620117
-73.8166427612305
-75.9147872924805
-74.1027526855469
-73.3397903442383
-72.8629379272461
-73.6259002685547
-73.1490478515625
-66.6638641357422
-64.4703521728516
-65.3286819458008
-60.4647941589355
-55.7916488647461
-57.5083160400391
-63.2305335998535
-62.3722038269043
-59.8925743103027
-63.8981285095215
-59.7972030639648
-48.3527641296387
-44.1564674377441
-46.8268356323242
-49.2110939025879
-47.4944305419922
-43.2981338500977
-40.7231369018555
-40.1509132385254
-39.1018409729004
-38.0527648925781
-39.197208404541
-39.1018409729004
-36.2407302856445
-33.9518394470215
-35.2870254516602
-38.7203598022461
-38.6249885559082
-34.6194343566895
-29.7555465698242
-26.226842880249
-27.4666576385498
-29.5648059844971
-28.5157318115234
-27.5620288848877
-23.9379558563232
-18.0249938964844
-17.6435127258301
-16.8805503845215
-12.0166625976563
-10.2999963760376
-11.1583299636841
-14.0194396972656
-18.787956237793
-23.2703628540039
-25.5592517852783
-23.7472152709961
-18.3111057281494
-11.1583299636841
-8.58333015441895
-10.1092557907104
-7.0574049949646
-5.24536848068237
-9.06018257141113
-9.63240432739258
-6.6759238243103
-6.38981294631958
-3.24259161949158
3.62407302856445
4.67314672470093
2.67036962509155
3.43333220481873
1.81203651428223
-3.71944332122803
-5.91296100616455
-3.8148136138916
-1.9074068069458
2.00277709960938
9.537034034729
14.1148099899292
11.9212923049927
9.44166374206543
5.05462789535522
-2.09814739227295
-0.9537034034729
4.95925760269165
8.10647869110107
12.1120328903198
13.6379585266113
16.7851791381836
22.125919342041
19.2648086547852
14.5916624069214
15.4499950408936
12.3981437683105
6.86666440963745
7.24814605712891
13.1611070632935
17.9296245574951
17.9296245574951
20.3138828277588
23.1749935150146
21.839807510376
19.5509204864502
15.5453653335571
14.0194396972656
15.35462474823
12.8749961853027
10.0138854980469
13.0657367706299
18.5972156524658
20.409252166748
20.0277709960938
20.9814739227295
18.787956237793
14.5916624069214
13.7333288192749
19.8370304107666
33.3796195983887
42.2490615844727
41.1046180725098
40.5323944091797
42.4398002624512
43.2027626037598
46.0638732910156
52.9305381774902
60.274055480957
65.6147918701172
63.9934997558594
62.2768325805664
72.3860855102539
84.3073806762695
88.5990447998047
84.5934906005859
72.9583129882813
59.5110931396484
46.7314682006836
36.6222114562988
28.8972129821777
21.1722145080566
19.4555492401123
25.5592517852783
22.125919342041
5.81759071350098
-8.67870044708252
-19.2648086547852
-31.6629524230957
-44.8240585327148
-51.7860946655273
-51.6907234191895
-53.8842430114746
-62.6583137512207
-72.1953506469727
-80.9694213867188
-86.4055252075195
-82.3999710083008
-74.5796051025391
-71.9092330932617
-71.4323883056641
-67.4268264770508
-61.0370178222656
-57.8897972106934
-57.3175735473633
-53.6935005187988
-47.3036880493164
-42.3444290161133
-38.7203598022461
-33.761100769043
-29.6601753234863
-29.278694152832
-31.6629524230957
-34.4286918640137
-52.9305381774902
-108.245338439941
-186.830490112305
-253.875839233398
-276.764739990234
-269.993438720703
-286.015655517578
-293.073059082031
-230.319366455078
-108.817558288574
86.8823776245117
345.526733398438
581.759094238281
801.11083984375
1053.27001953125
1307.33666992188
1541.47082519531
1731.5439453125
1794.01147460938
1603.74768066406
1179.44494628906
790.90625
555.913696289063
360.404510498047
164.323089599609
-44.6333198547363
-294.408233642578
-524.536865234375
-663.300720214844
-711.27197265625
-691.625732421875
-650.044250488281
-625.820190429688
-625.534057617188
-656.815551757813
-704.500671386719
-743.888671875
-769.734008789063
-765.537719726563
-722.525695800781
-654.908142089844
-577.181274414063
-509.945220947266
-470.938751220703
-460.543365478516
-472.560028076172
-494.018371582031
-504.699829101563
-493.923004150391
-461.973937988281
-409.043395996094
-347.148040771484
-292.023986816406
-253.398986816406
-235.660110473633
-236.709182739258
-248.821212768555
-255.115661621094
-244.529556274414
-219.256408691406
-182.157348632813
-140.957366943359
-103.76293182373
-72.6721954345703
-53.121280670166
-50.5462799072266
-55.5055389404297
-57.4129447937012
-54.2657241821289
-40.2462844848633
-20.1231422424316
2.67036962509155
31.1861019134521
52.3583183288574
59.7972030639648
64.4703521728516
71.4323883056641
72.4814605712891
69.8110885620117
76.1055297851563
85.4518280029297
92.5092315673828
105.479598999023
123.695327758789
135.902740478516
139.240692138672
143.055511474609
144.676803588867
144.390701293945
149.159210205078
154.499954223633
157.361053466797
160.126800537109
162.797164916992
168.614761352539
174.432357788086
177.102722167969
180.249938964844
181.871231079102
181.299011230469
183.111053466797
184.541610717773
184.446243286133
183.969390869141
179.48698425293
177.29345703125
183.015686035156
187.307342529297
189.977722167969
195.032348632813
197.416610717773
195.318450927734
187.116607666016
173.764755249023
166.802719116211
165.944396972656
165.372161865234
174.146240234375
187.116607666016
192.361968994141
194.174011230469
191.789749145508
178.533279418945
159.268463134766
147.53791809082
146.584213256836
148.873107910156
154.404586791992
163.750869750977
166.421249389648
159.840682983398
154.118469238281
146.488845825195
129.417556762695
109.389778137207
99.0897827148438
99.6620025634766
104.049041748047
113.299964904785
124.172180175781
125.316627502441
119.975891113281
111.201812744141
96.2286758422852
82.3999710083008
73.7212753295898
70.0018310546875
73.2444229125977
79.1573791503906
79.729606628418
78.394416809082
77.0592346191406
68.0944213867188
52.8351669311523
34.5240631103516
17.5481433868408
13.3518476486206
20.6953639984131
31.3768424987793
39.0064697265625
39.197208404541
34.6194343566895
25.177770614624
10.5861072540283
-4.38703584671021
-14.9731435775757
-19.6462898254395
-20.0277709960938
-18.5018463134766
-13.6379585266113
-12.4935140609741
-18.4064750671387
-26.8944358825684
-35.4777679443359
-42.5351715087891
-51.0231323242188
-56.0777587890625
-55.6009063720703
-57.6036834716797
-55.219425201416
-47.7805404663086
-48.734245300293
-54.6472053527832
-57.5083160400391
-62.7536849975586
-69.8110885620117
-74.9610900878906
-76.6777496337891
-75.3425674438477
-73.4351654052734
-70.0018310546875
-64.5657196044922
-61.8953514099121
-66.0916442871094
-74.5796051025391
-82.3999710083008
-85.3564529418945
-85.4518280029297
-87.2638626098633
-84.6888580322266
-75.7240524291992
-68.7620162963867
-68.9527587890625
-76.2009048461914
-83.3536758422852
-87.5499725341797
-93.7490463256836
-93.5583038330078
-87.6453399658203
-87.7407150268555
-84.6888580322266
-78.394416809082
-78.6805267333984
-80.9694213867188
-83.925895690918
-85.2610855102539
-86.4055252075195
-90.4110794067383
-90.8879318237305
-86.5962677001953
-80.9694213867188
-75.3425674438477
-76.3916397094727
-79.1573791503906
-78.6805267333984
-80.0157165527344
-76.5823822021484
-73.9120101928711
-79.6342315673828
-79.5388641357422
-70.5740509033203
-65.4240493774414
-64.4703521728516
-61.5138702392578
-61.4184989929199
-62.1814613342285
-61.1323890686035
-61.0370178222656
-61.1323890686035
-61.99072265625
-61.1323890686035
-58.5573883056641
-59.1296119689941
-59.5110931396484
-58.0805358886719
-54.6472053527832
-50.7370223999023
-49.6879463195801
-45.7777633666992
-42.0583190917969
-43.2027626037598
-39.864803314209
-35.6685066223145
-36.9083213806152
-35.0962867736816
-30.8046188354492
-28.5157318115234
-26.8944358825684
-24.6055469512939
-22.7935104370117
-24.5101776123047
-29.0879535675049
-31.1861019134521
-28.6111011505127
-24.1286964416504
-19.5509204864502
-11.8259220123291
-4.57777643203735
-4.38703584671021
-5.24536848068237
-2.95648050308228
-4.95925760269165
-10.204626083374
-11.635181427002
-10.2999963760376
-9.63240432739258
-6.6759238243103
-3.147221326828
-4.00555419921875
-4.29166507720947
-3.62407302856445
-6.58055353164673
-7.24814605712891
-7.6296272277832
-10.1092557907104
-6.86666440963745
-0.572222054004669
2.09814739227295
5.91296100616455
8.96481227874756
6.38981294631958
3.8148136138916
2.00277709960938
0.286111027002335
2.09814739227295
6.1037015914917
7.34351634979248
9.25092315673828
16.1175880432129
19.1694374084473
18.1203651428223
16.4990692138672
12.4935140609741
8.58333015441895
7.91573810577393
11.635181427002
16.6898097991943
17.738883972168
18.5018463134766
21.6490669250488
22.4120292663574
18.8833274841309
12.4935140609741
8.3925895690918
10.1092557907104
10.0138854980469
9.63240432739258
16.022216796875
20.5999927520752
22.2212886810303
26.1314735412598
26.3222141265869
24.5101776123047
24.5101776123047
23.5564746856689
27.7527694702148
36.3360977172852
41.2953567504883
48.3527641296387
50.7370223999023
41.962947845459
38.2435073852539
38.9110984802246
35.2870254516602
39.7694320678711
49.6879463195801
55.6009063720703
61.2277565002441
66.9499816894531
75.1518249511719
87.9314498901367
98.899040222168
98.2314529418945
87.7407150268555
74.3888626098633
60.3694267272949
49.0203552246094
38.5296173095703
30.6138782501221
31.0907306671143
38.6249885559082
39.2925796508789
24.9870281219482
5.34073925018311
-11.5398111343384
-23.3657341003418
-37.3851737976074
-52.453685760498
-51.4999847412109
-46.2546157836914
-49.4018363952637
-55.7916488647461
-64.5657196044922
-71.6231231689453
-73.8166427612305
-69.7157211303711
-60.3694267272949
-56.4592399597168
-57.3175735473633
-52.6444282531738
-48.734245300293
-47.9712791442871
-44.4425773620605
-43.3935050964355
-41.1999855041504
-33.0935096740723
-24.1286964416504
-15.35462474823
-9.34629344940186
-12.1120328903198
-19.360179901123
-26.3222141265869
-50.7370223999023
-110.057373046875
-189.119384765625
-255.687881469727
-276.478607177734
-268.372131347656
-282.582305908203
-279.148986816406
-209.719375610352
-79.2527542114258
135.044403076172
395.500793457031
629.253479003906
860.335815429688
1117.26354980469
1370.75793457031
1601.26794433594
1777.89392089844
1816.80493164063
1597.45324707031
1164.66259765625
781.559936523438
539.223876953125
336.561920166016
137.333282470703
-80.4925689697266
-336.180450439453
-562.971130371094
-693.533081054688
-734.542358398438
-714.514587402344
-676.557189941406
-653.096069335938
-656.529418945313
-692.1025390625
-738.547912597656
-773.8349609375
-789.857177734375
-777.840515136719
-730.155334472656
-657.006286621094
-580.99609375
-517.765563964844
-479.522064208984
-472.750762939453
-486.579467773438
-504.795196533203
-514.713745117188
-503.936889648438
-465.502624511719
-406.373016357422
-343.714691162109
-292.023986816406
-255.115661621094
-236.423065185547
-238.044372558594
-251.110107421875
-258.930480957031
-249.774917602539
-226.59992980957
-195.604568481445
-157.265686035156
-117.973114013672
-84.3073806762695
-63.8027572631836
-58.4620170593262
-58.3666496276855
-61.323127746582
-60.9416465759277
-45.7777633666992
-22.9842510223389
2.67036962509155
28.7064723968506
48.6388740539551
65.137939453125
73.5305328369141
72.1953506469727
71.9092330932617
76.8684921264648
83.2583084106445
90.0296020507813
103.953666687012
119.975891113281
129.417556762695
137.714767456055
145.535140991211
145.058288574219
139.812911987305
138.76383972168
144.390701293945
149.54069519043
152.020324707031
159.745315551758
167.947174072266
170.140686035156
169.949951171875
172.811050415039
181.58512878418
190.740676879883
194.078643798828
193.411056518555
191.408279418945
185.686050415039
182.634201049805
187.498092651367
190.645309448242
192.075866699219
196.939758300781
199.991607666016
197.702713012695
194.746231079102
192.171234130859
183.301788330078
171.952728271484
170.140686035156
172.429580688477
173.287902832031
179.773086547852
186.162902832031
188.547164916992
189.024017333984
182.443466186523
172.906433105469
161.175872802734
145.344390869141
138.76383972168
143.15087890625
150.494400024414
158.791610717773
162.129577636719
157.265686035156
151.066619873047
144.104583740234
132.374038696289
119.975891113281
113.395332336426
112.823112487793
114.444404602051
120.643478393555
126.842552185059
126.174957275391
123.313850402832
110.915702819824
91.5555267333984
79.6342315673828
68.6666412353516
61.2277565002441
67.903678894043
77.6314544677734
83.4490509033203
89.5527496337891
89.4573822021484
73.0536804199219
53.5027618408203
43.9657249450684
37.2898025512695
32.04443359375
32.7120246887207
34.7148017883301
36.6222114562988
38.7203598022461
35.7638778686523
25.2731399536133
10.4907369613647
-2.38425850868225
-11.2537002563477
-17.5481433868408
-16.6898097991943
-12.588885307312
-12.2074031829834
-12.0166625976563
-14.5916624069214
-22.3166599273682
-31.9490642547607
-44.1564674377441
-54.5518341064453
-58.652759552002
-59.4157218933105
-60.0833129882813
-57.6990547180176
-49.4972076416016
-44.4425773620605
-50.9277610778809
-60.8462753295898
-67.2360916137695
-75.5333099365234
-83.6397857666016
-84.9749755859375
-81.2555313110352
-74.0073852539063
-65.9009017944336
-61.6092376708984
-64.6610870361328
-74.2934951782227
-82.7814559936523
-88.4083023071289
-91.269416809082
-90.6018218994141
-89.6481170654297
-85.3564529418945
-80.111083984375
-81.16015625
-82.9721984863281
-83.8305282592773
-88.7897872924805
-99.0897827148438
-106.624038696289
-102.904594421387
-96.2286758422852
-93.7490463256836
-91.5555267333984
-89.8388595581055
-87.9314498901367
-87.6453399658203
-88.4083023071289
-90.5064544677734
-94.6073760986328
-90.7925643920898
-84.8796005249023
-87.6453399658203
-89.0758972167969
-84.3073806762695
-83.5444183349609
-86.5009002685547
-84.5934906005859
-81.9231185913086
-82.4953460693359
-79.8249740600586
-78.1083068847656
-80.4925689697266
-76.0101623535156
-70.2879409790039
-70.5740509033203
-69.7157211303711
-67.3314590454102
-66.3777542114258
-64.5657196044922
-60.1786842346191
-57.2222023010254
-57.4129447937012
-55.6009063720703
-53.5981292724609
-56.0777587890625
-53.0259094238281
-41.6768379211426
-37.2898025512695
-37.4805450439453
-32.2351760864258
-30.5185089111328
-32.8073959350586
-33.0935096740723
-33.761100769043
-33.4749908447266
-31.3768424987793
-28.2296199798584
-26.5129547119141
-25.2731399536133
-20.409252166748
-17.8342533111572
-19.2648086547852
-21.839807510376
-26.5129547119141
-23.7472152709961
-17.738883972168
-18.0249938964844
-16.9759197235107
-13.1611070632935
-8.58333015441895
0.0953703373670578
1.62129580974579
-5.62685012817383
-7.6296272277832
-7.82036781311035
-9.06018257141113
-7.82036781311035
-4.29166507720947
1.33518481254578
5.24536848068237
7.24814605712891
7.82036781311035
4.57777643203735
2.5749990940094
0.9537034034729
-4.67314672470093
-8.0111083984375
-2.47962880134583
3.8148136138916
3.05185079574585
5.1499981880188
9.15555286407471
2.67036962509155
-2.47962880134583
0.381481349468231
1.81203651428223
0.286111027002335
1.71666610240936
7.53425693511963
11.7305517196655
15.4499950408936
20.5046234130859
20.0277709960938
12.1120328903198
10.3953666687012
13.256477355957
8.96481227874756
7.53425693511963
8.96481227874756
7.53425693511963
10.9675893783569
14.7824029922485
14.7824029922485
14.0194396972656
9.06018257141113
5.43610954284668
1.14444410800934
3.24259161949158
12.588885307312
17.5481433868408
16.5944385528564
21.2675857543945
27.2759170532227
25.0823993682861
18.8833274841309
14.4009208679199
14.4962921142578
16.5944385528564
15.4499950408936
16.2129573822021
19.6462898254395
22.6981410980225
26.0361022949219
26.7990646362305
27.7527694702148
30.8999900817871
34.1425819396973
39.5786895751953
47.4944305419922
54.0749816894531
57.6036834716797
59.0342407226563
53.2166481018066
44.8240585327148
43.5842437744141
47.3990592956543
53.5027618408203
62.0860900878906
70.1925735473633
76.2009048461914
83.7351608276367
92.986083984375
99.5666351318359
97.6592254638672
89.4573822021484
80.3971939086914
71.1462707519531
58.2712783813477
43.8703575134277
37.1944313049316
34.5240631103516
31.6629524230957
26.3222141265869
9.82314491271973
-13.4472179412842
-28.3249912261963
-42.2490615844727
-62.6583137512207
-72.8629379272461
-75.9147872924805
-80.111083984375
-86.6916351318359
-92.4138565063477
-89.6481170654297
-83.7351608276367
-78.012939453125
-75.4379425048828
-75.8194198608398
-74.4842376708984
-71.4323883056641
-72.1953506469727
-72.1953506469727
-61.5138702392578
-51.7860946655273
-48.9249839782715
-44.251838684082
-37.4805450439453
-32.04443359375
-33.3796195983887
-34.9055442810059
-34.9055442810059
-38.148136138916
-40.3416519165039
-64.6610870361328
-127.796257019043
-206.762893676758
-267.704528808594
-280.484161376953
-277.432312011719
-300.130462646484
-290.688781738281
-211.245300292969
-68.9527587890625
155.358276367188
414.765594482422
645.466430664063
881.031188964844
1142.44128417969
1387.06616210938
1607.18090820313
1781.23181152344
1792.58093261719
1524.49487304688
1095.32836914063
756.000671386719
529.400756835938
321.493408203125
119.308296203613
-103.76293182373
-359.355438232422
-571.745178222656
-691.530334472656
-728.057189941406
-706.694213867188
-670.930358886719
-648.804443359375
-654.0498046875
-685.331237792969
-724.43310546875
-760.769226074219
-774.597900390625
-751.804382324219
-702.116455078125
-631.447021484375
-555.436828613281
-499.263732910156
-467.696136474609
-461.4970703125
-473.704467773438
-485.530395507813
-489.34521484375
-478.663726806641
-442.423004150391
-387.585052490234
-330.076751708984
-280.770294189453
-246.341583251953
-231.654556274414
-233.943450927734
-243.480484008789
-247.486038208008
-237.472152709961
-211.340667724609
-173.09716796875
-132.278656005859
-96.6101531982422
-70.8601608276367
-54.3610954284668
-46.3499870300293
-49.1157264709473
-52.3583183288574
-45.2055397033691
-29.3740653991699
-8.48795986175537
15.35462474823
41.2953567504883
59.4157218933105
63.5166473388672
66.6638641357422
74.0073852539063
75.5333099365234
77.345344543457
88.7897872924805
101.855522155762
111.678665161133
121.406440734863
128.845321655273
134.472183227539
142.006439208984
149.159210205078
152.020324707031
153.546249389648
158.028656005859
161.557357788086
164.704574584961
167.374938964844
170.617538452148
174.623092651367
176.625869750977
178.819381713867
182.252716064453
185.113830566406
188.451797485352
192.934204101563
192.743453979492
186.830490112305
181.489761352539
179.010131835938
178.628646850586
181.68049621582
191.026794433594
196.55827331543
195.032348632813
196.939758300781
191.980499267578
179.868453979492
172.811050415039
168.328643798828
166.230499267578
167.374938964844
172.524948120117
180.249938964844
185.304565429688
185.78141784668
179.105499267578
166.516616821289
153.73698425293
145.821243286133
142.769393920898
143.723098754883
148.396255493164
155.930511474609
164.60920715332
163.178649902344
151.829574584961
142.674026489258
130.752731323242
115.207366943359
107.291633605957
107.577743530273
113.395332336426
122.741630554199
128.845321655273
127.128662109375
116.828666687012
101.760154724121
88.4083023071289
79.06201171875
72.7675704956055
70.1925735473633
70.7647933959961
73.3397903442383
81.0647888183594
82.1138610839844
72.3860855102539
64.4703521728516
51.3092422485352
37.0036926269531
29.5648059844971
22.5074005126953
22.7935104370117
27.3712882995605
27.3712882995605
28.4203605651855
28.4203605651855
18.5018463134766
-1.62129580974579
-19.6462898254395
-29.3740653991699
-35.382396697998
-34.810173034668
-28.5157318115234
-20.9814739227295
-15.8314762115479
-18.1203651428223
-26.9898052215576
-39.5786895751953
-51.8814659118652
-59.9879455566406
-63.9934997558594
-64.6610870361328
-62.2768325805664
-56.1731300354004
-51.3092422485352
-53.5981292724609
-59.6064605712891
-68.1897964477539
-77.1546020507813
-81.5416412353516
-82.1138610839844
-79.729606628418
-75.6286773681641
-70.0971984863281
-67.8083114624023
-71.0509033203125
-75.0564575195313
-79.4434967041016
-85.3564529418945
-90.4110794067383
-91.4601593017578
-93.1768188476563
-91.4601593017578
-81.7323837280273
-79.06201171875
-84.6888580322266
-87.2638626098633
-88.7897872924805
-94.1305236816406
-101.855522155762
-102.61848449707
-96.7055282592773
-95.3703384399414
-98.0407104492188
-98.3268203735352
-95.5610809326172
-92.2231216430664
-91.3647842407227
-93.6536712646484
-95.8471908569336
-95.6564483642578
-95.4657135009766
-94.416633605957
-90.1249694824219
-88.2175674438477
-89.6481170654297
-87.1684875488281
-81.9231185913086
-82.3999710083008
-85.5471954345703
-83.3536758422852
-83.1629333496094
-86.6916351318359
-85.0703430175781
-80.3018264770508
-75.4379425048828
-70.6694183349609
-68.9527587890625
-69.6203460693359
-68.1897964477539
-66.5684967041016
-67.4268264770508
-68.7620162963867
-65.9962768554688
-62.9444236755371
-60.7509078979492
-53.5981292724609
-50.4509086608887
-52.8351669311523
-47.017578125
-40.6277656555176
-39.7694320678711
-37.0036926269531
-36.3360977172852
-38.0527648925781
-37.6712837219238
-36.9083213806152
-36.7175827026367
-35.7638778686523
-30.70924949646
-26.7990646362305
-26.226842880249
-22.3166599273682
-20.5999927520752
-25.177770614624
-26.5129547119141
-22.4120292663574
-18.9786968231201
-16.2129573822021
-11.8259220123291
-7.15277528762817
-4.1962947845459
-4.29166507720947
-4.00555419921875
-3.91018390655518
-8.3925895690918
-13.1611070632935
-13.5425882339478
-11.3490705490112
-6.1037015914917
-0.667592406272888
2.8611102104187
8.0111083984375
9.63240432739258
6.96203470230103
1.81203651428223
-2.47962880134583
-0.572222054004669
0.858333051204681
0.47685170173645
4.86388731002808
11.1583299636841
12.4935140609741
11.4444408416748
14.0194396972656
14.7824029922485
9.06018257141113
9.15555286407471
13.256477355957
13.256477355957
18.0249938964844
26.7036952972412
31.3768424987793
31.2814712524414
26.5129547119141
21.1722145080566
19.7416610717773
17.738883972168
11.7305517196655
12.588885307312
22.6981410980225
26.7036952972412
26.3222141265869
28.0388793945313
26.7036952972412
23.2703628540039
20.9814739227295
16.30832862854
12.8749961853027
16.6898097991943
22.6027698516846
24.9870281219482
26.6083240509033
28.8972129821777
27.1805477142334
25.3685111999512
25.5592517852783
22.125919342041
19.074068069458
18.0249938964844
16.9759197235107
21.0768451690674
25.8453617095947
26.3222141265869
27.657398223877
28.5157318115234
25.9407329559326
21.9351787567139
18.787956237793
19.2648086547852
22.6981410980225
23.7472152709961
26.7990646362305
34.9055442810059
35.0962867736816
30.70924949646
29.1833248138428
24.2240657806396
19.2648086547852
18.787956237793
18.5018463134766
20.8861045837402
26.3222141265869
32.2351760864258
39.0064697265625
43.2981338500977
45.2055397033691
49.0203552246094
50.832389831543
50.5462799072266
51.9768333435059
51.3092422485352
46.4453544616699
43.1073951721191
50.1647987365723
55.887020111084
58.0805358886719
71.7184982299805
81.7323837280273
82.0184936523438
84.8796005249023
86.2147903442383
85.3564529418945
85.8333053588867
80.8740463256836
71.2416458129883
64.9472045898438
55.219425201416
42.3444290161133
37.2898025512695
35.6685066223145
29.9462871551514
18.5018463134766
4.38703584671021
-6.86666440963745
-16.30832862854
-34.1425819396973
-57.6036834716797
-67.8083114624023
-72.8629379272461
-84.7842330932617
-88.5036773681641
-85.2610855102539
-83.4490509033203
-78.1083068847656
-75.6286773681641
-74.9610900878906
-72.7675704956055
-75.247200012207
-75.7240524291992
-73.9120101928711
-72.0999755859375
-64.9472045898438
-55.6009063720703
-49.9740562438965
-46.9222068786621
-39.4833221435547
-32.9027671813965
-35.5731353759766
-38.8157272338867
-41.3907279968262
-45.0148010253906
-47.2083168029785
-66.3777542114258
-117.686996459961
-193.697158813477
-267.418426513672
-290.7841796875
-282.773071289063
-306.424896240234
-311.288787841797
-242.622146606445
-118.640701293945
84.4027481079102
341.235076904297
575.369262695313
804.925659179688
1064.23767089844
1319.92553710938
1552.91528320313
1746.70776367188
1801.64111328125
1586.86706542969
1168.66809082031
804.639587402344
567.072021484375
355.540618896484
149.254577636719
-69.8110885620117
-326.357299804688
-548.665588378906
-678.750732421875
-732.730346679688
-721.953491210938
-681.134948730469
-653.191467285156
-650.902587890625
-679.2275390625
-723.097900390625
-761.818298339844
-782.418273925781
-772.118286132813
-726.435852050781
-656.624816894531
-584.334045410156
-524.918334960938
-484.958190917969
-471.797058105469
-483.718353271484
-500.789642333984
-507.751678466797
-496.688720703125
-457.586883544922
-402.272094726563
-346.385070800781
-297.936950683594
-264.271209716797
-246.436950683594
-245.292510986328
-254.924911499023
-257.595275878906
-246.723068237305
-220.973083496094
-182.348083496094
-142.483291625977
-109.580520629883
-83.7351608276367
-66.5684967041016
-59.2249794006348
-57.3175735473633
-56.4592399597168
-52.9305381774902
-41.4860992431641
-19.074068069458
9.44166374206543
32.4259147644043
49.783317565918
62.8490524291992
66.854606628418
68.2851638793945
69.9064559936523
73.3397903442383
84.8796005249023
98.5175628662109
110.534225463867
124.93514251709
132.46940612793
133.423110961914
140.575881958008
148.205505371094
149.922180175781
154.786056518555
162.51106262207
164.036987304688
166.516616821289
171.952728271484
171.094390869141
171.094390869141
175.1953125
175.1953125
178.247161865234
185.209197998047
187.688827514648
190.16845703125
191.312896728516
187.021240234375
182.061981201172
176.339752197266
173.574020385742
180.631423950195
192.171234130859
201.136047363281
203.04345703125
199.514755249023
196.844375610352
188.451797485352
173.001800537109
165.086059570313
162.51106262207
161.938842773438
168.996246337891
174.146240234375
177.961059570313
184.541610717773
181.394393920898
167.470321655273
154.213836669922
142.006439208984
134.949035644531
141.052734375
147.251800537109
152.783279418945
161.461990356445
161.271240234375
152.974029541016
142.578659057617
127.605514526367
111.011077880859
102.141632080078
102.046264648438
104.430519104004
110.343482971191
119.880516052246
125.125885009766
119.499038696289
105.86107635498
90.4110794067383
76.4870147705078
70.1925735473633
67.9990539550781
67.6175689697266
75.3425674438477
81.827751159668
82.876823425293
77.5360870361328
61.7046089172363
45.0148010253906
32.7120246887207
23.3657341003418
17.2620315551758
13.9240694046021
18.2157344818115
29.5648059844971
34.0472106933594
28.4203605651855
20.2185115814209
9.537034034729
-2.76573991775513
-12.3981437683105
-19.8370304107666
-22.7935104370117
-19.2648086547852
-14.2101802825928
-11.4444408416748
-11.3490705490112
-16.6898097991943
-29.7555465698242
-42.5351715087891
-51.2138710021973
-60.3694267272949
-64.9472045898438
-60.4647941589355
-54.3610954284668
