Value(bpm)
72.112676056338
72.1166395279296
72.1205619623471
72.1244018688302
72.1281177393752
72.1316680499215
72.1350112620159
72.1381058249562
72.1409101784137
72.1433827555349
72.1454819865226
72.147166302696
72.1483941410304
72.1491239491742
72.1493141909449
72.1489233523012
72.14790994779
72.1462325274686
72.143849684298
72.1407200620063
72.1368023634192
72.1320553592552
72.1264378973808
72.1199089125238
72.1124274482027
72.1043752782404
72.0976729373808
72.094589931702
72.0973957678061
72.1083629468611
72.1297713940556
72.1639143393076
72.2131056788058
72.2796888647521
72.3660473927994
72.4746169835594
72.6078995867936
72.7684793753191
72.9583532178482
73.1751706671699
73.4148069976609
73.673064689546
73.9456525102946
74.2281647961354
74.5160655313071
74.8046775734938
75.0891774475005
75.3645961774612
75.6258266464453
75.8676379564047
76.0847084522517
76.2735535618271
76.4347444048563
76.5694475776025
76.6789070329677
76.7644353125584
76.8274048578735
76.8692395058525
76.891406263888
76.8954074485034
76.8827732605791
76.8550548586036
76.8138179802208
76.7606192579028
76.6968462362863
76.6237902822476
76.5427395373541
76.4549771385215
76.361778803647
76.2644108541523
76.1641286697099
76.0621755679963
75.9597821005038
75.8581657542403
75.7585310485064
75.6620700089606
75.5697155411091
75.4814930546295
75.3972246096016
75.3167349411627
75.2398512827059
75.1664031989132
75.0962224282199
75.0291427343385
74.9649997665042
74.903630928129
74.8448752535809
74.7885732928289
74.7345670713513
74.6827168100592
74.6329228291215
74.5850917767562
74.5391310676983
74.4949488358692
74.4524538895922
74.4115556692915
74.3721642076191
74.3341900919581
74.297544429253
74.2621388131242
74.2278852932254
74.1946952189152
74.1623439886576
74.1303432495856
74.0981759809948
74.0653269598464
74.0312828177406
73.9955321690197
73.9575658092722
73.9168769834155
73.8729617224006
73.8253192474114
73.7734524402211
73.7168683781242
73.655088642594
73.5892778236042
73.5240551057281
73.4644475626417
73.4154513498099
73.3820428129892
73.3691963305585
73.3819089050972
73.4252316409007
73.5043084055888
73.6244221794393
73.7910498522373
74.0099265446736
74.2870699317571
74.6242583116285
75.0151924901329
75.4526371788437
75.9291587804596
76.4370307184242
76.9681515605245
77.5139772243488
78.065469261657
78.6130618339009
79.1466504781005
79.6556060719246
80.128857881387
80.558626837108
80.9436303691253
81.2834223690069
81.5777285933822
81.8264468622939
82.0296456826447
82.18756134095
82.3005935345857
82.3692996335218
82.3943876846294
82.3767082875962
82.3174706078624
82.221054136359
82.0940979149156
81.9432881081594
81.7752657671247
81.5965942709817
81.4137376294321
81.2330493433647
81.0607714141084
80.9030430547703
80.7659186855068
80.6553948829513
80.5767569015398
80.5286551141401
80.5060845506087
80.5040654903522
80.5176563543777
80.5419314957765
80.5719650935967
80.6028210798731
80.6295490969897
80.6471865188688
80.6507665747066
80.6353325877919
80.596436543202
80.5330745509345
80.4457567109809
80.3350384951575
80.2015118342922
80.0458020077131
79.8685644774833
79.6704816923635
79.4522598854877
79.214625888517
78.9583239836172
78.684112813023
78.3928929293276
78.0875564285416
77.7724741205083
77.4519344378171
77.1300943141584
76.8109769154177
76.4984737252519
76.1963506245828
75.9082576275962
75.6377419751657
75.3882643376992
75.1632179413373
74.9659505029303
74.7994659030858
74.664251816813
74.55967111147
74.4851599183718
74.4402306702101
74.4244685459776
74.4375284020527
74.4791321516653
74.5490665606789
74.6471814327135
74.7733881612235
74.9276586303103
75.1100244498778
75.3196012022593
75.5516135234203
75.8002193284904
76.059443190173
76.3231533396365
76.5850480170787
76.8386518419743
77.077322941153
77.2942715694901
77.4825908734137
77.6353002726603
77.7454016640983
77.8065516151431
77.8198267682604
77.7913159595385
77.727325240565
77.6342289908561
77.5184174331819
77.3862545046091
77.2440462898076
77.0980199706224
76.9543130666391
76.8189726349697
76.6979640607317
76.5971857590988
76.5200833951679
76.4634478532307
76.4229846219481
76.3944416593328
76.3735937686582
76.3562317450289
76.3381562061361
76.3151760603909
76.2831115835138
76.2378020711543
76.1751180105154
76.0909776687325
75.9815095433624
75.8461788837319
75.6877444833247
75.5091077566718
75.3131547556112
75.102742466267
74.8806873771425
74.6497562901832
74.4126593147725
74.1720449601886
73.9304972247936
73.6905345696445
73.4546106597493
73.2251051301519
73.0039063073249
72.7923093779942
72.5915481766085
72.402835530552
72.2273674385074
72.0663276023075
71.9208923115092
71.7922356865988
71.6815352938671
71.589978152663
71.5187671640314
71.4691279987971
71.4423164931409
71.4391239230071
71.4581773263207
71.4975368456129
71.5552909319521
71.6295459064821
71.7184165882115
71.8200179499041
71.9324577670791
72.0538302427039
72.1822106054838
72.3156506928708
72.4521755410476
72.5897810131823
72.726704396909
72.8635316667608
73.0020854432143
73.1442264341271
73.291844889807
73.4468630760479
73.6112387769218
73.7869698783056
73.9761000925941
74.1807258973266
74.4030047758794
74.6451648673631
74.9095161559658
75.1976344129717
75.5071426349616
75.8343862221518
76.1755998374661
76.5268899313148
76.884220528263
77.2434028571076
77.6000892228559
77.9497715640794
78.2877851648528
78.6093179929968
78.9094261113335
79.1836375050369
79.4320112471978
79.6568537828276
79.8605904180836
80.0457389674788
80.2148972361388
80.3707318489817
80.5159685964681
80.6533844398194
80.7858012951105
80.9160816962331
81.0471264220862
81.1809906830594
81.315478324688
81.4470705811977
81.5722032880003
81.6872710549139
81.7886343807009
81.8726300438651
81.9355848114528
81.9738324626702
81.9837340666367
81.9617013841601
81.9042365428155
81.8101992276846
81.6833090141644
81.5279296551668
81.3484276564305
81.1491449096025
80.9343760635495
80.7083506342303
80.475219764382
80.2390474770311
80.0038062208378
79.7733764792451
79.5515466089926
79.340587289789
79.1391179443645
78.9452329237997
78.7570670684032
78.5727923900018
78.3906156583352
78.2087768458536
78.0255483894666
77.8392352303518
77.648175593959
77.4507424719661
77.2453457663036
77.0306381090802
76.8072633963119
76.5769480616549
76.3413962538207
76.1022752204894
75.8612137049219
75.6198010802773
75.3795871791889
75.1420827757352
74.9087606777265
74.681057389082
74.4603753048593
74.2480854050974
74.0456315502343
73.855220908518
73.6793944991888
73.5206597993724
73.3814998276585
73.2643860613653
73.1717929736377
73.1062142482638
73.0701807746241
73.0662805756006
73.0971808787883
73.1656526076692
73.2745976467387
73.4267079582943
73.6208353832385
73.8534742698993
74.121112334559
74.4202277875515
74.7472549584312
75.0985529768932
75.4703774700623
75.8588553623041
76.2599629799738
76.6695077705913
77.0831140426987
77.4962251043822
77.9051748980548
78.3081057824412
78.7032960169086
79.0889656457387
79.4632795362298
79.8243513344639
80.1702483905693
80.4989976973319
80.8085928757767
81.0970022287565
81.362177868613
81.6020948907137
81.8154043124665
82.0014602154365
82.1596942775211
82.2895901283905
82.3906863102345
82.4625790019712
82.5049244795266
82.5174412867681
82.4999120940608
82.452185224172
82.3741758283405
82.266139653781
82.1301473141792
81.9689944151097
81.7854871308837
81.5824248208552
81.3625863144011
81.1287181587188
80.8835248257743
80.6296608446959
80.3697248017155
80.106255131307
79.8417276091784
79.5783930082393
79.3173044415662
79.0589977543082
78.8039927345204
78.5527956402847
78.3058997874096
78.0637861906547
77.8269242546314
77.5957725109344
77.3707793984741
77.1523840844052
76.9410173234804
76.7371042640943
76.5411966157209
76.3540550462419
76.1764492874318
76.0091397193765
75.8528795344212
75.7084170346499
75.5764980646841
75.457868583604
75.3532773819297
75.2634789518692
75.1892365214638
75.1313252658802
75.0905037675478
75.0669128729612
75.060129713036
75.0697327190287
75.0953217351076
75.1365162780136
75.1929539002118
75.2642886458959
75.3501895902077
75.4503394529192
75.5644332786203
75.6921771761651
75.8332871107743
75.9874141970704
76.1537844649588
76.3314639298321
76.5195095085168
76.7169663261939
76.9228650192517
77.136219251155
77.3560234477052
77.5812507607278
77.810851271707
78.0437504491734
78.2788478757278
78.5148683066062
78.7484847183942
78.9748265601118
79.1888827171942
79.3855448477825
79.5596256497122
79.7058840596932
79.8190575031364
79.8939011565979
79.9252339892876
79.9079911189903
79.8372817575777
79.7089384814863
79.5265186744818
79.2995331664072
79.0376130525676
78.7502600168173
78.4467768674403
78.1362213113721
77.8273818373836
77.5287742510723
77.2486572928165
76.9950658476289
76.7758604965318
76.5987919467171
76.4686776466125
76.3808075330941
76.3286724280178
76.3059106796225
76.3062540537527
76.3234846474646
76.3514022734703
76.3838020270846
76.4144619364381
76.4371407156507
76.4455856905779
76.4335509472942
76.3950509727127
76.3293448372655
76.2409149323928
76.1344731083138
76.0147102924812
75.8862775023852
75.7537726844827
75.6217332646434
75.4946342436592
75.3768916487489
75.2728711569508
75.1869017371291
75.1232942124965
75.0860577651928
75.076266611504
75.0933867824625
75.1369236096579
75.2064365527836
75.3015359611001
75.4218801433527
75.5671727147107
75.7371601927762
75.9316298177344
76.1504075743396
76.3933563957163
76.6603704134072
76.9503401136829
77.2597378518323
77.5846011252433
77.9208455152633
78.2642487297063
78.6104387872897
78.9548867380637
79.2929043654203
79.6196473458915
79.930124348559
80.219212532027
80.4816948795231
80.7141052706889
80.9165428896607
81.0895968158058
81.2339375724005
81.3503117526739
81.4395363516502
81.5024928759437
81.5401213025811
81.5534139557359
81.5434093671042
81.511186181664
81.4578631994968
81.3847486448594
81.293346349567
81.1851820299772
81.0617880833185
80.9246977303861
80.7754397317545
80.6155336906496
80.4464859478445
80.2697860670801
80.0869039036205
79.8992872436309
79.7083476397356
79.5150846730455
79.3200263475128
79.1236652667225
78.9264848914621
78.7289594674959
78.5315540127038
78.3347243607134
78.1389172581865
77.9445705129854
77.7521131905299
77.5619658557641
77.3745408712817
77.190707599428
77.0130047183319
76.8443076826218
76.6874455810352
76.5452091690327
76.4203608679502
76.3156466934865
76.2338101101194
76.1776078474646
76.1498277600109
76.1533088637955
76.1909637435488
76.2657091457085
76.3776059811167
76.5232995978941
76.6992740193568
76.90202174708
77.128016488123
77.3736889994675
77.6354060013965
77.9094522009184
78.1920155448992
78.4791758903653
78.7668973357306
79.0510330474097
79.3280968089388
79.5959088390856
79.852385121304
80.0954006224935
80.3227953346466
80.5323815448349
80.721952354705
80.8892914531206
81.032184125079
81.1484294567042
81.2358536702722
81.2923916902392
81.317834771549
81.3139971530438
81.2828561590321
81.2264407883447
81.1468187073883
81.0460840919475
80.9263464175483
80.789720274237
80.6383162591098
80.4742329792854
80.2995501795609
80.1163087869967
79.9261955545687
79.7305474390929
79.5306653658071
79.3278270739314
79.1232861260125
78.9182713332198
78.7139865768943
78.5116110063431
78.3122995930859
78.1171840224327
77.9273739043655
77.7439568241949
77.5674173146537
77.3967643195003
77.2307987075037
77.0683430009581
76.9082400350332
76.7493519837907
76.5905597367977
76.4307626113954
76.2688783863676
76.1038436430273
75.9346143996383
75.760167024644
75.579553670057
75.3932932233126
75.2034580874574
75.0121594985081
74.8214670148632
74.6334085404229
74.4499714620341
74.2731048432833
74.1047226209712
73.9467077570729
73.8009173074359
73.6691883787207
73.5533449570656
73.4551903934548
73.3759624440409
73.3161893936707
73.2763785085648
73.2570665211782
73.2588226900443
73.2822520795954
73.3279990889481
73.3967512621965
73.4892434168374
73.6062621316507
73.7486506407821
73.9173141870512
74.1131766452235
74.3356756899667
74.5824386395178
74.8509650769995
75.138714163648
75.4430893369797
75.7614245388911
76.0909720414064
76.4288919780022
76.7722437251284
77.1179793111918
77.4629390580874
77.8038499472838
78.1377495305918
78.4628722440587
78.7776497505998
79.0804768988008
79.3697156696114
79.6436998537397
79.9007404784929
80.1391319943281
80.3571592214589
80.5531050455464
80.7252588388769
80.8719296689843
80.9921465989774
81.0864547910548
81.1556448988027
81.2005617758455
81.2220991590313
81.2211943170113
81.1988227165427
81.1559927553011
81.0937406059806
81.0131252121017
80.9152234713632
80.8011249941169
80.6718926493292
80.5285410337584
80.3720828938548
80.2035303732126
80.0238920226983
79.834170069673
79.6353579494421
79.4284380993977
79.2143800139385
78.9941385561523
78.7686525204486
78.538843657705
78.3057732520786
78.0709130773549
77.8357748987666
77.6018348154169
77.3705336981476
77.1432781660405
76.9214420679427
76.7063684376971
76.4993718947139
76.3017414650797
76.1147438024739
75.9396267927232
75.7775583534172
75.6279595110837
75.4883929784159
75.3563714167468
75.229446818688
75.1052062784466
74.9812693662181
74.8552870475231
74.7249420937162
74.5879509311654
74.4420668740405
74.2850846795361
74.1148463549869
73.9294133625997
73.7306854862775
73.5242995198673
73.3159399070587
73.11116609112
72.9154145705356
72.7340091150848
72.572178698699
72.4350827965227
72.3278438281711
72.2555867047786
72.2234856540887
72.2368187586468
72.301012067776
72.4185296197095
72.5852853058568
72.7964525051154
73.0472578163182
73.3329227752416
73.6486117532711
73.9893857248518
74.3501618699436
74.7256792274814
75.1104708386425
75.4988430134068
75.8848625161389
76.2625747459655
76.629236440026
76.9847332875415
77.3290397112464
77.6621484016395
77.984070253778
78.294834251893
78.594487303477
78.8830940247705
79.1607364798351
79.4275138756373
79.6835422157828
79.9288329628791
80.1612897611719
80.3769712245047
80.5718155529305
80.7417152425487
80.8825395428345
80.9901612088932
81.0604874316878
81.0894947081553
81.0732672775311
81.0080386042137
80.8902352365984
80.7171394588965
80.4929253021497
80.2259023654174
79.9243873421047
79.5965692970227
79.2504508379293
78.8938065186011
78.5341576116767
78.1787621262339
77.8346188204974
77.5084839567462
77.2068996449462
76.9362120259668
76.6991521333284
76.4911060590306
76.3066915536918
76.1406742816949
75.9879388027229
75.8434670094224
75.7023235704026
75.5596480326847
75.4106533023107
75.2506302496779
75.0749581801328
74.8791208731152
74.6588192866854
74.4140190726207
74.1504128822198
73.8739913810262
73.5905935350899
73.3058926268375
73.02539146791
72.754426145593
72.49817764532
72.2616907485112
72.0498997054406
71.8676603210225
71.7197882634203
71.6111036096499
71.5452248360904
71.5203672104751
71.5333796821171
71.5812338692263
71.6609931666811
71.7697849797612
71.904775749026
72.0631484855615
72.2420826190299
72.4387360336796
72.6502292315858
72.873631619137
73.1059499628811
73.3442894949199
73.5867847088283
73.8319605955234
74.0783034261212
74.3242585472763
74.5682298797466
74.8085800903976
75.0436314838041
75.2716676592025
75.490935976692
75.6996508731395
75.8959980630536
76.0781405360256
76.2443736289341
76.3933030661835
76.5235785489731
76.63385973115
76.7228226753884
76.789166703313
76.8316215935195
76.8489550723318
76.8399805330936
76.8035649110674
76.7386366328429
76.6441935518041
76.5195658843104
76.3669056613982
76.1900632297966
75.992896610254
75.7792257806312
75.5528149964834
75.3173590617843
75.0764734345323
74.8336880047455
74.592444351563
74.3560962705982
74.1279133608457
73.9110874708008
73.7084964477522
73.5203323531471
73.3451971828755
73.1817085711585
73.0285183219812
72.8843083563407
72.7477872070567
72.6176870278531
72.4927610885665
72.3717817326078
72.2535387762715
72.1368383322313
72.0205020416392
71.9033953984463
71.7859928887662
71.6711585085854
71.5619177610923
71.4612609300399
71.3721491653224
71.2975229927766
71.2403132132855
71.2034541901726
71.1898995659434
71.2026405000561
71.2447265794225
71.3192896240824
71.4295706939505
71.5781388030003
71.763389181202
71.9823538513801
72.2320831543562
72.5096181911127
72.8119646971215
73.1360691257653
73.4787969120914
73.8369129708922
74.2070645600959
74.5857667117718
74.969390498148
75.354155395059
75.7365032756161
76.1137014768351
76.4830658104724
76.8418177858213
77.1870900327379
77.5159339781252
77.8253299148046
78.1121995755796
78.3734212903576
78.60584776006
78.8063264277213
78.9717223650386
79.0996559760161
79.1906805075663
79.2461768794341
79.2676333576519
79.2566321988517
79.2148362814122
79.1439759041625
79.0458359162808
78.9222433230559
78.7750554920093
78.606149063204
78.4174096469707
78.2107515179758
77.988331483665
77.7524118967677
77.5052218544072
77.2489495612171
76.985737114038
76.7176765720505
76.4468072513249
76.1751141759063
75.9045276136246
75.6369236235394
75.3741255429906
75.1179063453399
74.869443228378
74.6274894691968
74.3901784635827
74.1556912110093
73.9222541632612
73.6881379481133
73.4516569300538
73.2111695539222
72.96507941814
72.7118370236054
72.4499421425055
72.177946748453
71.8944584456974
71.5984030903753
71.2926965763801
70.9832257718248
70.6757637163514
70.3758866861726
70.0889838254153
69.8202749904572
69.5748361256749
69.3576316362463
69.1735534099771
69.0274663619142
68.9242606323826
68.868910864404
68.8665433279233
68.9219557396282
69.0335123750788
69.1953428415635
69.4016175977487
69.6465447935192
69.9242973939295
70.2289497062714
70.5544230951263
70.8944410972953
71.2424945175306
71.5918173961061
71.9353749830326
72.2658650180982
72.575809971677
72.860396483364
73.1184296054232
73.3489942406506
73.5512246288534
73.7243098699301
73.8674992857636
73.9801075626604
74.061519616084
74.1111951204171
74.1286726484636
74.1135733683908
74.0656042497896
73.9846213844854
73.8724736241511
73.7333027976976
73.5713843268853
73.3909699751918
73.1962647976443
72.9914091083524
72.7804653681392
72.5674098218285
72.356128666154
72.1504185034018
71.9539908308316
71.7704803295501
71.6034567161089
71.4553421244437
71.3245583076825
71.2086702104908
71.1052933448703
71.0120846179117
70.9267348385915
70.8469628201939
70.7705110138592
70.6951426230469
70.6186401586851
70.5388054007392
70.4534607340494
70.3604518247468
70.2577052606828
70.1456022871423
70.0278783165331
69.908469715782
69.7912607519864
69.68008408564
69.5787255001073
69.4909327313532
69.4204282937291
69.3709262473211
69.3461529195342
69.3498716784504
69.3859119592031
69.4582028694298
69.5705732239273
69.7228516939479
69.9114292000311
70.1326185114424
70.3827277443309
70.6580257805506
70.9547113408737
71.268885683199
71.5965290309581
71.9334809579466
72.2754250629952
72.6178783595759
72.9561858786957
73.2855634830031
73.6024110979953
73.9046218907695
74.1901372914893
74.4568653722438
74.7026898896759
74.9254805863352
75.1231047335432
75.2934398734618
75.434387690381
75.5438889114616
75.6199391059482
75.6606052200056
75.6644203057428
75.6333060156367
75.5709662199586
75.4811783392799
75.3677503997938
75.2344956998533
75.0852112847262
74.923660314533
74.7535583281638
74.5785633404687
74.4022696613804
74.228205293422
74.0598327474024
73.9001893702429
73.7494193658656
73.6063312206131
73.4697481047447
73.3385135804025
73.2114896866234
73.0875554025965
72.9656054733605
72.8445495839933
72.723311869716
72.6008307502481
72.4760590772346
72.3479645836576
72.2155988454543
72.0795921986083
71.9421244539593
71.8054105534424
71.6716320349081
71.5429383072232
71.4214492122205
71.3092588271848
71.2084404698312
71.1210528788693
71.0491475571468
70.994777280978
70.960005798666
70.9469187635797
70.9571393908681
70.9901529186337
71.0448868191662
71.1203029584465
71.2153912495034
71.3291637059351
71.4606488658149
71.6088865471624
71.7729229030243
71.9518057504465
72.1445801533535
72.3502842446597
72.5679452779203
72.7964422661666
73.0334618695831
73.2760272363904
73.5210780880137
73.7654715910943
74.0059808959318
74.239296446018
74.4620302474273
74.670723278646
74.8618562011853
75.0318634978614
75.1771511180522
75.2941176470588
75.3799398350325
75.4348916777298
75.4600888090774
75.4567224840595
75.4260502718231
75.3693867688062
75.2880944396541
75.1835746837095
75.0572592139152
74.9106018234241
74.7450706033846
74.5621406635818
74.3632875476519
74.1502195579651
73.9253455551342
73.6911676454925
73.4501369893714
73.2046489686216
72.9570400221824
72.7095860578547
72.464502343137
72.2239447769594
71.9900124469032
71.7647513825579
71.5501594246018
71.3481921406185
71.1607087225316
70.9887177488749
70.8326328144727
70.6928651546694
70.5698390645095
70.4639941590731
70.3757877363446
70.3056972579409
70.2542229647894
70.2218906468205
70.2092545879745
70.2169007103518
70.2454499442156
70.2955618538479
70.3679920916696
70.4637795397594
70.5840836218228
70.7301275480179
70.9032066382477
71.1046974809193
71.3360680457851
71.598888891078
71.8948456285597
72.2257528378694
72.5935696546532
73.0004172965431
73.4485988386136
73.9391883411794
74.4656908200819
75.0187071037736
75.5882899651676
76.1638757396906
76.7342404196808
77.2874864305531
77.8110652116238
78.2918407993874
78.7161991542436
79.0702068627895
79.3398209923124
79.5131531203276
79.59304037365
79.5891962164782
79.511927909872
79.3719091855832
79.1799998223599
78.9470919630317
78.6839857096229
78.4012949685416
78.1093832774171
77.8183284570094
77.5379143917244
77.2775325393612
77.0420385725849
76.8307370989822
76.6426319949071
76.4767837531342
76.3323043340337
76.2083524473565
76.1041292173764
76.0188741898011
75.9518616437949
75.9023971767556
75.8698145332588
75.8534726528895
75.8524734306062
75.8635048899906
75.8820115494927
75.9034254244078
75.9231701213352
75.936660087955
75.939305394275
75.926522059789
75.8937479026769
75.8364638209568
75.7502203222365
75.630669000337
75.4735985901671
75.2775960461168
75.0508909793922
74.8037607559874
74.5462693613873
74.2882282862431
74.0391843113641
73.8084324629793
73.6050524329048
73.4379670397448
73.3160218165052
73.2480855281493
73.243172347495
73.3105875693018
73.4574586397807
73.6786833389234
73.9656013668783
74.3096403978429
74.7021651377544
75.1343447589664
75.5970388134426
76.0807022009915
76.5753108702079
77.0703108746397
77.5545941646891
78.0165050115003
78.4444299479143
78.8330424533054
79.1814299509042
79.4888846081479
79.7548299874363
79.9788246647119
80.1605647541066
80.2998853084899
80.3967605828759
80.4513031649545
80.4637619941071
80.4345193067175
80.3642883681348
80.2558514468514
80.1131644122009
79.9402363516078
79.7410861587031
79.5197151729572
79.2800839015951
79.0260928625559
78.7615674997907
78.4902470526216
78.2157772090593
77.9417063380568
77.6714589824892
77.4071914248652
77.1493838816099
76.8983862016979
76.65454027525
76.4181808131345
76.1896361441539
75.9692290292728
75.7572774926584
75.5540956696204
75.3599946718535
75.1752834707033
75.000269799497
74.8352117338473
74.6795121507027
74.5318647947666
74.3909655743326
74.2555332378074
74.1243072107344
73.9960458896981
73.8695253739042
73.7435386174685
73.6168949870398
73.4884202103785
73.35695670195
73.2213642515048
73.0805686879038
72.9350077876804
72.7868655484059
72.6383921445848
72.4918015922507
72.3492723998702
72.2129495339276
72.0849476460573
71.967355515479
71.862241670297
71.7716611637864
71.697663497006
71.6423016969434
71.6076425672518
71.5953196676233
71.605333362722
71.637345241269
71.6910566469102
71.766206763508
71.8625708936361
71.9799589139134
72.1182138926373
72.277210856789
72.4568556969136
72.6570841996508
72.877861198821
73.119179836983
73.3804609703363
73.6579260964445
73.9466302988375
74.2414790973693
74.5372154444684
74.8284131106376
75.1094777302538
75.374656145213
75.618054660451
75.8336667451541
76.0154105700395
76.1571765597718
76.2529436187451
76.3009109048382
76.3062045534108
76.2747352571934
76.2125126873209
76.1255925744616
76.0200330206233
75.9018603980755
75.7770449343804
75.6514858885052
75.5310060939508
75.4213555795495
75.3282239741336
75.2570474932245
75.2095276985715
75.1842371864435
75.1796928311311
75.1944482203846
75.22708595437
75.2762106030986
75.340442269333
75.418410715139
75.5087500201732
75.6100937486404
75.7210706097653
75.8403006036903
75.966520596516
76.0991409429964
76.2377942453659
76.3821101925777
76.5317147963738
76.6862298013984
76.8452721274855
77.0084533447787
77.1753791825737
77.3456490730036
77.5188557309007
77.6945847713755
77.8723418823088
78.0503542094994
78.2257331680668
78.395504110771
78.55664311864
78.7060821936692
78.8407168877307
78.9574164325265
79.053036406592
79.124433937845
79.1684853940878
79.1821064596757
79.1623574960197
79.108994811901
79.0249281173599
78.9132946444957
78.7772598320653
78.6199969860703
78.4446694366758
78.2544152712842
78.0523346685358
77.8414798116327
77.624847322032
77.4053731261801
77.1859296482412
76.9689303655059
76.7551641679094
76.5450120073085
76.3388466507623
76.1370331294472
75.9399292166376
75.7478859331655
75.5612480789949
75.380354789763
75.2055401173702
75.0371336339291
74.8754610586197
74.7208442828002
74.5733531255582
74.4324315278268
74.2974373517088
74.1677400247486
74.0427195728707
73.9217657695544
73.8042773960188
73.6896616077751
73.5773334034081
73.4667151918676
73.3572364548941
73.2483335014805
73.1394493345852
73.0308613782623
72.9258502841037
72.8283421411553
72.7422241881126
72.6713550712021
72.6195791588345
72.5907448960222
72.5887272545967
72.6174544267662
72.6809390211342
72.7833141548021
72.9288749969816
73.1221265149615
73.3665601547865
73.6591153814536
73.994530208187
74.3674840565962
74.7725356157625
75.2040660945354
75.6562294601713
76.122910199207
76.5976894535347
77.0738206654401
77.544216099711
78.0014457836599
78.4379837841421
78.849213580908
79.2327228975362
79.5861389124166
79.9070935434834
80.1932398577743
80.4422696556677
80.6519320733183
80.82005300928
80.944555144448
81.0234782895901
81.0549997632986
81.0380461722586
80.976356137779
80.8759878411916
80.7430766385864
80.5837688764431
80.4041779203465
80.2103496177688
80.0082371624798
79.8036851410985
79.6024224160503
79.4100634311598
79.2321175121513
79.0736473824296
78.9353437134424
78.8150629092648
78.7106611660574
78.6200370358045
78.5411235468949
78.4718815193884
78.4102940153361
78.3543618782875
78.3021003272008
78.2515365785575
78.2007084767454
78.1476960805524
78.0920358650468
78.0352706191179
77.9790817898565
77.9251412041957
77.8751116909379
77.8306484120699
77.7934008949724
77.7650157601541
77.747140143399
77.7414258166968
77.7495340190656
77.7731410034683
77.8134789027309
77.8701075713798
77.9422177827366
78.0290131127165
78.1297067583507
78.243518543568
78.3696720990163
78.5073922052982
78.6559022913798
78.8144220821507
78.9821653911903
79.1583380567315
79.3417172312213
79.5288274294085
79.7153870408937
79.8970334194532
80.0693258859691
80.2277532004654
80.3677461666898
80.484695525392
80.5739752209296
80.6309710279079
80.6511144006181
80.6299212598425
80.5650027821376
80.4619721598393
80.3284618378617
80.1720876021222
80.0003988845706
79.820843625754
79.6407474297964
79.4673065296892
79.3075939764898
79.1685784671024
79.0571553234723
78.9801893240123
78.9432939855693
78.9439653068963
78.9765586687391
79.0354901266068
79.115203126834
79.2101351318527
79.3146920595775
79.4232305100382
79.5300478812929
79.6293805597232
79.7154104057897
79.7822797430338
79.8249645444428
79.8444934908323
79.8445507267382
79.8288633057415
79.8011743333591
79.7652299806289
79.7247699993629
79.6835217554085
79.6451977658651
79.6134967096662
79.5921078781269
79.5847190427622
79.594678921268
79.6223214059319
79.6664385116793
79.7258253422109
79.7992881409156
79.8856398191113
79.9836958573896
80.0922705653683
80.2101736901411
80.3362073682181
80.4691634198138
80.6078209879845
80.7509917223552
80.8977763851148
81.0473844627923
81.1990143651411
81.3518525872103
81.5050733265323
81.6578382630633
81.809296508469
81.9585847315135
82.1048274663265
82.2471376101781
82.3846158968296
82.5160469138053
82.6394931352783
82.7528982193405
82.8541903278566
82.9412875426978
83.0121043442666
83.0645591447518
83.0965828538967
83.1061284383207
83.0911814168187
83.0497712138991
82.9801203267457
82.8823749329034
82.7580716273479
82.6088124883638
82.4362258883665
82.2419574609876
82.0276616334287
81.7949937730646
81.5456029843506
81.2811255799447
81.0031792387768
80.7133578537158
80.4131574680698
80.1033761013837
79.7844282926938
79.4567233452364
79.1206687824493
78.7766696411357
78.4251278036505
78.0664413696842
77.7010040679822
77.3292047081072
76.9514266721429
76.5680474460376
76.1794393436817
75.7867956472847
75.3935310556145
75.0033072621015
74.6196363297393
74.2458871124697
73.8852946462523
73.5409721912978
73.2159256532274
72.9130701640209
72.6352486621368
72.385252374309
72.1658431689303
71.979777822911
71.8295011738141
71.7149042032982
71.6347519720443
71.5879121738402
71.5733522748406
71.59013033016
71.6373866866202
71.7143364544997
71.8202626462087
71.9545098925584
72.116478658091
72.3056198860978
72.5214300117365
72.7634024780494
73.0302964589368
73.3202183846748
73.6312274768118
73.9613429706595
74.3085317066734
74.6706965838994
75.0456659214347
75.4311838017602
75.8249014966065
76.2243701015112
76.6270345290006
77.0302287822264
77.430773953689
77.8241392462171
78.2053846244512
78.5693937416719
78.9108906410536
79.2244638459561
79.5045982372057
79.7457149618576
79.9422194150309
80.0885570846732
80.179276752566
80.2091042904994
80.1759681813456
80.0862375231871
79.9478732851485
79.7689273121433
79.5574543745321
79.3214403243303
79.0687467192568
78.8070717453389
78.5439268796888
78.2866284855799
78.0423034133161
77.8179076799896
77.619658364783
77.4490019331419
77.3052068274476
77.1875918285253
77.0955350787424
77.0284702907856
76.9858833188705
76.9673090566091
76.9723286299044
77.0005668568742
77.0516899499684
77.1254034382335
77.2214374228734
77.3388382512178
77.4755876399954
77.6295776088532
77.7986894489845
77.9807844996301
78.1736960313335
78.3752222482812
78.5831204399956
78.7951023282208
79.0088306679583
79.2219171720685
79.4319343813907
79.6379299839422
79.8419123302409
80.0462765142534
80.2534672840018
80.4659803476834
80.6863652319539
80.9172297800315
81.1612463879864
81.4211600931813
81.6997986499344
82.0000847548056
82.3247171042985
82.6706459580119
83.0297182054394
83.3933432525412
83.7526271364514
84.0983691317853
84.4210782261349
84.711011122496
84.9582331931129
85.1527033514175
85.2843831090532
85.343459863263
85.3267658108104
85.2419261524074
85.0978179321358
84.9034745853122
84.6679722090166
84.4003345910298
84.109457790819
83.8040543151887
83.4926163564078
83.1833971647991
82.8844094025271
82.6027323995182
82.3384701078436
82.0879518603882
81.8475653616123
81.6137883351835
81.3831807979059
81.152380395776
80.9181006213615
80.6771317450575
80.4263442962485
80.1626949250724
79.8832344624386
79.5854694883127
79.2707734613058
78.9427852806388
78.6050816104344
78.2611345182802
77.9143057026877
77.5678438178406
77.224884651899
76.8884539146438
76.5614723993939
76.246763301366
75.9470614985487
75.6650246305419
75.4025641444109
75.1588493697576
74.9324187506128
74.7218646058111
74.5258270294161
74.3429884452284
74.1720687580113
74.0118210525299
73.8610277987565
73.7184975278105
73.5830619485026
73.4535734788609
73.3289031708093
73.2083913471843
73.0937809549794
72.9875834916029
72.8922860605372
72.8103576055118
72.7442572901927
72.6964445182689
72.6693906175473
72.6655922427754
72.6875865882222
72.7379685432551
72.8194099732423
72.9346813654495
73.0862338647151
73.2727903172566
73.4911404789176
73.7380610447191
74.0103036660656
74.3045693303839
74.6174853591765
74.9455850607859
75.2852901591402
75.632896196757
75.9845611787726
76.3362977834097
76.6839745758474
77.0241748608614
77.3552116357644
77.6755885463983
77.983774495851
78.2782075372863
78.5572994421779
78.8194409594613
79.063007773159
79.2863671568005
79.4878853125066
79.6659353710187
79.8189082044532
79.9457683082516
80.0467916163063
80.1224889041308
80.1734248742178
80.2002144186256
80.203518734056
80.1840413286624
80.1425239589545
80.0797425338037
79.996503020781
79.8936373879153
79.772000605577
79.6328631864185
79.4785034765879
79.3113405157318
79.1337688210786
78.948151688509
78.7568159783511
78.562048343994
78.3660928506423
78.1711499244771
77.9793765688957
77.7928877841026
77.6137591288302
77.4438345464483
77.2833987543872
77.1320166770598
76.9892609874767
76.8547154801617
76.7279741901264
76.6086405711794
76.4963267297195
76.3906527105522
76.2912458316132
76.1977400648074
76.1097754604533
76.0269997811749
75.949933936359
75.8812849956046
75.8240844027558
75.7813538539457
75.756115708243
75.7514058126447
75.7702887998873
75.8158759652945
75.891345886119
75.9999680149207
76.1451295594087
76.3303660575576
76.5590377440505
76.8291798674832
77.1345289623511
77.4685953851272
77.82471975437
78.1960255066966
78.5753823450007
78.9553815573906
79.3283244376225
79.6862252033611
80.0208298685482
80.3236524588748
80.5864716890055
80.8063380854738
80.9839588710516
81.1202628006842
81.21632620566
81.2733612326635
81.2927033807661
81.2757985428142
81.2241897528777
81.139503832548
81.0234381165225
80.8777474227411
80.7046344005554
80.5094754847166
80.2990699635599
80.0801119377694
79.8591625860392
79.6426424575413
79.4368343388004
79.2478961158872
79.0818831107225
78.944779490319
78.8425385248036
78.7811317014413
78.7660384799088
78.7941527975126
78.8556685464317
78.9406392770035
79.0390882287092
79.1409612892498
79.2361052058856
79.3142715740788
79.3651472256645
79.3784114541904
79.3438200392034
79.2513152639928
79.0915704455904
78.8666434824715
78.5906485663544
78.2781496635828
77.9434044577835
77.600262782345
77.2621171123818
76.9419013750627
76.6521340194709
76.4050016425334
76.2124803938309
76.0864938020597
76.0391075450432
76.0801566700843
76.2032595288825
76.3958116644018
76.6453584214525
76.9393991715229
77.2652153924228
77.6097384492918
77.9594585198922
78.3003777207262
78.618011542945
78.8974431093991
79.1234343980045
79.2819373466406
79.3719869163661
79.4002590886806
79.3738417599635
79.3000505907012
79.1863354659143
79.0401994180386
78.8691311782023
78.6805519462604
78.4817764956791
78.2799883676892
78.0822286627157
77.8953145176556
77.7228303363816
77.5643536257146
77.4192249782308
77.2868071171909
77.1664828405639
77.0576531139217
76.9597353000293
76.872161514339
76.7943770968396
76.7258391918203
76.6660154281096
76.6143826932457
76.5701619424595
76.5310417933327
76.4941659969458
76.4566894450314
76.4157783136551
76.3686115427432
76.3123843974445
76.2443140788473
76.1616473375251
76.061670023318
75.9417184790685
75.7991926553143
75.6315799638115
75.4387445011812
75.2258528972377
74.9987335392422
74.7631012696478
74.5245411877735
74.2885011753502
74.0602926423949
73.8450989747314
73.647991198145
73.4739504509619
73.3278969720302
73.2147254614282
73.139346527556
73.1051268315912
73.1102116749722
73.151768772679
73.22706807786
73.3334552291593
73.4683275087666
73.6291120168602
73.8132458422242
74.0181580736309
74.2412535539676
74.4798983304236
74.7314068002618
74.9930301968914
75.2618993589933
75.5349697474688
75.8090969309226
76.0810442027969
76.3474822465223
76.6049916839669
76.8500687118914
77.0791340183932
77.2885451458129
77.4746124270873
77.6336185681906
77.7618418797182
77.8562317083097
77.9172411307321
77.946554260732
77.945941722232
77.9172458178026
77.8623668357484
77.7832499399217
77.6818727790138
77.5602339280074
77.4203422507665
77.2642072499985
77.0938304495486
76.9112134860842
76.7188257751723
76.519672722188
76.3167371616934
76.1129422325701
75.9111499988479
75.7141622737567
75.5247235281484
75.3455257714294
75.1792153061834
75.028401276137
74.8956659505929
74.7835767166275
74.6945060408435
74.6278752246548
74.5808310875497
74.5505065220156
74.5340687936805
74.5287079335758
74.531627332812
74.5400364783883
74.5511457953655
74.5621635802546
74.5702950234179
74.5727433246418
74.5667129058225
74.5497619594714
74.5228181937058
74.4886958479596
74.4502250974856
74.410226876256
74.3715106654382
74.3368744140778
74.3091065699575
74.2909902017114
74.2853092030093
74.2948565859024
74.3224448932942
74.3709187901766
74.4427695577656
74.5376981009807
74.6542074428462
74.7908147818933
74.9460477591312
75.1184364372148
75.3065058625444
75.5087691833846
75.7237213092216
75.9498331077836
76.1855461465436
76.4292679951563
76.6793619723793
76.9335898458102
77.1886488955453
77.4410434692813
77.6871869206888
77.9234050044759
78.1459427778717
78.3509752012743
78.5346215976449
78.6929640806477
78.8220699947721
78.9180183265822
78.9769322911648
78.9967122204998
78.9800654482771
78.9306042600712
78.8520110147066
78.7480095380427
78.6223397490221
78.4787357271515
78.3209073383585
78.1525254567917
77.9772107548538
77.79852598306
77.619971625098
77.4447406855247
77.2738537142712
77.1072294758146
76.9447799320646
76.7864192393808
76.6320636671131
76.4816315193838
76.3350430599565
76.1922204400488
76.053087628948
75.9175703473022
75.7855960029614
75.6570935993091
75.5318471963807
75.409159623635
75.2882430212779
75.1683197551665
75.0486220925946
74.9283920386582
74.8068813279159
74.6833515661689
74.5570745171607
74.4273325288552
74.2934190936977
74.1546395369026
74.0103123848726
73.8606508005597
73.7085230100455
73.5572501863694
73.4100995216921
73.2702867035617
73.1409812060553
73.0253142902066
72.9263896331166
72.8472965393418
72.7911257312607
72.7609877672382
72.7600341980536
72.7914816443136
72.857753714596
72.9566756785174
73.0845776837708
73.2378103845531
73.4127179920384
73.6056139638831
73.8127602362855
74.0303500200389
74.2544942640751
74.4812119579868
74.7064244982295
74.9259543797348
75.1355292047372
75.3313074599847
75.510822042463
75.6718287748788
75.8120736664788
75.9293041130271
76.0212814219472
76.0857945940886
76.1206752621282
76.1238136522145
76.0931754009692
76.0268190254126
75.9229138099602
75.7799099792257
75.6004535463281
75.3916282156527
75.1606673940221
74.9146842689559
74.6606383159669
74.4053154106261
74.1553208190482
73.9170842456505
73.6968761194291
73.5008343880147
73.3350012519087
73.2053695015646
73.1178655548921
73.0744322598109
73.0710420651227
73.1033028503572
73.1669205435189
73.257659482688
73.3713081467591
73.5036499085919
73.6504386208412
73.8073789758349
73.9701116885112
74.1342036365394
74.2951431539999
74.4484355314781
74.592511547761
74.7293246832935
74.8610671710251
74.9899658121157
75.1182797561821
75.248299606746
75.3823479032248
75.5227810306654
75.6719926118919
75.832418444102
76.0065430534937
76.1969079576186
76.4056285343729
76.6316949656365
76.8728209858325
77.1266739026341
77.3908685290073
77.6629593126879
77.9404338541935
78.2207079095443
78.5011219908421
78.7789396911455
79.0513478690884
79.3154588327191
79.5689040930016
79.8144273926103
80.057524201259
80.3038507004699
80.5592037716626
80.8295309586164
81.1209492793645
81.4397735513999
81.792555052806
82.1861315726456
82.6276902201773
83.1248250067168
83.6806383523411
84.2868151644201
84.9329898561662
85.6082073416839
86.3008165861747
86.9983906394493
87.6876782324149
88.3545929505695
88.9842465550271
89.5610330528447
90.0692648308918
90.504400286052
90.8737385472579
91.1856927106345
91.449184413198
91.6735396576031
91.8683995049263
92.0436483055046
92.2093614782144
92.3757743181627
92.553266806636
92.747913205862
92.9534971014896
93.1615668845228
93.3635207524385
93.5506092961533
93.7139543827335
93.8445849619037
93.9334902113437
93.9716900823474
93.9503228130581
93.8606623793754
93.6938686120622
93.4414326944861
93.0954785673942
92.6489188408139
92.0956103449547
91.4305030342284
90.6497754641397
89.7509500351626
88.7329816033506
87.5963139170979
86.3469442475276
85.0107741487914
83.6175560793358
82.1943087505719
80.7651544987809
79.3513282475087
77.9713152231484
76.6410796635403
75.3743527645351
74.182954946634
73.0771342942069
72.0659092066239
71.1574086862852
70.3590784028184
69.6710561616654
69.0835402377723
68.5871225162694
68.1734784514586
67.8351747552401
67.5655100221728
67.3583814226336
67.2081722012316
67.1096559295885
67.0579143888814
67.0482666748107
67.0762076807919
67.137354563732
67.2274002418545
67.3424793705029
67.4800880944919
67.6380095212719
67.8140212780432
68.0058822234616
68.2113205501845
68.4280232754687
68.6536271490401
68.8857110360513
69.1217898580665
69.359310196416
69.5956476794995
69.8281062881084
70.0539671847139
70.2731079107372
70.4894470093116
70.7073400939124
70.9312518178865
71.1657615304965
71.4155748675643
71.6855417061295
71.9806810002364
72.3062131440812
72.6676006864574
73.0705984564516
73.521314468014
74.026178143743
74.5861731240471
75.193371033638
75.8386500645532
76.5122933759724
77.2038841174774
77.9022231730685
78.5952747421773
79.2701458894634
79.9131068866735
80.5096593843019
81.0446590130436
81.5031421965813
81.8829227070722
82.1943131244801
82.4488300422679
82.6585795670526
82.8361080392122
82.9942857971485
83.1462279777925
83.3052551353908
83.484895708282
83.6989321365087
83.9614890052006
84.2811473029771
84.6485312419462
85.0505914143224
85.4738612982934
85.9043613402044
86.327545485035
86.7282946499678
87.090962138416
87.3994757899918
87.6375006243934
87.7886808886981
87.8437915510542
87.8115247530496
87.7037972144661
87.5328421541638
87.3110186851038
87.050654085524
86.7639209409001
86.4627495153042
86.1587744851677
85.8633143650433
85.5873815545023
85.3398631631082
85.1205581774545
84.9266418790154
84.7553832307057
84.6041301896839
84.4702964829866
84.3513502322149
84.2448042935887
84.1482082076173
84.059141675537
83.9752094981062
83.8940270621888
83.8129796098467
83.729223784694
83.6399285184375
83.542288647279
83.4335295128662
83.3109133769272
83.1717475780472
83.0133943394056
82.8332821126032
82.6289183156081
82.3979032931732
82.1389571317445
81.8573605931536
81.560845720496
81.2569597825923
80.9530401849399
80.6562097042411
80.3733845953727
80.1112946115533
79.8765140932773
79.6755034737365
79.5146608089528
79.4003832649195
79.338275362088
79.3265813303869
79.3598715191205
79.4328322734099
79.5402408850958
79.6769162164637
79.8376764271856
80.0173034611664
80.2105141657866
80.4119380943241
80.6161021852338
80.8174226192621
81.0106964208903
81.1935124886482
81.3644743971804
81.5221752247395
81.6652002403354
81.7921315235235
81.9015530809615
81.9920564450734
82.0622467325814
82.1107491325481
82.1362157850257
82.1373357350157
82.113522507955
82.0658117272329
81.9954988118128
81.9039094347907
81.7923926056694
81.6623140952845
81.5150502459767
81.3519822013113
81.1744905816615
80.9839506244054
80.7817278004683
80.5691705782536
80.3473101782214
80.116632385638
79.8775658183596
79.630537074794
79.3759699846125
79.114284905955
78.8458980694719
78.5712209692639
78.2906598005234
78.0046149434348
77.7134804926815
77.417643831702
77.1176233227825
76.8147255157177
76.5105066555575
76.2064763153647
75.9040972241847
75.604786076583
75.3099148714977
75.0208127362584
74.7387681947585
74.4650318424915
74.2008193953798
73.9473150839284
73.7056753691845
73.4767193264389
73.2592477665073
73.0513074101183
72.8509925768551
72.6564425115444
72.4658377467196
72.2773974433717
72.0893776552936
71.9000704674488
71.707803961966
71.5109429667499
71.3078905414995
71.0970901542953
70.8770497537275
70.6478034133058
70.4118044316644
70.1716709348153
69.9299546933121
69.6891396209478
69.4516421032592
69.2198130306524
68.9959414160569
68.7822594866984
68.5809491532262
68.3941497765412
68.2239671728221
68.0724838202047
67.9417663186302
67.8329005831385
67.7447347594699
67.6758485714587
67.6248667600676
67.5904516532279
67.5712964286239
67.5661190075004
67.5736565288981
67.5926603636264
67.6218916359575
67.6601172286489
67.7061062535871
67.7586269762084
67.8164442021271
67.8788636551634
67.9471827128787
68.0231668081363
68.1086014255186
68.2052966077941
68.3150924643222
68.4398657323918
68.581537456531
68.742081867817
68.9235365655752
69.1280141281271
69.3577153081386
69.6149440025217
69.9020889589656
70.2184545812301
70.5575736999838
70.9121564581533
71.2746303499277
71.6371111811547
71.9913903766964
72.3289404672944
72.6409406565592
72.9183242478856
73.1518493681261
73.3321938320027
73.4500741331157
73.4964179034992
73.4676399319909
73.3714745710384
73.2173538863945
73.0148628899096
72.7736038851356
72.5030855820425
72.2126377933845
71.9113514638296
71.608043007469
71.3112414368061
71.0291965360207
70.7699063327581
70.5411623228735
70.3502086535427
70.1980792453456
70.0811108296129
69.9956688734576
69.9382432324949
69.905418626643
69.8938491197329
69.9002362420915
69.9213104954857
69.9538160625517
69.9944986105503
70.0400961336032
70.0873328194743
70.1329159569295
70.1739652941986
70.2098692161885
70.2407701115799
70.2668135731069
70.288147714435
70.3049229653307
70.3172918708304
70.3254088948694
70.3294302288029
70.3295136052172
70.3258181173975
70.3185040447857
70.3077326847309
70.2936659116975
70.2764325468192
70.256096523423
70.2327149445198
70.206345572963
70.1770467832498
70.1448775138851
70.1098972203668
70.0721658288433
70.0317436904942
69.9886915366825
69.9430704349214
69.8949417456981
69.8443670801928
69.7914853267807
69.7382048678648
69.6881899098296
69.6451609935111
69.6128233212658
69.5948762052794
69.5950264434773
69.6170056651759
69.6645917576437
69.7416345728103
69.8520862225212
70.0000364042731
70.1897533620838
70.4257312859332
70.7117717221294
71.0462440026448
71.4255291835842
71.8459903441687
72.303924535655
72.7955148875772
73.3167855388825
73.8635594627027
74.4314194657836
75.0156728538053
75.6113204614341
76.2130309478438
76.8151300140654
77.4120654792943
77.9986911623271
78.5696367199337
79.1192613414142
79.6416746141038
80.1307667301874
80.5802487326837
80.9837032896271
81.3346462025886
81.6265984980024
81.8531685220943
82.0086427756785
82.0943872894785
82.117049937807
82.0837154104186
82.0016948014156
81.8784329830507
81.7214279845917
81.5381635178327
81.3360552367498
81.1224108587535
80.9044039199794
80.689060689972
80.4826003724875
80.284771202004
80.0917881647699
79.8999014234765
79.7054327964715
79.5047759944336
79.2944001422831
79.0708564060766
78.8307875276619
78.5709400426344
78.2881789212237
77.9795043289922
77.6421239893436
77.2758325969466
76.8838348883657
76.4695273597219
76.0362281899775
75.5871617564082
75.1254462356519
74.6540841315036
74.1759555358341
73.6938139054093
73.210284123802
72.7278626126865
72.2489192592187
71.7757009345794
71.3105301851333
70.8563729807887
70.4162322211236
69.9929625143739
69.5892858404789
69.2078089071982
68.8510419979987
68.5214191744653
68.2213197612026
67.9530911076407
67.7190726894658
67.5216216836526
67.3631402269213
67.2461046500655
67.172719179954
67.1416768422048
67.1497889945439
67.1939859613807
67.2713051935882
67.3788603233541
67.5138133352857
67.6733495002739
67.8546548187518
68.0548958071972
68.271201538572
68.5006479156313
68.7402442167293
68.9869220073906
69.237666784969
69.4903789667584
69.7433340358654
69.9947585762479
70.2428284383243
70.4856695599092
70.7213597990001
70.9479318437268
71.1633772601744
71.3656517314285
71.5526815308181
71.7223712587987
71.8726128561028
72.0013289016239
72.1073376799278
72.1904511057933
72.2505727615815
72.2876503700009
72.3016759449116
72.2926857295562
72.2607599232192
72.2060221991971
72.1286390188001
72.0288187478771
71.9068105840224
71.7629033041826
71.5974239985271
71.411491966612
71.2087372772216
70.9932536260986
70.7690575968751
70.5400773671048
70.3101460149311
70.0829991753826
69.8622767774561
69.651528594968
69.4542233633704
69.2737612492069
69.113489506858
68.9767212173764
68.8667557886936
68.785974118841
68.7342345245043
68.7110292723053
68.715923502642
68.7485517590949
68.8086149909615
68.8958779904123
69.0101672314672
69.1513690830551
69.3194283729373
69.5143472833553
69.7361845629665
69.9850550430433
70.2610895176666
70.5632058070762
70.8888228576187
71.235210600954
71.5995547267218
71.9789390117016
72.370329539122
72.770560999519
73.176325321612
73.5841629336676
73.9904570011284
74.3914310227784
74.7831501927684
75.1616099047135
75.523803234726
75.8674666571425
76.1903124394025
76.4900213972025
76.7642548718504
77.0106681726691
77.2269254352847
77.4107158123537
77.5597708763753
77.6718830755351
77.7449250440988
77.7768973777285
77.7684417827382
77.7248169751875
77.6518269718281
77.555308828355
77.4410932725656
77.3149741070351
77.1826864308955
77.0498935663955
76.9221824679924
76.8050673383902
76.7040011744879
76.6243950135011
76.5710692709515
76.5438594030954
76.5400777096215
76.5570626913323
76.5921850218296
76.642834139817
76.7064067048177
76.7802968522604
76.8618882146121
76.9485477006696
77.0376210455161
77.1264301590661
77.2122943210107
77.2940552594377
77.3730848581432
77.4510030123239
77.5294430227249
77.6100515061935
77.6944890021326
77.7844312903255
77.8815714374004
77.9876225923292
78.1043215558756
78.2334331549234
78.3767552073588
78.5348785292512
78.7042638961451
78.8804564903486
79.0589255089741
79.2350584940401
79.4041609282521
79.5614613445293
79.702122187617
79.8212566277217
79.9139514570868
79.9752960995423
80.0004180213373
79.9864424344148
79.9369690052928
79.8569961364524
79.7515608358997
79.6257038495593
79.4844411140849
79.3327416283916
79.1755117090141
79.017585495542
78.8637215076671
78.7186050234425
78.5868560472293
78.4721612521661
78.3725250559113
78.2837547652915
78.2017011207623
78.1222545084906
78.0413399692246
77.9549165087938
77.8589806142353
77.749573873876
77.6227945762093
77.4748131220954
77.3018910290405
77.1005587010636
76.8732730491826
76.6298500360778
76.3803723892725
76.1346744927559
75.9023413364883
75.6927319838061
75.5150260461206
75.3782920345255
75.2915770579719
75.2640181473131
75.3049765123804
75.4241973185811
75.6306556797989
75.9194748742646
76.2771678261677
76.6899929031792
77.1438416417526
77.6240478620143
78.1152463527219
78.601286554617
79.0652086824559
79.4892908422879
79.8551756703193
80.1440835606
80.3388172010842
80.4389597070481
80.4540238502965
80.3942238090335
80.2701708608589
80.092691707813
79.8726725975479
79.6209320140247
79.3481231411205
79.0646660405043
78.7807085641488
78.5061144427715
78.2502804281272
78.0171515078816
77.8049714306534
77.611769956522
77.4356405536016
77.2747316506475
77.1272389752849
76.9913988912687
76.865482663305
76.7477915906539
76.6366529612994
76.5304167871515
76.4274532877419
76.3263677798595
76.2269274767841
76.1292801457313
76.0335724217495
75.9399496460512
75.8485559499419
75.7595343437337
75.6730268105613
75.5891744050372
75.5081173566944
75.4299951781832
75.3549467782062
75.2831120096173
75.2152032328588
75.1533729110016
75.0999857532751
75.0573976603862
75.0279618087526
75.0140362068577
75.0179927449069
75.042227781015
75.0891743335046
75.1613159799914
75.2612026004486
75.3914681442917
75.5547349472945
75.7500890405702
75.9723401506749
76.2159834862593
76.4754078911469
76.744866829235
77.0184574170343
77.2901080289698
77.5535751150328
77.8024499301063
78.0301758711362
78.2300770435026
78.3954075905994
78.5216693431791
78.6096872648283
78.6611530942938
78.6778740183873
78.6617560104011
78.6147873871666
78.539022811797
78.4365679416295
78.3095648916091
78.1601786534287
77.9905845810827
77.8029570249494
77.5994311486285
77.3819433611579
77.152336665926
76.9124268397605
76.6639977673228
76.4087974945725
76.1485351484301
75.8848786845206
75.6194534203026
75.3538413079677
75.0895809000837
74.8281679608868
74.5710566772555
74.319558219403
74.0744985002545
73.8365597713943
73.6064082954435
73.384695929001
73.1720617944254
72.9691340400713
72.7765316864499
72.5948665571613
72.4247452948592
72.266771463964
72.121547743343
71.9896782137449
71.871814074972
71.7691988631704
71.6835007291318
71.6164025565094
71.5696011182712
71.5448164735429
71.5438022793694
71.5683571023497
71.6203368386517
71.7016683778865
71.8143646775025
71.9605414507053
72.1424357136566
72.3623563892424
72.618840683209
72.904506097421
73.2113057670071
73.5309540597372
73.8548846640406
74.1742273588953
74.4798052117362
74.7621541086389
75.011566463107
75.218160640041
75.3719770386175
75.4631008829233
75.4825549722814
75.4318128151678
75.3199876901647
75.1565738703234
74.9511464926917
74.7132452706153
74.4522826504991
74.1774766296461
73.8978076187643
73.6219981674681
73.3585140618051
73.1155852259468
72.901244987356
72.7232271076203
72.5842008587078
72.4810378901544
72.4104176724313
72.3691372679256
72.3540842593385
72.3622129899498
72.3905237948707
72.43604498598
72.4958174235776
72.5668815669307
72.6462669452734
72.7309840313528
72.8180309851551
72.9058885276056
72.9959635331113
73.0900157786923
73.1898240536359
73.2971885784045
73.4139343254803
73.5419152766329
73.683019659232
73.8391762145867
74.0123615641085
74.2046087546769
74.4180170833152
74.6547115238982
74.9145430743651
75.1940901577733
75.4896089623657
75.7972523467534
76.1130539434904
76.4329160165113
76.752601397753
77.067729879242
77.3737794701059
77.6660929400017
77.9398900576231
78.19028652887
78.4133333930948
78.6081405569819
78.774452175605
78.912075689599
79.0208825807649
79.1008087707804
79.151854660526
79.1740848112674
79.1676272726329
79.13267256592
79.0694723347088
78.9783376779871
78.8600667406817
78.71757251573
78.5543965850984
78.3740615071369
78.1800543001805
77.975813285702
77.7647181094636
77.550082844704
77.3351520515572
77.123099648661
76.9170304454015
76.7199841854908
76.5348879231525
76.3626034757635
76.2014214577987
76.0495033240742
75.9050459184259
75.7662774257552
75.631454210289
75.4988584996746
75.3667968801496
75.2335995719356
75.0976204563378
74.9572378268905
74.8108558363807
74.6570885705182
74.4977362158352
74.3372438263196
74.1800661377288
74.0305832888448
73.8931077123426
73.7718960172894
73.671165699969
73.5951165903326
73.5479570341415
73.5339349260138
73.557373847647
73.6227147316396
73.7342745729195
73.890793825872
74.0857889603596
74.3125650459287
74.564347846524
74.8342296629863
75.1151271067965
75.3997513738804
75.6805918813656
75.9499143293926
76.1997743407208
76.4220477958725
76.6084788029925
76.752406492792
76.853864446665
76.9147000305547
76.9369073070212
76.9226060585599
76.8740209590544
76.7934612216859
76.6833010129564
76.5459608805397
76.3838903992302
76.1995521958748
75.9954074722327
75.773910962612
75.5379268008707
75.2909240149754
75.0363516363301
74.7775759958771
74.5178762149306
74.2604427102836
74.0083785148955
73.7647032176954
73.5323593379076
73.3142209695372
73.1131045591512
72.9317817139907
72.7729907080227
72.6381497052418
72.5254078711702
72.4324673472634
72.3570871711134
72.2970718277574
72.2502613258068
72.2145226990444
72.1877428581849
72.1678227374565
72.1526726969548
72.1402091546461
72.1283524316696
72.1150258013156
72.0984169378142
72.0783972084111
72.0555039734021
72.0302756741209
72.0032497861611
71.974962512944
71.9459485597645
71.9167409878577
71.8878711479088
71.8598686923698
71.8332616659249
71.8085766734835
71.7863391251584
71.7670777307878
71.7514323473157
71.7401637600491
71.7340392942592
71.7338277575812
71.7403006264436
71.7542334012794
71.7764071343035
71.8076101349582
71.8486398596328
71.900304993954
71.9634277378489
72.0388463057233
72.1274151100969
72.2289856829709
72.3408259711625
72.4597749979814
72.5826350541852
72.7061666458809
72.8270862692749
72.9420671108724
73.0477427752075
73.1407141343076
73.2175593731658
73.2748472729595
73.3091537283268
73.3170816700891
73.2964281632878
73.2488521386302
73.1768502014741
73.0829521408751
72.9697051967189
72.8396600025187
72.6953582852341
72.5393223655701
72.3740464692392
72.2019898319937
72.0255715590145
71.8471671824141
71.669106849
71.493622876509
71.3222769735941
71.1561874214705
70.996445484827
70.8441248847808
70.7002840397537
70.5659686015607
70.4422142798601
70.3300499515384
70.2305010553481
70.1445932761805
70.0733565277787
70.0178292474994
69.9790630219853
69.9577168775787
69.952491324605
69.9615137270186
69.9829284388854
70.0148898454967
70.0555562899019
70.1030849809447
70.1556278695645
70.2113284903505
70.2683197734116
70.3247228375918
70.3786467798743
70.4281894774556
70.4714628569083
70.5082168593838
70.5409016327891
70.5722289032615
70.6049206350231
70.6417090463468
70.6853387364902
70.7385709486306
70.8041900043307
70.8850119627315
70.9838955828447
71.1037557005264
71.2475791737384
71.4184436016783
71.618680252745
71.8456881980294
72.0950166229712
72.3621266296281
72.6423667049546
72.9309511358475
73.2229442136403
73.5132506896799
73.7966130225211
74.0676160011992
74.320699331917
74.5501787307668
74.7502760073003
74.9166319527959
75.0502876598051
75.1536216447203
75.2291195154643
75.2793543915299
75.3069685303755
75.314656406487
75.3051494415108
75.2812025380779
75.2455825276821
75.2010586053427
75.1503947915501
75.0963392957141
75.0410051978874
74.985289228042
74.9299446989908
74.8757204931008
74.8233612194098
74.773607518643
74.7271965140806
74.6848624065473
74.6473372122338
74.6153516426138
74.5896361263881
74.5709219741762
74.5599181374668
74.5562252864804
74.5579057401286
74.5629107835135
74.5691919688888
74.5746998513851
74.5773838507207
74.5751932401451
74.5660792628782
74.5479983727276
74.5189165893872
74.4768149502009
74.4196960289924
74.3456454219515
74.2542258388306
74.1465867617141
74.0239654754262
73.8876033741747
73.7387413480918
73.5786155839299
73.4084537894794
73.229471845782
73.0428708863218
72.8498347980962
72.6515281358262
72.4490944375397
72.2436540493745
72.0360858305504
71.8267484234964
71.6159229661515
71.4038848568044
71.190903694086
70.9772432390768
70.7631613984262
70.5489102273839
70.3347359516558
70.1208790070094
69.9075740955764
69.6950502578256
69.4835309592094
69.2732620149546
69.0660246990132
68.8658682556829
68.6769405035335
68.5033048653299
68.3489568667823
68.2178451386424
68.1138968280457
68.041047439662
68.0032752627992
68.0046406993914
68.0493309939811
68.1417110868975
68.2863815752831
68.488187405158
68.7482764744584
69.0613681117251
69.4215889918708
69.8229903858013
70.2594639799936
70.7246665617665
71.2119538880722
71.7143246143765
72.2243756733203
72.7342709503783
73.2357254851975
73.7200077023267
74.1780336429328
74.6043666639799
74.9995591422756
75.3648168453531
75.7014981338539
76.0111028252616
76.295260705644
76.5557199236952
76.7943354910559
77.0130580990542
77.2139234455528
77.3990422474088
77.570591095038
77.730463566052
77.8790959257357
78.0165288935072
78.1428149039776
78.2580178942009
78.3622130540931
78.4554865527901
78.5379352424029
78.6096663407074
78.6707970943633
78.7214544243079
78.76177455501
78.7919820558279
78.8129341921125
78.825791857559
78.8317247247809
78.8319072721463
78.8275168948126
78.8197323631832
78.809732632105
78.7986960024149
78.7877996351685
78.7782194180548
78.7711301831095
78.7676586088469
78.7682005988214
78.7725809592461
78.7806103027804
78.792100137387
78.8068626956691
78.8247107736742
78.8454575789721
78.868916587851
78.8949014115018
78.9232256710917
78.9537028816502
78.9861934185456
79.0220403484134
79.0643398915219
79.116304272416
79.1811683140148
79.2621986709575
79.3627058154937
79.4860588930449
79.6357036124095
79.815183395349
80.0281640837655
80.2784625922939
80.5697876221969
80.8992799917693
81.2572407214143
81.6333810023699
82.017048412445
82.3971886653386
82.7623356991512
83.1006329529724
83.3998886599537
83.6476675695737
83.8314206455523
83.9386537874329
83.9613255009076
83.9057581005277
83.7815728259475
83.5986486140837
83.3669748510648
83.0965263405416
82.797162063611
82.4785481935104
82.150104950908
81.8209762561757
81.5000207470876
81.1957920582066
80.9129333874378
80.6489064635976
80.4004517840682
80.1644042998088
79.9376820627788
79.717277490491
79.5002510729942
79.2837273734616
79.0648931912425
78.840997766616
78.6093549103054
78.3673469387755
78.114020672862
77.8547796420889
77.5964625982104
77.3457299241738
77.1090723362082
76.8928304914533
76.7032248402144
76.5463952413653
76.4284501024199
76.3555251097466
76.3338519815306
76.3698381146097
76.4699075398089
76.6329201746718
76.8486338823289
77.1062709514217
77.3949129344931
77.7033930027057
78.0202184970762
78.3335254583129
78.6310677046543
78.9002434211842
79.1281621611343
79.301754569224
79.4080615628219
79.4418594233961
79.4096806853024
79.3193293177686
79.1788186401167
78.9962635775481
78.7797882436215
78.5374499975291
78.2771804135407
78.0067430270791
77.7337072968376
77.4654379440323
77.2090986894228
76.9707514480278
76.751480426639
76.5507744364948
76.3681541709402
76.2031712514238
76.055406407589
75.9244678002251
75.8099894747073
75.7116299337839
75.6290708196562
75.562015696267
75.5101889235841
75.4733329155046
75.4507838372021
75.4409141307697
75.441973566633
75.4522223114193
75.4699262858101
75.493353333565
75.5207701902428
75.5504402467917
75.5806221082615
75.6095689514506
75.6355286873175
75.6567449344629
75.6716173476849
75.6821930434017
75.6941718722505
75.7134202125307
75.7458192232093
75.7972807180998
75.8737723177072
75.9813521468154
76.126213545458
76.3147405312467
76.5535751026397
76.8496979220308
77.2105236326492
77.639765772483
78.1273154900153
78.6597757784231
79.2231290580027
79.8025844553916
80.3824733503576
80.9462009431422
81.4762630580092
81.9543379049427
82.3614617706093
82.6782952982421
82.8860714588027
82.982245341654
82.982280026583
82.9032436710989
82.7625978226639
82.577903851918
82.3666017689394
82.1458636630798
81.9325207683951
81.7430612425908
81.5936951179317
81.5004834400046
81.4780980898033
81.526029672172
81.6346688056908
81.7944693522319
81.9959500045203
82.2295841785365
82.4857117094947
82.754472258854
83.0257611106167
83.2892085996616
83.5341847599876
83.7498620667626
83.9305357002831
84.0817305553336
84.2105634870275
84.3242862522423
84.4302534471713
84.5359028150228
84.6487484036633
84.7763869582973
84.9265179351496
85.1069776242504
85.3257880795653
85.5879608388078
85.8843153934505
86.2015106608099
86.5258446385885
86.8432063062674
87.1390718243978
87.3985485954271
87.6064704000735
87.7475458646832
87.8065607752804
87.7686323571195
87.6244126292065
87.3831619623091
87.0586481546006
86.6647911561021
86.2154305897132
85.7241378763254
85.2040737650132
84.6678899291805
84.1276717746671
83.5949186887773
83.0805575721795
82.594820443911
82.1423450412682
81.7216172247593
81.3308876873666
80.9685151436002
80.6329556749203
80.3227531385923
80.0365305140923
79.7729820783288
79.5308663155905
79.3089994806746
79.1062497444311
78.9215368600965
78.7542729881216
78.6047014023572
78.4731651370907
78.3600249780544
78.2656613797661
78.190476483455
78.1348962493649
78.0993727186322
78.0843864215288
78.0904489506658
78.1181057198088
78.1679389312977
78.2393589351786
78.3269493922247
78.4240524944229
78.5239549935324
78.6198774637317
78.704975139657
78.7723506185789
78.8150786670517
78.8262432354087
78.7989865563498
78.7265698884214
78.6024450684982
78.4213883306123
78.1867265671827
77.9058008394032
77.585964900214
77.2344859092705
76.8584825752137
76.4648774125822
76.0603626024915
75.6513786463896
75.244104811596
74.8444602746995
74.4581148605096
74.0905083357371
73.7465064126715
73.4282067961946
73.1365475243958
72.8724728861184
72.6369467073163
72.430961345164
72.2555470679742
72.1117819106113
72.0008021093764
71.9238132366788
71.882102174726
71.8770500895978
71.9101465931833
71.9829103161218
72.0944496534018
72.2412093926986
72.419543410882
72.6258176286363
72.8563786968597
73.1075262246461
73.3754884805376
73.6564016117748
73.9462925260025
74.2410656664186
74.5364939837556
74.8282144648724
75.1117918450457
75.3834321219683
75.6397592758387
75.8773369696585
76.0926739464691
76.2822417977311
76.4424961133986
76.5699009691782
76.6609566195207
76.712230166525
76.7203888675327
76.6822356311418
76.5947492761064
76.457387061752
76.2760449379
76.057741078997
75.8094646272707
75.5381165821934
75.25046381469
74.9531059557504
74.6524546164104
74.3547242043755
74.0659335043202
73.7919171738741
73.5383463643698
73.3107577744971
73.1138925204965
72.9499195305367
72.8204722027901
72.7272503342276
72.6720376877986
72.6567210094203
72.6833107771774
72.7539640198412
72.8710096072374
73.0369764939711
73.2546254941615
73.5269852827582
73.8573934009076
74.2472293951718
74.6896394283647
75.175659996862
75.6959707995455
76.2407851887546
76.7997616157953
77.3619391390783
77.9157010239793
78.4487711795768
78.9482485550928
79.4006845438878
79.7922077922078
80.1120106590579
80.3626677502281
80.5505710219651
80.6825688456894
80.7658630944568
80.8079146846003
80.8163600133296
80.7989400993912
80.7634436512533
80.7176647871517
80.6693757348523
80.6263135124868
80.5945284576961
80.5750519855291
80.5679808715587
80.5734232067843
80.5914987371784
80.6223392336297
80.6660888940999
80.7229047799877
80.7929572888846
80.8764306661131
80.9735235576659
81.0844417681146
81.2084551778823
81.3429829079772
81.4852046877502
81.6322654160607
81.781270571013
81.9292836139484
82.0733254615725
82.2103761052964
82.3373784557276
82.4512444823183
82.5488637030482
82.6273772907957
82.6875082571121
82.7325915553905
82.766053172885
82.7913423281425
82.8119232234516
82.8312696600365
82.8528625507182
82.8801903509791
82.9167524257662
82.9660653761225
83.0316719534381
83.1151196687989
83.211223118284
83.3133584413697
83.414841763134
83.5089247038226
83.5888007237778
83.6476225508712
83.6785308571874
83.6746941940152
83.6293599590377
83.5359158603119
83.3883266480005
83.1871843682824
82.9386405108713
82.649057377327
82.3247708194822
81.9720354458087
81.5969798246142
81.205571567854
80.8035919345257
80.3966194137831
79.9900216313268
79.5889548622684
79.1983841719593
78.8234462159875
78.4694817547606
78.141675763054
77.8450715222013
77.5846108508111
77.3651800642704
77.1916617048621
77.0689923502158
77.0022271073067
76.996611742166
77.0576637965211
77.1912644210507
77.4000976757706
77.6738775947126
77.9992837323534
78.3627651142092
78.7503759888903
79.147657260922
79.539567144677
79.9104660877304
80.2441617686313
80.5240198229899
80.733144720625
80.8546482686641
80.878182848222
80.8097369817424
80.6583430432998
80.4334503598864
80.144747388137
79.8020030436785
79.4149302793384
78.9930735796174
78.5457208067293
78.081838842505
77.6100317359496
77.1385195810878
76.6749781253717
76.2250340240048
75.7930363604508
75.3831293866627
74.9992932709187
74.6453734192882
74.3251130934637
74.0421891760032
73.8002510859838
73.6029630099482
73.4540497879679
73.357346987633
73.3168559169017
73.3364085462344
73.4140397256028
73.5432688617615
73.717630306698
73.9307127983768
74.1760839121481
74.4472255384044
74.7374801403156
75.0400079881853
75.3477559356781
75.6534385965369
75.9495329905372
76.2282878411911
76.4828597582419
76.7107405399002
76.9105479571689
77.0809389907544
77.2206189156212
77.3283505362532
77.4029634753376
77.4433634103808
77.448541146009
77.4175814046905
77.3496712156212
77.2441077807823
77.1004799800271
76.9215213898658
76.7125769589869
76.4790424929616
76.2262455258891
75.9594162788587
75.683666241367
75.4039740755173
75.1251784460113
74.8519773249575
74.5889333051172
74.340484473731
74.1109604469363
73.9045300456891
73.7241840854806
73.5720293790957
73.4501711324901
73.3607541819269
73.3059821178837
73.2881380806711
73.3096074927802
73.3729030571607
73.4806924261221
73.6358290354762
73.8413867069414
74.1006987538399
74.4167455408314
74.7848231930095
75.1948622833749
75.6363752141247
76.098437545307
76.5696034497135
77.0378521732395
77.4905697099039
77.9145704671059
78.2961637759987
78.6212695723602
78.8755863187093
79.0453052306594
79.1282558394318
79.1341862808444
79.0738356654005
78.9582490523781
78.7986093048644
78.6060985483922
78.3917911385772
78.1665786029889
77.9411259523685
77.7258580692199
77.5309745636781
77.3664897771417
77.2395689720548
77.1491238310691
77.092625933559
77.0676544311197
77.0718757476827
77.1030252856335
77.1588909005182
77.2372979549217
77.3360958034268
77.4531455964669
77.5863093223245
77.7334400342252
77.8925206235414
78.0627999522581
78.2441885500795
78.4366084309632
78.6399873018991
78.854258218724
79.0793592510415
79.315233154987
79.5618270526353
79.8190921168932
80.0869832607697
80.3654588299488
80.6539587077201
80.9481790624756
81.2420642053375
81.5293747868685
81.8036979366928
82.0584610950563
82.2869565466626
82.48237718164
82.6378638085143
82.7465640614342
82.8017025790333
82.796680360789
82.7282945896032
82.6002905049437
82.4174802358767
82.1848277955528
81.9073888304914
81.5902555335632
81.2385074125945
80.857168351172
80.4511701675696
80.025322678039
79.5842901054734
79.1325740748257
78.6753312066501
78.2199806401952
77.7740691222883
77.3448025777683
76.9390753303235
76.5635111057994
76.2245145872411
75.9283326568225
75.681124880792
75.48904326603
75.3583218453527
75.2953772468862
75.3068021342882
75.392911035789
75.5443208936674
75.7510236870456
76.0030569301648
76.2903667325546
76.6026965412042
76.9295016558755
77.2598907336179
77.5825963504655
77.8859772406453
78.1580550379526
78.3865900380382
78.5622134950048
78.6847635372355
78.7560307977177
78.7780279105864
78.7529630225179
78.6832125949337
78.5712940288285
78.4198386029498
78.2315651649984
78.0092549574199
77.7557278971105
77.4738205646342
77.1666176678338
76.8398647843667
76.5007913328722
76.1564251421351
75.8135551316782
75.4787305278825
75.1582716981381
74.8582915550193
74.5847266141993
74.3433769857503
74.1399548290596
73.9801411013652
73.8696507782312
73.8137156819573
73.8113793089772
73.8580233982319
73.9491586943378
74.0804230459899
74.2475303503428
74.4462251817272
74.6722425643909
74.9212725636396
75.1889295562606
75.4707262041322
75.7620522969038
76.0581587172861
76.3539798483103
76.6437322059655
76.9213429807977
77.1805759356738
77.4150544008551
77.6182950750495
77.7837529968275
77.9048777803375
77.9751808573348
77.9883130395374
77.9381512237076
77.8188925271074
77.6261512289186
77.3656206248587
77.048566074334
76.6862547021892
76.2897542712574
75.8698259208921
75.4368497835443
75.0007815118463
74.5711371051304
74.1570031462405
73.7670695907522
73.409682532898
73.0929148529827
72.8243458277455
72.6061501531404
72.4361273855076
72.3121588173939
72.2323276192335
72.1948962660753
72.198286518459
72.2410615677998
72.321910016146
72.4396314091217
72.5931230812967
72.7813681067337
73.0034241753551
73.2583350244466
73.542715652779
73.850193097764
74.1740478090201
74.5073396881592
74.8428809565075
75.1732220196309
75.4906516025698
75.7872125088292
76.0547343091614
76.2848840719642
76.4692358870359
76.5993593960658
76.6685730003154
76.6791590789587
76.6365636899789
76.5464473891368
76.4146097693741
76.2469230461731
76.0492738923715
75.8275141615129
75.5874207995673
75.3346649603396
75.0747901154021
74.813198785963
74.5551474010521
74.3050904158502
74.0649823138612
73.8361920574526
73.6200608297842
73.4179068581085
73.2310306511166
73.060720645106
72.908259262135
72.774929392238
72.6620213213073
72.570840136507
72.5027136522346
72.4590009118916
72.4409113655987
72.4482124948955
72.4800200394456
72.5354934202077
72.6138342093675
72.7142808195696
72.8361035336218
72.978599829835
73.1410899636402
73.3229127709504
73.5234216630308
73.7419807864855
73.9779613254528
74.2301897458001
74.4935561336115
74.7611042437688
75.0256709444061
75.2798900435524
75.5162036636483
75.72688883643
75.904100151653
76.03992900637
76.1264795671148
76.155960974732
76.1207946015706
76.0137525996112
75.8326135626848
75.5860602484839
75.2843938503412
74.937886742576
74.5566532432166
74.1505490844019
73.7290990565827
73.3014513528129
72.8763565289957
72.4621686853193
72.0668664212189
71.6980912749748
71.3632016859626
71.0688293635942
70.816571420814
70.6053631243647
70.4342627538638
70.3024737335574
70.209337250623
70.1543261439009
70.1370399615684
70.1572011063411
70.2146520047193
70.3093532530909
70.4413827085782
70.6109355067506
70.8183210281778
71.0623631688135
71.3378717339013
71.6389329180977
71.9594808023454
72.2932559858013
72.6337740283582
72.974304565657
73.3078621711595
73.6272101752385
73.9248786931696
74.1931980440202
74.4243485423071
74.6104641770431
74.7470313712909
74.8356557420681
74.8787718065115
74.8789992315373
74.8391115251461
74.7620053409585
74.6506709319344
74.5081642090842
74.3375807769473
74.1420322334245
73.9246249403794
73.6884413958295
73.4365260486469
73.1721684243186
72.899212067239
72.6214792444104
72.3426834383365
72.066427399387
71.7962049086513
71.5354059663056
71.2873251388867
71.0551728298056
70.8420892791026
70.6511611494309
70.4854406146074
70.3479669344075
70.241583486308
70.1655707269176
70.116237411149
70.0898818403308
70.0828635024839
70.0915811359061
70.1124547051694
70.1419111349939
70.1763737176177
70.2122551627867
70.2459542971299
70.2738564416982
70.2923375027721
70.297771801431
70.2870622089624
70.2598846960613
70.2168466002923
70.158574992552
70.0857133959658
69.9989191396923
69.8988607891428
69.7862156666448
69.6616674748092
69.5259040330902
69.3796151362779
69.2234905419631
69.0582180923818
68.8844819744985
68.703563742591
68.5193583702531
68.3364002819014
68.1591282480554
67.9918904783179
67.8389552749862
67.7045269611606
67.5927668904243
67.5078194435721
67.4538430410277
67.4350463482456
67.4557300281475
67.5203346043168
67.6334952489276
67.7993236283918
68.0160682412398
68.2792177841158
68.5842870841641
68.9267710299385
69.3020870587804
69.7055229086207
70.1321895987218
70.5769798971037
71.0345328055554
71.4992048454702
71.9650491544381
72.4258035957402
72.8750337383478
73.3085547563502
73.7242089557668
74.1198575699435
74.4933228909068
74.8423989126576
75.1648633253539
75.4584908306623
75.7210677192335
75.9504076193752
76.1443682921781
76.3008693134447
76.4179104477612
76.4945148476999
76.5335280979743
76.5388505808732
76.5144812758651
76.4644846577019
76.3929614474687
76.3040235255151
76.2017731959269
76.0902868899764
75.973603312897
75.8557159753329
75.7405700080484
75.6320584450294
75.533704077706
75.4484629792981
75.379226157124
75.3288809615433
75.3003246118926
75.2964799828579
75.3203137556525
75.3748570946936
75.4632290765821
75.5886631759804
75.7545372050583
75.9644072129976
76.2213852305548
76.5216373075621
76.8569228564656
77.2187376967803
77.5983024091659
77.9865070678186
78.3738755795568
78.7505516991391
79.1063090805629
79.4305877863301
79.7125594642954
79.9412228692436
80.1066073601311
80.2105088602337
80.2621538507109
80.2711511416565
80.2472772882973
80.2003846914503
80.1403331492122
80.076945528537
80.0199876463845
79.9791721185501
79.9641858510452
79.984741009286
80.0496957529806
80.1577757008889
80.3015146189225
80.4733554702299
80.6656786083555
80.8707545714675
81.0807111198559
81.2875150411433
81.4829694610908
81.6587274909137
81.806323002784
81.9172191410836
81.9848282893994
82.0112328235723
82.0010068627732
81.9588268805335
81.8894326309912
81.797593159447
81.6880781664239
81.5656349097784
81.4349707039529
81.3007409768453
81.1675427737587
81.0399120546806
80.9212451657734
80.8119161740994
80.7117905615507
80.6207409068408
80.5386466336316
80.465393773515
80.4008747430137
80.3449881338294
80.2976385156154
80.2587362506063
80.2281973194832
80.2059458461855
80.1929894961897
80.1930633796815
80.2103366094655
80.2490044843306
80.313308668491
80.4075620037584
80.5361782338737
80.703707046087
80.9148749894445
81.1746330183093
81.4882116417678
81.8609965427328
82.2916475258972
82.7697462708413
83.2839150378829
83.8222725169428
84.3723361866077
84.9209577346363
85.4542963456176
85.9578353726138
86.4164481047706
86.8145178806491
87.1363089578652
87.3747796110815
87.5354239390971
87.6251731556072
87.6513908712069
87.6217589484566
87.5441727350104
87.4266480285926
87.2772414320572
87.1039851196252
86.9148364863103
86.7175949366161
86.5165967438218
86.3106646239754
86.0981445259288
85.8774186714719
85.6469081626904
85.4050761249239
85.1504313397871
84.8815323181901
84.5969917583476
84.2954813285726
83.9757367093907
83.6372189858269
83.2832406062995
82.9183963264402
82.5471434826165
82.1737924821785
81.8025040228959
81.4372907167348
81.0820227257189
80.7404370394018
80.4161500599786
80.1126732096789
79.833431333671
79.5810638201411
79.3535781603976
79.1472531864171
78.9584719890978
78.7837087402148
78.6195144374335
78.4625059350335
78.3093580710609
78.156798737568
78.0016067647852
77.840612503562
77.6707009940528
77.4889100279739
77.2948048787461
77.0906295082901
76.8787249011743
76.6613888723536
76.4408725074308
76.2193779964889
75.999057791165
75.7820150117143
75.5703050310934
75.3659381662183
75.1708834122334
74.9870731635598
74.816318717097
74.6593243236294
74.5160783468323
74.3865696439386
74.2708006981219
74.1687877687437
74.0805610773714
74.0061650308115
73.9456584825937
73.8991150345501
73.8666233803582
73.8482876931492
73.844228059549
73.8545440193544
73.8789055300955
73.9167015247642
73.9673281622575
74.0301919490282
74.1047076764733
74.1902964725238
74.2863839592914
74.3923985099653
74.5077695993876
74.6319262438796
74.7642955269674
74.9043012086566
75.051223149709
75.203433334663
75.3589214066271
75.5156434518511
75.6715214810423
75.8244431488785
75.9722626418864
76.1128027835409
76.2438584022633
76.3632010017533
76.4685847636065
76.5577538993236
76.6284679076968
76.6796569911146
76.7121807636505
76.7271068678505
76.7255299264396
76.7085666590471
76.6773512457724
76.6330309678691
76.5767621505968
76.50970642825
76.4330273465997
76.347887313544
76.25544490471
76.1567623719667
76.0520250039731
75.9409330671607
75.8231884922302
75.6985008089872
75.5665876777429
75.4271754305716
75.2799996198255
75.1248055711835
74.961348938392
74.7893962567511
74.6087254923082
74.4191265836428
74.2205786489585
74.0143174788137
73.8020959130622
73.5856344569144
73.3666170161914
73.1466896311562
72.927459983117
72.7104976296935
72.4973349248972
72.2894685817298
72.0883618377109
71.8954471874646
71.7121296511062
71.5397774588336
71.3792511292563
71.2307830651151
71.0945714523006
70.9708221711646
70.859749660535
70.7615778141202
70.6765409136298
70.6048846033039
70.5468669109508
70.5027593210466
70.4728479059508
70.45743452186
70.4568380767479
70.471395383421
70.5014592003593
70.5474017938852
70.60961837684
70.6885288536877
70.7845796866598
70.8982459080057
71.0300332941488
71.1804807193596
71.3501627086115
71.5396922116228
71.7497236227508
71.9809560744499
72.2340735112463
72.508097186775
72.8001728359414
73.1072789580333
73.4263033538322
73.7540301288561
74.0871291758206
74.4221483706027
74.7555087549771
75.0835030089269
75.4022975333785
75.7079384684307
75.9963619600223
76.2638853575504
76.5098475106563
76.7348443447527
76.9395320266524
77.1246201187473
77.2908676313826
77.4390790145184
77.5701001324151
77.6848142629466
77.784138160596
77.8690182193168
77.9404267683227
77.9993789317861
78.0473164047118
78.0860743042373
78.1175166593324
78.1435184775035
78.1659626839897
78.1867379560354
78.2077374630642
78.2308585201216
78.2580031603306
78.291079632348
78.3320048309263
78.3826874474835
78.4432183028967
78.5104195732776
78.5807569194575
78.6506721406553
78.7165818945683
78.7748796645769
78.821941029545
78.8541322779332
78.8678223812649
78.8593983022653
78.8252835604565
78.7619606227099
78.6671156857571
78.541911421294
78.3882043017601
78.2078895058938
78.0028883062352
77.7751362357052
77.5265721182096
77.2591280261861
76.9747202072565
76.6752410030204
76.362551765818
76.0384767641548
75.7048321873066
75.3644511732671
75.0213188248878
74.6793525866232
74.3423297913809
74.0138923091097
73.6975547488649
73.396715884537
73.1146730197923
72.8546390632754
72.6197621491256
72.413147709363
72.2378829833721
72.0970618756456
71.9922551361914
71.9208097158364
71.8794526420383
71.865006355779
71.8743636619618
71.9044658312267
71.952283595477
72.0148008556817
72.089000984651
72.1718556610606
72.260316215064
72.3513075009273
72.4417243384572
72.5286481162646
72.6104061157476
72.6857743284824
72.7535224440693
72.8124155438889
72.8612168522151
72.8986909098628
72.9236071640496
72.9347439633763
72.9308929415287
72.9108637675265
72.8734892341808
72.8176306499648
72.7423451471006
72.6484676024798
72.537912516787
72.4126121203816
72.2744930360984
72.1254691941361
71.9674357949336
71.8022643146396
71.6317985357595
71.457851575954
71.2822038807087
71.1066021405831
70.9327590908552
70.7623538297165
70.5968021453129
70.4368577977425
70.2831539015214
70.1363146329758
69.9969564997716
69.8656897077728
69.7431196240629
69.6298483360266
69.5264763075234
69.4336041343747
69.3518344026558
69.2817736546351
69.2240344686438
69.1792335721887
69.1475040165523
69.1280335176732
69.1199149745493
69.1222539187341
69.1341656965917
69.1547729031015
69.1832030555824
69.2185864983849
69.2600545319965
69.3067377621209
69.3577646661693
69.4122603762311
69.4693456790006
69.5281344565503
69.5876788454858
69.646958468477
69.7049422014486
69.760592162289
69.8128642367135
69.8607089180872
69.9030724651686
69.9388983804852
69.9671292103932
69.9867086658015
69.996584060063
69.9957090576591
69.9830467240597
69.957767255715
69.9209349096427
69.8746737524932
69.8211172346629
69.7623914678987
69.7006114671217
69.6378786917841
69.5762798698709
69.5178870831029
69.4647590905859
69.4189438699859
69.3824823601856
69.3574133972158
69.3457798460201
69.3494469109982
69.3691947655335
69.405426827534
69.4585707232209
69.5290808369353
69.6174404633198
69.7241641302117
69.8498001115269
69.9949331516912
70.1601874257765
70.3462297624673
70.55377316038
70.7835806321568
71.0364550975975
71.3124536632756
71.6104471162161
71.9291960210493
72.267440811821
72.6238932830966
72.9972283807702
73.3860762930106
73.7890148549262
74.2045622937005
74.6311703542084
75.0672178584604
75.5110047655793
75.9607468122769
76.4145708267867
76.8705108216611
77.326504982441
77.7803936795513
78.2299186393816
78.6727234168488
79.1063553151853
79.5282688986027
79.9358312391669
80.3263290299913
80.696977682071
81.0449325011592
