Value(μV)
51.6907234191895
47.3036880493164
43.0120239257813
38.9110984802246
40.8185043334961
51.3092422485352
54.3610954284668
52.9305381774902
52.453685760498
44.3472061157227
44.4425773620605
52.2629470825195
48.066650390625
40.6277656555176
39.9601707458496
39.0064697265625
39.3879508972168
43.1073951721191
44.6333198547363
43.8703575134277
42.4398002624512
40.4370231628418
38.7203598022461
34.5240631103516
31.1861019134521
35.5731353759766
36.1453590393066
31.7583236694336
37.9573936462402
43.1073951721191
39.864803314209
36.3360977172852
28.2296199798584
22.7935104370117
26.3222141265869
26.1314735412598
21.839807510376
24.3194370269775
28.1342506408691
25.2731399536133
20.2185115814209
21.0768451690674
23.6518440246582
18.1203651428223
9.34629344940186
7.6296272277832
10.9675893783569
11.635181427002
11.4444408416748
10.9675893783569
7.43888664245605
-1.23981440067291
-7.24814605712891
-5.05462789535522
-5.91296100616455
-10.9675893783569
-14.4009208679199
-12.2074031829834
-3.147221326828
4.1962947845459
5.81759071350098
6.96203470230103
3.8148136138916
-5.43610954284668
-4.86388731002808
1.33518481254578
-1.81203651428223
-3.43333220481873
-1.81203651428223
-5.81759071350098
-8.0111083984375
-3.33796191215515
0.9537034034729
5.7222204208374
11.9212923049927
12.8749961853027
13.5425882339478
17.357400894165
16.9759197235107
12.4935140609741
9.15555286407471
10.6814785003662
14.3055505752563
13.9240694046021
12.1120328903198
12.0166625976563
7.15277528762817
-5.05462789535522
-15.0685138702393
-16.2129573822021
-11.635181427002
-11.8259220123291
-16.5944385528564
-15.7361059188843
-5.81759071350098
2.76573991775513
3.05185079574585
0.572222054004669
-6.96203470230103
-14.1148099899292
-13.256477355957
-16.30832862854
-22.5074005126953
-19.6462898254395
-10.1092557907104
0.0953703373670578
4.86388731002808
1.81203651428223
0.381481349468231
-4.48240613937378
-14.7824029922485
-16.4990692138672
-16.022216796875
-19.9324016571045
-18.0249938964844
-8.96481227874756
-4.57777643203735
-6.77129411697388
-14.4962921142578
-31.4722118377686
-44.4425773620605
-49.4018363952637
-65.2333145141602
-95.751823425293
-118.73607635498
-154.213836669922
-225.264739990234
-286.015655517578
-341.902679443359
-441.278564453125
-533.120178222656
-527.588745117188
-424.588745117188
-286.111022949219
-143.246246337891
70.6694183349609
315.198974609375
386.249877929688
385.486907958984
463.59521484375
498.214660644531
558.679443359375
723.384033203125
842.1201171875
801.969177246094
594.1572265625
370.132293701172
263.317504882813
217.158264160156
177.388824462891
140.861999511719
76.7731246948242
-33.761100769043
-168.90087890625
-286.492492675781
-349.246185302734
-354.110076904297
-311.288787841797
-234.706405639648
-158.791610717773
-112.823112487793
-108.531448364258
-145.344390869141
-198.370300292969
-246.341583251953
-278.099914550781
-277.432312011719
-241.57307434082
-188.356414794922
-135.807357788086
-95.1795959472656
-79.9203414916992
-91.6508941650391
-119.59440612793
-156.121246337891
-181.299011230469
-179.58235168457
-158.1240234375
-124.649032592773
-85.6425628662109
-54.9333152770996
-45.9685020446777
-53.121280670166
-64.5657196044922
-77.2499771118164
-92.2231216430664
-99.2805252075195
-91.4601593017578
-73.2444229125977
-46.6360969543457
-21.839807510376
-9.82314491271973
-8.29721927642822
-12.9703664779663
-22.6981410980225
-37.4805450439453
-41.8675804138184
-28.1342506408691
-12.588885307312
-2.09814739227295
2.95648050308228
6.1037015914917
10.7768487930298
7.15277528762817
0.190740674734116
0.190740674734116
4.10092449188232
6.86666440963745
10.4907369613647
11.635181427002
8.29721927642822
6.00833129882813
1.81203651428223
-2.8611102104187
0.286111027002335
10.5861072540283
21.5536975860596
26.1314735412598
24.4148063659668
20.7907333374023
15.9268465042114
13.6379585266113
13.1611070632935
4.00555419921875
-1.52592539787292
11.5398111343384
26.8944358825684
34.6194343566895
37.099063873291
27.7527694702148
13.1611070632935
2.1935179233551
-7.6296272277832
-8.29721927642822
4.48240613937378
18.0249938964844
25.2731399536133
29.1833248138428
25.5592517852783
10.3953666687012
-8.96481227874756
-23.8425846099854
-26.8944358825684
-20.5046234130859
-15.7361059188843
-4.00555419921875
16.8805503845215
26.9898052215576
25.2731399536133
17.738883972168
4.10092449188232
-9.06018257141113
-16.9759197235107
-23.0796222686768
-21.9351787567139
-6.1037015914917
12.2074031829834
26.0361022949219
38.8157272338867
42.3444290161133
25.6546211242676
4.67314672470093
-1.71666610240936
3.8148136138916
13.3518476486206
30.5185089111328
51.404613494873
66.1870193481445
76.2009048461914
80.778678894043
77.4407196044922
68.2851638793945
62.4675712585449
68.8573837280273
76.296272277832
85.4518280029297
105.479598999023
121.406440734863
128.177734375
131.801803588867
132.374038696289
136.66569519043
134.281433105469
123.123107910156
125.888847351074
144.867553710938
163.846237182617
178.437911987305
190.740676879883
194.078643798828
187.784194946289
178.724014282227
167.756423950195
163.369384765625
165.372161865234
162.892547607422
171.475875854492
191.408279418945
200.9453125
204.283264160156
201.612899780273
184.732345581055
169.854568481445
166.421249389648
167.756423950195
165.562911987305
159.745315551758
159.363830566406
155.83512878418
141.911071777344
129.226806640625
117.305519104004
97.3731155395508
78.1083068847656
63.9934997558594
51.404613494873
45.1101722717285
40.6277656555176
29.5648059844971
16.9759197235107
6.38981294631958
-6.00833129882813
-21.5536975860596
-40.5323944091797
-57.5083160400391
-61.323127746582
-57.6990547180176
-59.9879455566406
-65.4240493774414
-75.7240524291992
-91.6508941650391
-99.1851501464844
-104.716636657715
-119.785148620605
-127.033294677734
-125.507369995117
-131.706436157227
-133.995330810547
-127.605514526367
-129.703659057617
-138.668472290039
-143.246246337891
-147.34716796875
-153.355499267578
-155.739761352539
-156.407363891602
-158.410140991211
-155.930511474609
-148.300872802734
-142.960144042969
-144.486068725586
-145.43977355957
-143.341613769531
-143.723098754883
-144.199951171875
-142.769393920898
-141.720321655273
-146.965698242188
-159.554580688477
-164.799942016602
-158.791610717773
-158.791610717773
-159.936065673828
-147.824020385742
-138.477737426758
-135.998107910156
-133.423110961914
-136.474960327148
-139.622177124023
-140.480514526367
-143.627731323242
-141.720321655273
-133.804580688477
-129.894409179688
-129.226806640625
-123.695327758789
-116.44718170166
-109.96199798584
-107.100891113281
-111.964782714844
-112.727745056152
-107.387001037598
-103.095336914063
-94.6073760986328
-83.8305282592773
-76.2009048461914
-73.9120101928711
-79.9203414916992
-86.6916351318359
-87.1684875488281
-82.6860809326172
-76.4870147705078
-71.5277557373047
-61.5138702392578
-46.5407257080078
-37.9573936462402
-36.0499877929688
-37.5759124755859
-44.4425773620605
-51.2138710021973
-49.2110939025879
-42.2490615844727
-40.5323944091797
-37.1944313049316
-28.9925842285156
-22.2212886810303
-14.4962921142578
-9.25092315673828
-14.7824029922485
-18.5018463134766
-13.3518476486206
-15.8314762115479
-21.4583263397217
-15.6407356262207
-10.0138854980469
-4.38703584671021
11.2537002563477
16.5944385528564
10.204626083374
15.5453653335571
19.074068069458
13.7333288192749
13.8286991119385
13.5425882339478
12.9703664779663
20.0277709960938
34.810173034668
42.8212814331055
36.9083213806152
32.8073959350586
32.3305435180664
28.5157318115234
24.9870281219482
27.0851764678955
35.382396697998
44.3472061157227
48.2573928833008
49.1157264709473
47.3990592956543
41.3907279968262
38.148136138916
37.099063873291
31.7583236694336
31.3768424987793
38.3388748168945
41.3907279968262
43.9657249450684
51.8814659118652
56.5546112060547
57.4129447937012
56.6499824523926
52.9305381774902
46.9222068786621
41.0092468261719
43.5842437744141
49.5925750732422
50.1647987365723
53.5981292724609
61.1323890686035
61.323127746582
52.2629470825195
48.9249839782715
52.3583183288574
51.0231323242188
53.121280670166
62.2768325805664
64.8518295288086
62.2768325805664
64.1842422485352
64.5657196044922
61.2277565002441
58.2712783813477
52.0722045898438
51.3092422485352
59.3203506469727
64.2796096801758
67.1407165527344
70.0018310546875
64.4703521728516
53.3120193481445
46.2546157836914
46.7314682006836
52.3583183288574
52.7397994995117
47.2083168029785
46.1592445373535
39.3879508972168
28.0388793945313
30.70924949646
37.7666549682617
37.6712837219238
34.2379531860352
27.943510055542
29.5648059844971
42.0583190917969
48.9249839782715
49.2110939025879
49.0203552246094
48.5435028076172
49.5925750732422
51.0231323242188
50.832389831543
49.783317565918
48.5435028076172
48.734245300293
48.1620216369629
45.7777633666992
45.8731346130371
46.1592445373535
41.2953567504883
30.2323970794678
23.6518440246582
26.4175834655762
26.6083240509033
22.6981410980225
20.5999927520752
25.7499923706055
31.4722118377686
32.04443359375
32.9981384277344
30.3277683258057
29.7555465698242
31.3768424987793
27.4666576385498
24.2240657806396
16.8805503845215
10.204626083374
11.9212923049927
12.9703664779663
9.34629344940186
6.29444265365601
10.204626083374
13.256477355957
13.1611070632935
16.7851791381836
14.2101802825928
10.7768487930298
16.7851791381836
16.9759197235107
8.58333015441895
6.1037015914917
9.537034034729
7.91573810577393
-2.28888821601868
-7.34351634979248
-3.62407302856445
-3.05185079574585
-8.20184898376465
-17.8342533111572
-23.5564746856689
-20.5999927520752
-14.1148099899292
-7.34351634979248
-9.15555286407471
-14.5916624069214
-12.9703664779663
-7.15277528762817
-0.858333051204681
3.24259161949158
8.20184898376465
10.6814785003662
10.9675893783569
12.2074031829834
17.5481433868408
24.4148063659668
22.2212886810303
18.1203651428223
15.2592544555664
7.0574049949646
4.57777643203735
5.34073925018311
-1.81203651428223
-5.34073925018311
-2.1935179233551
4.48240613937378
12.0166625976563
11.635181427002
2.76573991775513
-6.48518323898315
-8.29721927642822
-8.10647869110107
-11.7305517196655
-15.2592544555664
-18.1203651428223
-15.4499950408936
-6.77129411697388
-0.9537034034729
-0.858333051204681
-4.48240613937378
-6.6759238243103
-11.5398111343384
-18.5018463134766
-14.1148099899292
-2.76573991775513
-1.04907369613647
-6.96203470230103
-10.4907369613647
-16.4036979675293
-23.3657341003418
-23.8425846099854
-27.7527694702148
-35.6685066223145
-33.1888771057129
-25.8453617095947
-25.4638805389404
-26.226842880249
-26.8944358825684
-30.1370277404785
-29.8509159088135
-26.9898052215576
-31.9490642547607
-46.0638732910156
-56.1731300354004
-61.323127746582
-69.1434936523438
-79.2527542114258
-88.9805297851563
-112.060150146484
-171.285125732422
-240.714736938477
-288.39990234375
-359.736907958984
-459.589660644531
-504.127624511719
-461.020233154297
-351.725799560547
-211.912887573242
-33.4749908447266
219.256408691406
385.391540527344
372.135070800781
365.459136962891
406.468383789063
466.742431640625
607.985900878906
746.654418945313
777.172912597656
663.491455078125
441.660034179688
269.707305908203
207.525863647461
180.536056518555
155.072174072266
122.646255493164
52.3583183288574
-55.7916488647461
-180.917541503906
-288.304534912109
-336.752655029297
-324.9267578125
-269.802703857422
-187.974945068359
-117.400886535645
-90.4110794067383
-107.482376098633
-149.254577636719
-200.277709960938
-250.347137451172
-274.952697753906
-256.736968994141
-207.525863647461
-140.385147094727
-81.4462738037109
-55.6009063720703
-54.5518341064453
-76.296272277832
-116.35181427002
-144.867553710938
-157.265686035156
-154.499954223633
-128.463851928711
-89.8388595581055
-49.2110939025879
-23.3657341003418
-24.9870281219482
-36.0499877929688
-50.355541229248
-72.5768280029297
-83.8305282592773
-76.7731246948242
-67.3314590454102
-55.219425201416
-38.4342460632324
-21.3629570007324
-10.9675893783569
-19.4555492401123
-36.431468963623
-42.2490615844727
-44.8240585327148
-44.8240585327148
-36.5268402099609
-23.9379558563232
-4.29166507720947
11.9212923049927
15.2592544555664
15.8314762115479
10.8722190856934
1.71666610240936
3.8148136138916
7.34351634979248
6.58055353164673
11.9212923049927
18.8833274841309
20.6953639984131
12.2074031829834
-0.381481349468231
-4.38703584671021
2.67036962509155
16.4036979675293
22.2212886810303
18.5018463134766
21.0768451690674
27.2759170532227
25.177770614624
21.2675857543945
17.357400894165
11.1583299636841
15.1638841629028
29.9462871551514
40.8185043334961
43.0120239257813
38.148136138916
32.9981384277344
26.8944358825684
16.022216796875
10.5861072540283
14.2101802825928
19.4555492401123
30.4231376647949
41.6768379211426
42.4398002624512
40.2462844848633
32.9981384277344
14.4009208679199
-2.38425850868225
-10.2999963760376
-13.0657367706299
-8.20184898376465
8.67870044708252
25.5592517852783
26.6083240509033
20.1231422424316
15.1638841629028
1.04907369613647
-17.1666603088379
-27.0851764678955
-31.7583236694336
-22.2212886810303
5.1499981880188
27.3712882995605
36.0499877929688
38.8157272338867
32.9027671813965
20.3138828277588
7.91573810577393
-2.8611102104187
-10.2999963760376
2.5749990940094
26.1314735412598
44.1564674377441
61.6092376708984
69.7157211303711
62.8490524291992
57.8897972106934
58.1759071350098
53.0259094238281
53.2166481018066
69.0481262207031
88.5990447998047
104.812004089355
120.548110961914
133.423110961914
139.717544555664
133.327728271484
117.877738952637
108.054595947266
111.774040222168
123.695327758789
135.711990356445
153.069396972656
173.192535400391
178.819381713867
171.285125732422
163.178649902344
160.508285522461
158.600875854492
151.161987304688
150.208282470703
161.748092651367
177.007354736328
187.211975097656
193.506423950195
191.980499267578
176.816604614258
158.696243286133
142.292541503906
126.747184753418
123.886070251465
130.46662902832
131.706436157227
128.273101806641
122.741630554199
108.149963378906
89.6481170654297
79.9203414916992
69.4296035766602
47.3036880493164
27.1805477142334
18.9786968231201
20.8861045837402
24.7962875366211
18.5018463134766
7.43888664245605
1.62129580974579
-6.77129411697388
-19.5509204864502
-29.1833248138428
-35.4777679443359
-42.9166526794434
-55.887020111084
-66.6638641357422
-72.0046081542969
-76.3916397094727
-80.111083984375
-84.1166381835938
-89.8388595581055
-100.234230041504
-115.207366943359
-125.888847351074
-125.507369995117
-122.455513000488
-124.744407653809
-128.845321655273
-128.36848449707
-124.458290100098
-133.423110961914
-145.344390869141
-141.338836669922
-139.622177124023
-145.821243286133
-147.156433105469
-145.535140991211
-142.769393920898
-140.385147094727
-139.049957275391
-142.101806640625
-148.491622924805
-150.780502319336
-149.922180175781
-152.020324707031
-154.404586791992
-157.074951171875
-161.366607666016
-158.028656005859
-149.063842773438
-143.627731323242
-140.385147094727
-137.428665161133
-136.188842773438
-136.570327758789
-134.853652954102
-132.660140991211
-133.232360839844
-128.463851928711
-119.117553710938
-117.49626159668
-117.019409179688
-110.534225463867
-109.389778137207
-108.149963378906
-97.849967956543
-95.9425582885742
-105.288856506348
-112.918479919434
-115.207366943359
-108.817558288574
-94.9888610839844
-83.0675659179688
-77.7268295288086
-70.7647933959961
-59.8925743103027
-57.6990547180176
-63.6120147705078
-66.9499816894531
-68.1897964477539
-62.2768325805664
-45.5870208740234
-33.0935096740723
-26.3222141265869
-23.0796222686768
-24.0333251953125
-22.0305480957031
-24.9870281219482
-31.3768424987793
-34.3333206176758
-37.6712837219238
-33.0935096740723
-21.3629570007324
-11.8259220123291
-7.72499752044678
-13.3518476486206
-19.5509204864502
-17.0712909698486
-16.4036979675293
-20.3138828277588
-17.738883972168
-7.82036781311035
-4.00555419921875
-2.28888821601868
8.20184898376465
14.1148099899292
11.3490705490112
12.2074031829834
8.3925895690918
0.0953703373670578
0.572222054004669
6.1037015914917
14.7824029922485
21.7444381713867
22.6027698516846
26.7036952972412
30.8046188354492
27.1805477142334
24.0333251953125
15.6407356262207
6.29444265365601
19.1694374084473
39.197208404541
43.8703575134277
41.3907279968262
39.0064697265625
40.2462844848633
44.0610961914063
43.8703575134277
37.0036926269531
23.6518440246582
20.3138828277588
34.9055442810059
45.300910949707
41.0092468261719
38.4342460632324
43.9657249450684
46.0638732910156
43.4888763427734
40.1509132385254
37.8620262145996
40.6277656555176
47.4944305419922
56.6499824523926
66.2823867797852
69.8110885620117
63.6120147705078
54.170352935791
51.404613494873
52.5490570068359
53.6935005187988
55.6009063720703
53.3120193481445
54.2657241821289
57.4129447937012
53.7888717651367
53.121280670166
56.1731300354004
51.5953521728516
48.9249839782715
52.453685760498
48.2573928833008
41.7722091674805
43.8703575134277
50.9277610778809
55.6962776184082
54.6472053527832
54.7425765991211
56.7453536987305
51.7860946655273
46.0638732910156
44.1564674377441
41.1046180725098
38.3388748168945
38.2435073852539
35.5731353759766
36.3360977172852
45.0148010253906
52.453685760498
52.453685760498
49.4972076416016
49.0203552246094
46.7314682006836
42.9166526794434
45.7777633666992
51.8814659118652
50.0694274902344
40.913875579834
40.1509132385254
44.8240585327148
38.9110984802246
32.3305435180664
36.0499877929688
40.2462844848633
38.0527648925781
35.9546165466309
34.810173034668
33.2842483520508
34.4286918640137
34.2379531860352
34.4286918640137
38.3388748168945
43.0120239257813
46.4453544616699
44.8240585327148
39.864803314209
35.5731353759766
28.6111011505127
23.4611034393311
22.6027698516846
15.7361059188843
9.06018257141113
14.5916624069214
20.1231422424316
15.35462474823
12.2074031829834
16.2129573822021
15.2592544555664
6.19907188415527
-1.23981440067291
-1.14444410800934
0.572222054004669
-4.1962947845459
-11.5398111343384
-16.022216796875
-16.4036979675293
-15.4499950408936
-16.1175880432129
-16.6898097991943
-11.1583299636841
2.95648050308228
12.4935140609741
11.5398111343384
11.2537002563477
11.0629596710205
12.8749961853027
17.9296245574951
15.35462474823
9.34629344940186
12.6842555999756
20.9814739227295
21.3629570007324
16.8805503845215
17.4527721405029
19.4555492401123
22.125919342041
19.6462898254395
17.6435127258301
25.0823993682861
26.5129547119141
21.0768451690674
17.738883972168
12.4935140609741
6.77129411697388
3.62407302856445
6.58055353164673
12.9703664779663
17.4527721405029
15.5453653335571
5.81759071350098
-2.67036962509155
-2.09814739227295
-1.33518481254578
-2.1935179233551
3.91018390655518
12.6842555999756
16.4990692138672
12.9703664779663
5.05462789535522
3.43333220481873
3.147221326828
0.381481349468231
1.52592539787292
-1.23981440067291
-7.6296272277832
-9.34629344940186
-7.34351634979248
-4.7685170173645
-3.5287024974823
-3.62407302856445
-8.3925895690918
-16.1175880432129
-22.8888816833496
-30.8046188354492
-36.431468963623
-42.2490615844727
-57.7944259643555
-80.5879364013672
-104.525894165039
-143.532363891602
-207.43049621582
-265.129547119141
-307.950836181641
-379.764678955078
-463.213745117188
-481.906341552734
-415.147094726563
-288.876770019531
-148.014770507813
56.7453536987305
316.915649414063
408.566528320313
381.481353759766
424.207275390625
466.742431640625
549.23779296875
712.321044921875
813.604370117188
775.837707519531
592.345153808594
360.499877929688
221.354553222656
170.236053466797
142.387924194336
119.59440612793
76.0101623535156
-17.6435127258301
-146.584213256836
-262.363800048828
-334.463775634766
-359.736907958984
-327.978607177734
-258.835113525391
-189.119384765625
-138.000885009766
-126.747184753418
-153.355499267578
-199.228637695313
-249.774917602539
-285.634155273438
-291.070281982422
-257.786041259766
-196.081420898438
-135.998107910156
-95.1795959472656
-82.3046035766602
-92.0323791503906
-112.918479919434
-143.246246337891
-168.137908935547
-170.045318603516
-150.971252441406
-119.68977355957
-78.012939453125
-42.5351715087891
-34.6194343566895
-47.2083168029785
-70.1925735473633
-98.0407104492188
-115.207366943359
-117.114776611328
-103.190704345703
-76.4870147705078
-53.0259094238281
-34.0472106933594
-24.891658782959
-29.7555465698242
-37.4805450439453
-46.4453544616699
-52.3583183288574
-50.355541229248
-45.1101722717285
-32.9027671813965
-17.4527721405029
-10.6814785003662
-3.62407302856445
5.53147983551025
4.67314672470093
1.04907369613647
-2.47962880134583
-5.62685012817383
0.858333051204681
9.63240432739258
15.35462474823
15.6407356262207
13.0657367706299
14.4009208679199
8.0111083984375
6.48518323898315
12.3981437683105
20.9814739227295
24.6055469512939
31.3768424987793
30.0416564941406
21.3629570007324
13.8286991119385
4.10092449188232
-1.04907369613647
3.24259161949158
14.0194396972656
26.0361022949219
34.3333206176758
36.7175827026367
29.7555465698242
14.4009208679199
2.76573991775513
-2.38425850868225
-7.24814605712891
-6.1037015914917
-3.43333220481873
0.381481349468231
15.9268465042114
24.7009181976318
19.8370304107666
11.5398111343384
-1.23981440067291
-10.204626083374
-9.72777462005615
-10.204626083374
-6.48518323898315
9.34629344940186
21.7444381713867
23.0796222686768
16.7851791381836
4.48240613937378
-5.53147983551025
-13.6379585266113
-20.9814739227295
-14.9731435775757
4.00555419921875
22.6981410980225
36.2407302856445
41.0092468261719
38.8157272338867
37.099063873291
29.6601753234863
18.0249938964844
14.4962921142578
20.2185115814209
30.8046188354492
39.7694320678711
51.1185035705566
69.1434936523438
73.8166427612305
64.2796096801758
58.4620170593262
53.3120193481445
50.7370223999023
63.3259048461914
78.7759017944336
88.9805297851563
105.670333862305
128.36848449707
142.387924194336
141.720321655273
135.139770507813
123.123107910156
111.678665161133
119.880516052246
141.338836669922
157.074951171875
173.001800537109
192.45735168457
199.037902832031
189.977722167969
179.963836669922
171.571243286133
162.797164916992
162.606430053711
169.377716064453
177.865676879883
191.026794433594
203.138824462891
203.234191894531
196.176788330078
185.209197998047
165.181427001953
149.445327758789
143.818466186523
139.622177124023
140.957366943359
142.674026489258
137.428665161133
132.56477355957
122.360145568848
101.187927246094
81.5416412353516
70.1925735473633
58.9388694763184
47.1129493713379
43.679615020752
40.913875579834
35.6685066223145
31.1861019134521
17.9296245574951
-2.1935179233551
-17.357400894165
-29.1833248138428
-41.7722091674805
-48.3527641296387
-48.5435028076172
-55.1240577697754
-65.9009017944336
-68.5712738037109
-66.4731292724609
-70.1925735473633
-77.8221969604492
-86.2147903442383
-97.5638580322266
-109.771263122559
-117.782371520996
-116.828666687012
-117.210144042969
-128.273101806641
-135.235137939453
-138.382369995117
-145.821243286133
-150.685134887695
-153.355499267578
-154.976806640625
-157.265686035156
-157.933288574219
-154.976806640625
-160.508285522461
-167.851791381836
-166.230499267578
-164.036987304688
-160.699020385742
-158.982360839844
-162.129577636719
-164.60920715332
-164.323089599609
-153.73698425293
-150.208282470703
-160.126800537109
-162.987915039063
-167.374938964844
-169.663833618164
-162.129577636719
-158.314758300781
-151.73420715332
-149.54069519043
-155.262908935547
-151.066619873047
-146.488845825195
-146.202728271484
-142.578659057617
-136.188842773438
-124.267555236816
-113.586074829102
-110.152740478516
-111.201812744141
-114.730522155762
-111.487930297852
-102.427742004395
-102.427742004395
-107.673110961914
-102.61848449707
-88.3129348754883
-76.7731246948242
-72.0999755859375
-69.0481262207031
-65.9009017944336
-63.7073860168457
-60.8462753295898
-60.4647941589355
-59.9879455566406
-54.8379440307617
-48.5435028076172
-41.1046180725098
-35.6685066223145
-36.3360977172852
-38.7203598022461
-38.8157272338867
-38.148136138916
-37.099063873291
-30.1370277404785
-20.8861045837402
-14.5916624069214
-6.38981294631958
-0.572222054004669
5.05462789535522
6.48518323898315
-4.1962947845459
-8.20184898376465
-1.04907369613647
3.8148136138916
4.95925760269165
7.82036781311035
12.4935140609741
9.82314491271973
9.9185152053833
16.4990692138672
8.77407169342041
-0.858333051204681
0
-2.1935179233551
0.381481349468231
13.0657367706299
21.839807510376
28.8018417358398
37.8620262145996
40.3416519165039
32.04443359375
30.2323970794678
26.7036952972412
24.7009181976318
17.8342533111572
9.537034034729
12.4935140609741
26.9898052215576
35.382396697998
34.3333206176758
31.7583236694336
27.943510055542
27.657398223877
29.3740653991699
31.5675830841064
36.6222114562988
42.5351715087891
47.9712791442871
45.300910949707
44.6333198547363
52.5490570068359
53.2166481018066
49.4018363952637
41.4860992431641
32.6166572570801
39.9601707458496
48.8296127319336
45.3962821960449
43.4888763427734
46.9222068786621
46.6360969543457
43.2981338500977
45.2055397033691
49.3064651489258
50.6416511535645
53.5027618408203
56.8407211303711
63.5166473388672
75.5333099365234
79.2527542114258
74.6749725341797
68.0944213867188
57.8897972106934
51.4999847412109
49.4972076416016
49.2110939025879
54.170352935791
58.8434982299805
60.7509078979492
58.4620170593262
52.5490570068359
53.7888717651367
55.887020111084
51.9768333435059
50.6416511535645
52.2629470825195
59.0342407226563
64.0888671875
58.9388694763184
49.9740562438965
45.5870208740234
48.2573928833008
56.936092376709
65.5194244384766
63.8027572631836
53.2166481018066
48.1620216369629
49.4972076416016
51.404613494873
52.3583183288574
46.4453544616699
40.1509132385254
39.864803314209
40.5323944091797
45.6823921203613
51.404613494873
48.734245300293
46.5407257080078
49.1157264709473
48.1620216369629
42.2490615844727
40.4370231628418
44.3472061157227
39.197208404541
26.3222141265869
21.0768451690674
21.7444381713867
20.5999927520752
21.4583263397217
25.9407329559326
28.3249912261963
29.6601753234863
28.7064723968506
21.7444381713867
14.5916624069214
15.8314762115479
22.6981410980225
22.9842510223389
20.5999927520752
20.7907333374023
19.074068069458
20.1231422424316
19.2648086547852
13.6379585266113
9.82314491271973
12.0166625976563
14.3055505752563
7.6296272277832
4.95925760269165
8.96481227874756
7.91573810577393
10.1092557907104
17.6435127258301
19.2648086547852
12.1120328903198
8.20184898376465
11.3490705490112
9.72777462005615
4.95925760269165
4.29166507720947
2.76573991775513
-0.190740674734116
-0.9537034034729
-0.762962698936462
-1.81203651428223
-0.667592406272888
0.286111027002335
3.71944332122803
4.67314672470093
1.62129580974579
0
0.9537034034729
5.05462789535522
8.67870044708252
5.05462789535522
-1.23981440067291
-6.96203470230103
-16.9759197235107
-23.1749935150146
-19.074068069458
-13.9240694046021
-14.687032699585
-19.5509204864502
-21.9351787567139
-19.4555492401123
-13.0657367706299
-6.58055353164673
-7.53425693511963
-17.357400894165
-27.1805477142334
-32.5212860107422
-29.5648059844971
-26.7036952972412
-29.7555465698242
-24.1286964416504
-13.6379585266113
-8.77407169342041
-3.33796191215515
4.7685170173645
8.48795986175537
5.91296100616455
2.38425850868225
-2.5749990940094
-5.53147983551025
0
2.67036962509155
-1.14444410800934
-0.47685170173645
-1.23981440067291
-1.52592539787292
0.47685170173645
-0.858333051204681
-0.286111027002335
0.190740674734116
-1.81203651428223
-5.1499981880188
-12.3981437683105
-14.1148099899292
-9.537034034729
-8.96481227874756
-12.1120328903198
-17.8342533111572
-23.9379558563232
-25.7499923706055
-25.0823993682861
-26.0361022949219
-28.8972129821777
-28.8018417358398
-27.5620288848877
-27.2759170532227
-26.3222141265869
-27.7527694702148
-25.3685111999512
-18.0249938964844
-22.4120292663574
-29.4694347381592
-27.5620288848877
-27.3712882995605
-25.6546211242676
-17.0712909698486
-15.8314762115479
-20.1231422424316
-15.1638841629028
-9.9185152053833
-10.5861072540283
-18.787956237793
-38.0527648925781
-45.7777633666992
-38.148136138916
-47.7805404663086
-74.7703475952148
-95.8471908569336
-133.232360839844
-205.046234130859
-274.952697753906
-338.660064697266
-424.970245361328
-514.427612304688
-533.787780761719
-451.101715087891
-316.248046875
-178.914764404297
6.00833129882813
247.962890625
354.682281494141
337.8017578125
397.980438232422
459.112823486328
505.844268798828
653.382202148438
804.925659179688
822.37841796875
653.668334960938
416.005432128906
285.348052978516
244.243438720703
218.970306396484
191.789749145508
136.570327758789
36.2407302856445
-94.9888610839844
-221.926788330078
-303.849914550781
-330.267486572266
-305.089721679688
-230.128631591797
-146.011993408203
-99.3758926391602
-94.1305236816406
-123.504592895508
-176.244384765625
-229.079559326172
-264.652679443359
-266.941589355469
-234.992523193359
-183.206420898438
-121.120330810547
-74.9610900878906
-62.8490524291992
-69.0481262207031
-94.416633605957
-140.099029541016
-166.70735168457
-161.652725219727
-144.009216308594
-114.825889587402
-79.3481216430664
-42.9166526794434
-16.4036979675293
-22.2212886810303
-51.2138710021973
-79.729606628418
-97.182373046875
-97.4684906005859
-86.6916351318359
-71.8138656616211
-47.4944305419922
-22.5074005126953
-8.10647869110107
-6.1037015914917
-15.5453653335571
-25.2731399536133
-29.0879535675049
-31.3768424987793
-30.995361328125
-23.6518440246582
-13.4472179412842
-0.0953703373670578
14.3055505752563
22.7935104370117
25.177770614624
16.4036979675293
4.29166507720947
6.96203470230103
11.1583299636841
2.67036962509155
-3.5287024974823
-2.38425850868225
-1.9074068069458
0.0953703373670578
3.62407302856445
9.25092315673828
20.3138828277588
26.7990646362305
24.2240657806396
25.9407329559326
25.4638805389404
16.4036979675293
16.7851791381836
19.6462898254395
17.9296245574951
22.6981410980225
24.5101776123047
25.2731399536133
37.6712837219238
48.8296127319336
44.7286911010742
29.4694347381592
17.5481433868408
12.588885307312
10.9675893783569
13.5425882339478
15.7361059188843
15.1638841629028
16.6898097991943
20.5999927520752
18.8833274841309
7.43888664245605
-8.96481227874756
-16.5944385528564
-11.8259220123291
-7.91573810577393
-0.0953703373670578
17.5481433868408
31.5675830841064
33.9518394470215
27.1805477142334
14.8777732849121
3.8148136138916
-6.1037015914917
-16.30832862854
-19.7416610717773
-10.9675893783569
9.82314491271973
33.9518394470215
50.4509086608887
51.7860946655273
39.6740608215332
22.4120292663574
7.34351634979248
3.5287024974823
15.2592544555664
32.1398048400879
51.5953521728516
77.9175643920898
93.2721939086914
93.9397811889648
91.6508941650391
81.4462738037109
71.4323883056641
72.0999755859375
70.5740509033203
70.2879409790039
89.7434921264648
112.727745056152
121.69255065918
128.845321655273
128.463851928711
120.166625976563
121.978668212891
122.550888061523
117.782371520996
127.319404602051
148.014770507813
168.137908935547
184.541610717773
196.844375610352
203.806411743164
199.800857543945
187.021240234375
175.672164916992
171.761978149414
170.9990234375
178.628646850586
192.361968994141
192.838821411133
187.784194946289
183.587905883789
173.383270263672
164.704574584961
153.641616821289
142.101806640625
138.286987304688
136.951812744141
142.292541503906
144.486068725586
135.521255493164
129.131439208984
113.872184753418
84.4981231689453
61.99072265625
56.0777587890625
56.4592399597168
43.2981338500977
29.8509159088135
33.8564720153809
34.4286918640137
20.5046234130859
5.1499981880188
-8.96481227874756
-24.891658782959
-38.2435073852539
-49.783317565918
-57.4129447937012
-60.1786842346191
-59.8925743103027
-61.5138702392578
-68.8573837280273
-77.9175643920898
-94.3212661743164
-112.346260070801
-116.733299255371
-118.73607635498
-125.984222412109
-131.134216308594
-130.657363891602
-129.226806640625
-135.711990356445
-145.821243286133
-149.731430053711
-149.922180175781
-151.448104858398
-152.020324707031
-155.453659057617
-167.088836669922
-169.854568481445
-159.077728271484
-154.881439208984
-164.799942016602
-173.860122680664
-173.860122680664
-174.909210205078
-175.099945068359
-169.377716064453
-172.811050415039
-174.623092651367
-165.562911987305
-164.132354736328
-164.799942016602
-160.985137939453
-160.699020385742
-161.461990356445
-159.268463134766
-152.115692138672
-145.058288574219
-142.864776611328
-140.003662109375
-140.671249389648
-145.821243286133
-148.300872802734
-151.829574584961
-147.633285522461
-132.755508422852
-130.943481445313
-131.038848876953
-116.065704345703
-112.155517578125
-119.117553710938
-115.970336914063
-113.299964904785
-115.970336914063
-108.340705871582
-88.8851547241211
-72.6721954345703
-71.7184982299805
-75.9147872924805
-74.7703475952148
-81.3508987426758
-87.5499725341797
-76.2009048461914
-61.99072265625
-50.6416511535645
-35.8592491149902
-29.5648059844971
-34.7148017883301
-36.6222114562988
-39.5786895751953
-46.4453544616699
-43.2027626037598
-36.8129501342773
-32.7120246887207
-25.6546211242676
-23.4611034393311
-25.2731399536133
-19.7416610717773
-16.4990692138672
-23.5564746856689
-21.839807510376
-13.8286991119385
-10.204626083374
-4.95925760269165
-1.23981440067291
3.71944332122803
9.25092315673828
4.57777643203735
1.43055510520935
3.71944332122803
0
-4.48240613937378
-6.29444265365601
-5.53147983551025
4.86388731002808
20.1231422424316
30.0416564941406
36.2407302856445
34.0472106933594
25.6546211242676
27.1805477142334
33.6657295227051
35.2870254516602
37.9573936462402
44.6333198547363
54.0749816894531
57.6990547180176
55.219425201416
54.7425765991211
48.9249839782715
41.2953567504883
41.6768379211426
42.5351715087891
43.0120239257813
45.4916534423828
47.7805404663086
51.404613494873
57.8897972106934
62.6583137512207
59.3203506469727
55.0286865234375
51.3092422485352
41.962947845459
41.962947845459
51.5953521728516
56.2685012817383
64.3749771118164
74.0073852539063
77.7268295288086
77.9175643920898
69.9064559936523
62.3722038269043
57.3175735473633
48.3527641296387
47.4944305419922
55.0286865234375
55.6009063720703
59.4157218933105
55.7916488647461
53.6935005187988
48.9249839782715
42.4398002624512
42.7259140014648
46.4453544616699
44.3472061157227
44.251838684082
48.734245300293
50.5462799072266
53.8842430114746
57.2222023010254
59.0342407226563
58.3666496276855
53.8842430114746
51.3092422485352
55.0286865234375
62.2768325805664
66.1870193481445
64.6610870361328
59.4157218933105
55.4101676940918
51.2138710021973
42.2490615844727
36.7175827026367
37.0036926269531
37.4805450439453
37.9573936462402
38.9110984802246
38.4342460632324
41.962947845459
53.121280670166
58.0805358886719
50.9277610778809
47.2083168029785
49.783317565918
47.1129493713379
47.7805404663086
52.1675758361816
47.4944305419922
47.3990592956543
48.1620216369629
34.4286918640137
28.5157318115234
32.1398048400879
26.7036952972412
17.5481433868408
13.8286991119385
17.9296245574951
23.4611034393311
26.0361022949219
30.5185089111328
32.6166572570801
28.1342506408691
25.2731399536133
27.5620288848877
29.0879535675049
26.7990646362305
23.9379558563232
21.5536975860596
21.1722145080566
20.1231422424316
14.8777732849121
15.35462474823
20.3138828277588
19.5509204864502
21.7444381713867
26.6083240509033
26.4175834655762
20.9814739227295
10.1092557907104
2.5749990940094
3.147221326828
4.95925760269165
4.10092449188232
4.29166507720947
6.00833129882813
0.9537034034729
-5.91296100616455
-1.71666610240936
9.15555286407471
16.5944385528564
13.6379585266113
8.10647869110107
8.29721927642822
9.34629344940186
7.53425693511963
1.23981440067291
-4.00555419921875
-3.24259161949158
-2.00277709960938
0.858333051204681
6.38981294631958
5.43610954284668
5.53147983551025
7.82036781311035
4.7685170173645
4.48240613937378
2.1935179233551
-10.9675893783569
-21.2675857543945
-21.7444381713867
-22.3166599273682
-24.0333251953125
-22.125919342041
-16.30832862854
-10.5861072540283
-4.7685170173645
3.8148136138916
3.91018390655518
-4.7685170173645
-9.72777462005615
-8.58333015441895
-10.4907369613647
-14.0194396972656
-6.58055353164673
1.81203651428223
-2.1935179233551
-8.0111083984375
-11.5398111343384
-17.6435127258301
-20.409252166748
-18.3111057281494
-22.9842510223389
-34.4286918640137
-39.5786895751953
-35.0962867736816
-28.8018417358398
-26.226842880249
-20.7907333374023
-16.2129573822021
-22.6027698516846
-28.5157318115234
-27.1805477142334
-24.7962875366211
-20.6953639984131
-14.5916624069214
-10.1092557907104
-14.1148099899292
-18.5972156524658
-13.3518476486206
-7.34351634979248
-10.3953666687012
-16.30832862854
-14.1148099899292
-10.7768487930298
-9.9185152053833
-4.29166507720947
-2.5749990940094
-4.10092449188232
-0.381481349468231
1.81203651428223
1.04907369613647
-2.28888821601868
-8.58333015441895
-10.2999963760376
-6.86666440963745
-5.34073925018311
-8.0111083984375
-10.8722190856934
-9.63240432739258
-9.537034034729
-10.1092557907104
-5.43610954284668
-2.76573991775513
-2.67036962509155
-3.5287024974823
-7.43888664245605
-6.19907188415527
-4.29166507720947
-12.0166625976563
-17.6435127258301
-17.5481433868408
-24.1286964416504
-31.0907306671143
-26.6083240509033
-22.0305480957031
-25.4638805389404
-32.4259147644043
-35.1916542053223
-29.8509159088135
-27.3712882995605
-27.8481388092041
-26.0361022949219
-25.4638805389404
-21.839807510376
-19.4555492401123
-19.360179901123
-22.5074005126953
-34.2379531860352
-40.1509132385254
-40.4370231628418
-54.170352935791
-76.6777496337891
-88.0268249511719
-115.398109436035
-187.211975097656
-256.927703857422
-311.384155273438
-393.784118652344
-481.334106445313
-493.636871337891
-407.422088623047
-267.895294189453
-116.065704345703
83.6397857666016
331.316558837891
438.13134765625
419.820220947266
472.083190917969
516.9072265625
546.567443847656
672.265502929688
931.100646972656
784.32568359375
608.272033691406
379.478576660156
264.557312011719
221.640670776367
184.732345581055
154.690689086914
105.479598999023
5.91296100616455
-129.608291625977
-255.211029052734
-334.273040771484
-353.251739501953
-314.340637207031
-238.425842285156
-162.224945068359
-115.398109436035
-110.248115539551
-142.769393920898
-195.223083496094
-245.387878417969
-272.091583251953
-266.369354248047
-233.085113525391
-179.296234130859
-118.354591369629
-70.4786834716797
-53.2166481018066
-68.6666412353516
-105.098114013672
-143.246246337891
-164.799942016602
-164.51383972168
-141.815689086914
-108.722190856934
-74.8657150268555
-43.7749862670898
-34.2379531860352
-44.0610961914063
-56.0777587890625
-68.9527587890625
-80.0157165527344
-84.9749755859375
-78.2990493774414
-58.4620170593262
-39.4833221435547
-28.6111011505127
-17.4527721405029
-10.1092557907104
-13.9240694046021
-24.7962875366211
-33.4749908447266
-32.9981384277344
-29.9462871551514
-25.6546211242676
-13.256477355957
-4.67314672470093
-0.0953703373670578
9.72777462005615
12.1120328903198
8.10647869110107
7.6296272277832
5.91296100616455
6.96203470230103
12.8749961853027
14.7824029922485
14.687032699585
16.5944385528564
12.1120328903198
3.43333220481873
4.10092449188232
7.43888664245605
9.9185152053833
20.3138828277588
25.4638805389404
15.4499950408936
6.48518323898315
6.38981294631958
9.44166374206543
12.7796258926392
13.1611070632935
17.2620315551758
31.4722118377686
39.5786895751953
33.9518394470215
24.6055469512939
16.30832862854
9.15555286407471
4.10092449188232
7.43888664245605
14.5916624069214
23.4611034393311
34.4286918640137
37.6712837219238
33.0935096740723
19.6462898254395
6.58055353164673
3.71944332122803
0
-2.76573991775513
6.19907188415527
16.7851791381836
25.5592517852783
38.6249885559082
44.251838684082
37.5759124755859
25.7499923706055
8.48795986175537
-4.38703584671021
-5.05462789535522
1.04907369613647
12.1120328903198
25.8453617095947
40.7231369018555
46.8268356323242
33.9518394470215
23.3657341003418
17.2620315551758
4.1962947845459
-3.05185079574585
0.572222054004669
12.9703664779663
23.9379558563232
44.6333198547363
54.170352935791
54.6472053527832
49.2110939025879
39.1018409729004
27.943510055542
28.3249912261963
34.810173034668
45.1101722717285
69.9064559936523
96.4194107055664
110.724967956543
116.924034118652
119.022186279297
115.779594421387
111.201812744141
110.915702819824
113.20458984375
124.172180175781
148.491622924805
171.761978149414
183.969390869141
193.506423950195
199.037902832031
191.026794433594
174.527725219727
166.70735168457
170.140686035156
173.383270263672
175.672164916992
179.773086547852
188.0703125
198.65641784668
197.511978149414
184.827713012695
168.996246337891
148.873107910156
136.856430053711
140.480514526367
147.061065673828
151.257354736328
153.355499267578
150.017547607422
135.330505371094
112.918479919434
94.6073760986328
76.296272277832
61.0370178222656
57.6990547180176
52.9305381774902
46.0638732910156
40.7231369018555
32.9027671813965
24.0333251953125
12.302773475647
-4.00555419921875
-21.1722145080566
-35.0009155273438
-48.6388740539551
-49.1157264709473
-42.1536903381348
-53.3120193481445
-66.6638641357422
-71.7184982299805
-82.876823425293
-95.6564483642578
-106.433296203613
-113.109222412109
-114.444404602051
-117.114776611328
-120.929588317871
-122.83699798584
-123.790702819824
-123.9814453125
-126.937919616699
-133.709213256836
-137.810134887695
-139.526809692383
-142.960144042969
-145.630508422852
-149.159210205078
-156.979583740234
-160.794387817383
-157.074951171875
-152.592544555664
-152.211059570313
-152.115692138672
-152.115692138672
-159.649948120117
-166.61198425293
-166.421249389648
-166.516616821289
-170.617538452148
-172.238830566406
-164.51383972168
-154.309204101563
-150.875885009766
-150.875885009766
-151.257354736328
-149.445327758789
-148.586990356445
-150.971252441406
-146.202728271484
-136.093475341797
-132.755508422852
-135.235137939453
-135.807357788086
-126.842552185059
-118.831443786621
-119.022186279297
-113.20458984375
-110.152740478516
-114.730522155762
-113.20458984375
-108.149963378906
-101.283302307129
-90.5064544677734
-83.2583084106445
-78.6805267333984
-70.6694183349609
-64.8518295288086
-64.1842422485352
-71.8138656616211
-78.394416809082
-71.0509033203125
-63.7073860168457
-61.99072265625
-55.7916488647461
-51.2138710021973
-47.3990592956543
-41.0092468261719
-39.4833221435547
-38.5296173095703
-40.4370231628418
-49.2110939025879
-49.0203552246094
-43.2981338500977
-39.5786895751953
-27.4666576385498
-16.4036979675293
-15.9268465042114
-17.0712909698486
-18.3111057281494
-20.409252166748
-23.1749935150146
-25.2731399536133
-19.1694374084473
-11.5398111343384
-8.67870044708252
-0.667592406272888
9.63240432739258
10.204626083374
2.95648050308228
-1.9074068069458
-4.10092449188232
-6.48518323898315
-4.57777643203735
5.05462789535522
15.35462474823
18.0249938964844
17.738883972168
16.6898097991943
13.8286991119385
14.5916624069214
13.9240694046021
5.91296100616455
5.62685012817383
16.5944385528564
25.8453617095947
36.7175827026367
48.066650390625
47.3990592956543
40.3416519165039
39.2925796508789
35.4777679443359
28.9925842285156
30.4231376647949
33.6657295227051
37.4805450439453
45.0148010253906
50.4509086608887
56.5546112060547
63.8981285095215
62.6583137512207
53.4073905944824
49.3064651489258
49.9740562438965
51.6907234191895
58.4620170593262
62.1814613342285
59.9879455566406
60.274055480957
57.8897972106934
54.5518341064453
50.355541229248
41.5814666748047
45.4916534423828
61.7999801635742
67.5222015380859
66.7592391967773
73.0536804199219
75.9147872924805
69.3342361450195
63.7073860168457
62.4675712585449
62.1814613342285
63.5166473388672
65.5194244384766
66.2823867797852
64.5657196044922
60.7509078979492
59.6064605712891
56.2685012817383
51.2138710021973
54.0749816894531
51.6907234191895
41.0092468261719
37.5759124755859
44.6333198547363
51.404613494873
51.0231323242188
48.9249839782715
44.8240585327148
45.1101722717285
47.8759117126465
44.8240585327148
43.2027626037598
43.3935050964355
41.0092468261719
43.1073951721191
50.4509086608887
57.8897972106934
63.5166473388672
61.8953514099121
58.1759071350098
53.5981292724609
42.630542755127
39.7694320678711
44.1564674377441
41.8675804138184
42.5351715087891
43.8703575134277
40.8185043334961
44.5379486083984
44.8240585327148
37.2898025512695
39.1018409729004
43.2027626037598
36.1453590393066
29.8509159088135
30.8999900817871
28.5157318115234
23.3657341003418
23.9379558563232
22.6981410980225
18.2157344818115
20.1231422424316
22.8888816833496
22.2212886810303
24.9870281219482
26.4175834655762
26.226842880249
26.7036952972412
21.1722145080566
13.8286991119385
10.1092557907104
8.86944198608398
12.0166625976563
13.5425882339478
15.1638841629028
17.357400894165
17.8342533111572
20.1231422424316
22.3166599273682
24.5101776123047
26.1314735412598
27.0851764678955
31.1861019134521
30.5185089111328
20.1231422424316
10.4907369613647
4.10092449188232
-0.286111027002335
-0.762962698936462
-1.43055510520935
-3.33796191215515
-3.5287024974823
-7.15277528762817
-12.588885307312
-16.4036979675293
-16.9759197235107
-7.53425693511963
-2.38425850868225
-8.96481227874756
-12.2074031829834
-14.7824029922485
-18.8833274841309
-13.9240694046021
-10.3953666687012
-16.022216796875
-22.8888816833496
-21.4583263397217
-14.3055505752563
-17.6435127258301
-24.7962875366211
-26.0361022949219
-28.2296199798584
-26.7036952972412
-17.1666603088379
-10.3953666687012
-14.8777732849121
-15.1638841629028
-7.53425693511963
-7.72499752044678
-4.1962947845459
4.29166507720947
7.53425693511963
14.9731435775757
18.5972156524658
12.0166625976563
8.86944198608398
6.58055353164673
-4.00555419921875
-15.2592544555664
-12.588885307312
-6.48518323898315
-4.29166507720947
2.38425850868225
-0.572222054004669
-9.9185152053833
-11.4444408416748
-17.5481433868408
-21.839807510376
-18.5972156524658
-27.7527694702148
-34.810173034668
-20.8861045837402
-10.1092557907104
-9.63240432739258
-8.48795986175537
-9.15555286407471
-12.2074031829834
-13.7333288192749
-13.3518476486206
-13.1611070632935
-16.6898097991943
-19.9324016571045
-16.9759197235107
-13.256477355957
-11.5398111343384
-14.5916624069214
-21.839807510376
-27.4666576385498
-32.8073959350586
-37.1944313049316
-38.9110984802246
-34.810173034668
-23.5564746856689
-11.2537002563477
-4.86388731002808
-10.3953666687012
-19.2648086547852
-22.4120292663574
-28.4203605651855
-44.251838684082
-58.2712783813477
-64.5657196044922
-78.7759017944336
-102.427742004395
-130.848098754883
-174.336975097656
-213.343444824219
-235.469375610352
-293.549896240234
-387.680419921875
-426.496154785156
-389.206359863281
-300.893432617188
-172.715682983398
10.5861072540283
278.099914550781
451.387817382813
424.588745117188
392.830444335938
410.283203125
464.358184814453
599.497985839844
712.321044921875
708.697021484375
590.437744140625
397.408203125
226.886032104492
139.812911987305
100.901817321777
82.3999710083008
61.323127746582
-7.53425693511963
-107.577743530273
-207.144378662109
-291.547119140625
-334.940643310547
-327.215637207031
-281.247131347656
-220.591598510742
-159.840682983398
-123.790702819824
-133.041625976563
-164.895324707031
-201.708267211914
-242.812881469727
-267.704528808594
-256.164733886719
-214.583267211914
-157.265686035156
-101.283302307129
-71.2416458129883
-73.1490478515625
-93.9397811889648
-120.166625976563
-146.584213256836
-165.658279418945
-166.70735168457
-145.43977355957
-107.005523681641
-70.8601608276367
-47.3990592956543
-34.3333206176758
-37.8620262145996
-53.5027618408203
-77.2499771118164
-85.8333053588867
-84.1166381835938
-59.9879455566406
-39.197208404541
-27.3712882995605
-6.77129411697388
7.72499752044678
-2.00277709960938
-17.9296245574951
-26.9898052215576
-29.0879535675049
-22.125919342041
-12.588885307312
5.34073925018311
26.7990646362305
34.1425819396973
36.5268402099609
37.6712837219238
29.7555465698242
23.4611034393311
28.8018417358398
37.8620262145996
39.197208404541
33.2842483520508
31.0907306671143
33.9518394470215
37.4805450439453
37.6712837219238
29.7555465698242
23.6518440246582
34.2379531860352
43.5842437744141
41.962947845459
47.3036880493164
43.7749862670898
28.0388793945313
27.943510055542
33.761100769043
34.2379531860352
34.7148017883301
38.4342460632324
46.3499870300293
49.8786888122559
46.5407257080078
37.8620262145996
24.9870281219482
15.9268465042114
17.9296245574951
23.9379558563232
30.8046188354492
37.8620262145996
41.5814666748047
46.2546157836914
47.2083168029785
38.0527648925781
25.7499923706055
15.1638841629028
6.77129411697388
3.5287024974823
13.6379585266113
21.839807510376
19.360179901123
25.6546211242676
28.4203605651855
13.1611070632935
3.91018390655518
6.1037015914917
0.858333051204681
-4.57777643203735
1.43055510520935
13.5425882339478
27.8481388092041
40.4370231628418
43.9657249450684
36.5268402099609
24.0333251953125
12.8749961853027
4.67314672470093
4.29166507720947
12.2074031829834
24.7009181976318
37.2898025512695
47.6851692199707
54.2657241821289
53.8842430114746
49.9740562438965
43.3935050964355
36.7175827026367
37.5759124755859
46.7314682006836
59.701831817627
73.0536804199219
89.9342269897461
102.999969482422
100.711082458496
96.4194107055664
94.8934860229492
88.8851547241211
92.4138565063477
104.812004089355
115.684219360352
133.518478393555
151.829574584961
161.843460083008
164.799942016602
164.036987304688
161.938842773438
156.693466186523
153.260131835938
154.881439208984
154.118469238281
157.361053466797
164.51383972168
166.802719116211
166.421249389648
161.843460083008
152.878662109375
137.333282470703
118.44995880127
111.201812744141
109.771263122559
112.823112487793
124.839775085449
129.417556762695
122.550888061523
110.248115539551
90.6018218994141
73.5305328369141
63.2305335998535
52.9305381774902
49.5925750732422
45.5870208740234
34.810173034668
30.5185089111328
25.6546211242676
13.6379585266113
-1.43055510520935
-18.9786968231201
-33.4749908447266
-44.4425773620605
-50.6416511535645
-52.9305381774902
-55.6009063720703
-56.5546112060547
-60.5601654052734
-74.2934951782227
-88.5990447998047
-99.0897827148438
-104.812004089355
-107.291633605957
-114.444404602051
-117.305519104004
-113.20458984375
-110.915702819824
-111.774040222168
-121.883293151855
-130.657363891602
-134.186065673828
-141.434219360352
-139.717544555664
-135.807357788086
-140.003662109375
-143.15087890625
-145.535140991211
-144.581436157227
-140.671249389648
-140.957366943359
-141.243469238281
-140.480514526367
-144.390701293945
-150.017547607422
-147.633285522461
-144.676803588867
-148.110137939453
-147.251800537109
-147.44255065918
-149.54069519043
-145.058288574219
-138.382369995117
-130.657363891602
-124.458290100098
-124.553665161133
-127.128662109375
-128.273101806641
-125.125885009766
-121.311073303223
-126.651809692383
-135.044403076172
-135.425888061523
-126.747184753418
-117.686996459961
-113.967559814453
-108.149963378906
-104.525894165039
-109.00830078125
-112.918479919434
-110.438850402832
-103.76293182373
-94.6073760986328
-85.9286727905273
-84.1166381835938
-80.778678894043
-74.4842376708984
-76.4870147705078
-78.2990493774414
-74.198127746582
-72.0999755859375
-72.6721954345703
-71.9092330932617
-68.4759063720703
-63.8027572631836
-59.8925743103027
-60.3694267272949
-61.7999801635742
-54.6472053527832
-54.3610954284668
-45.7777633666992
-33.8564720153809
-25.5592517852783
-20.5999927520752
-15.8314762115479
-2.67036962509155
5.91296100616455
-4.48240613937378
-15.8314762115479
-19.1694374084473
-17.738883972168
-14.5916624069214
-9.82314491271973
-0.286111027002335
8.3925895690918
11.1583299636841
11.1583299636841
8.3925895690918
2.76573991775513
1.9074068069458
6.86666440963745
14.8777732849121
23.9379558563232
28.8972129821777
31.5675830841064
33.2842483520508
29.6601753234863
21.5536975860596
17.2620315551758
18.5972156524658
20.5046234130859
21.9351787567139
27.4666576385498
37.6712837219238
47.5897979736328
56.2685012817383
57.3175735473633
50.4509086608887
47.2083168029785
43.5842437744141
36.9083213806152
34.7148017883301
35.0009155273438
38.148136138916
45.2055397033691
48.8296127319336
49.5925750732422
51.2138710021973
55.7916488647461
57.6990547180176
53.2166481018066
53.7888717651367
56.0777587890625
55.4101676940918
55.887020111084
51.3092422485352
48.4481315612793
49.9740562438965
45.9685020446777
41.5814666748047
40.913875579834
42.1536903381348
41.2953567504883
36.1453590393066
35.8592491149902
41.1999855041504
50.6416511535645
56.1731300354004
48.2573928833008
41.962947845459
43.2981338500977
40.5323944091797
40.3416519165039
44.1564674377441
46.6360969543457
53.3120193481445
58.7481307983398
57.5083160400391
57.4129447937012
57.7944259643555
50.9277610778809
46.6360969543457
51.404613494873
53.121280670166
53.5027618408203
55.0286865234375
52.1675758361816
52.1675758361816
57.4129447937012
60.0833129882813
55.3147964477539
45.300910949707
42.2490615844727
45.0148010253906
44.9194297790527
38.8157272338867
34.810173034668
42.0583190917969
45.300910949707
42.5351715087891
42.3444290161133
35.2870254516602
26.0361022949219
25.5592517852783
25.7499923706055
30.5185089111328
43.2981338500977
47.1129493713379
42.7259140014648
45.6823921203613
48.3527641296387
47.017578125
46.4453544616699
39.7694320678711
37.0036926269531
41.0092468261719
38.4342460632324
35.8592491149902
38.9110984802246
37.2898025512695
31.2814712524414
33.0935096740723
35.9546165466309
27.2759170532227
17.357400894165
16.4990692138672
22.5074005126953
27.3712882995605
23.2703628540039
16.2129573822021
11.9212923049927
11.4444408416748
17.1666603088379
20.1231422424316
14.5916624069214
9.72777462005615
9.34629344940186
9.9185152053833
7.72499752044678
2.09814739227295
1.81203651428223
1.62129580974579
-4.48240613937378
-6.00833129882813
-6.38981294631958
-10.1092557907104
-6.6759238243103
-2.28888821601868
-4.95925760269165
-9.63240432739258
-16.5944385528564
-22.4120292663574
-21.4583263397217
-9.9185152053833
4.86388731002808
6.00833129882813
5.53147983551025
8.3925895690918
3.05185079574585
2.00277709960938
2.76573991775513
1.81203651428223
5.81759071350098
6.38981294631958
8.10647869110107
12.7796258926392
12.2074031829834
12.3981437683105
12.8749961853027
6.58055353164673
1.43055510520935
5.43610954284668
12.302773475647
13.6379585266113
14.3055505752563
15.35462474823
10.1092557907104
0.190740674734116
-4.7685170173645
-1.62129580974579
2.00277709960938
1.81203651428223
-2.09814739227295
-7.82036781311035
-10.2999963760376
-12.8749961853027
-19.8370304107666
-23.8425846099854
-27.4666576385498
-34.3333206176758
-30.4231376647949
-20.2185115814209
-15.4499950408936
-13.4472179412842
-13.8286991119385
-12.4935140609741
-5.53147983551025
-6.96203470230103
-15.7361059188843
-17.2620315551758
-19.5509204864502
-20.7907333374023
-10.9675893783569
-2.38425850868225
-2.28888821601868
-7.15277528762817
-21.0768451690674
-41.2953567504883
-53.5027618408203
-62.1814613342285
-81.9231185913086
-103.190704345703
-128.36848449707
-180.917541503906
-240.810104370117
-284.680450439453
-349.150817871094
-436.891540527344
-465.9794921875
-388.538757324219
-233.275848388672
-77.0592346191406
87.9314498901367
352.774871826172
545.327575683594
541.703552246094
545.804443359375
565.736877441406
553.529479980469
621.147033691406
728.62939453125
745.605346679688
602.263671875
364.696166992188
184.732345581055
99.8527450561523
58.652759552002
33.8564720153809
10.5861072540283
-46.7314682006836
-144.676803588867
-259.788818359375
-358.020263671875
-400.364685058594
-390.541534423828
-342.951751708984
-261.314727783203
-190.263824462891
-160.41291809082
-160.031433105469
-193.601791381836
-245.101776123047
-284.108245849609
-304.040649414063
-288.972137451172
-244.052703857422
-194.650863647461
-142.960144042969
-103.190704345703
-96.4194107055664
-116.828666687012
-150.685134887695
-179.58235168457
-191.408279418945
-186.162902832031
-160.699020385742
-120.83422088623
-82.5907135009766
-57.8897972106934
-46.8268356323242
-51.404613494873
-70.9555358886719
-87.7407150268555
-91.5555267333984
-88.1221923828125
-76.0101623535156
-54.6472053527832
-33.0935096740723
-21.1722145080566
-19.7416610717773
-24.5101776123047
-29.5648059844971
-29.3740653991699
-28.5157318115234
-22.125919342041
-8.10647869110107
-1.23981440067291
2.95648050308228
9.9185152053833
10.5861072540283
8.96481227874756
8.10647869110107
9.06018257141113
15.2592544555664
20.1231422424316
21.7444381713867
27.3712882995605
34.9055442810059
37.9573936462402
36.0499877929688
32.1398048400879
33.2842483520508
39.197208404541
40.5323944091797
44.251838684082
54.170352935791
51.7860946655273
40.7231369018555
39.1018409729004
42.1536903381348
41.1046180725098
35.0962867736816
35.1916542053223
45.300910949707
49.9740562438965
47.017578125
41.962947845459
32.9027671813965
24.0333251953125
15.2592544555664
6.86666440963745
8.10647869110107
16.4990692138672
24.3194370269775
28.4203605651855
27.7527694702148
24.7009181976318
18.4064750671387
5.81759071350098
-8.86944198608398
-15.6407356262207
-16.2129573822021
-9.72777462005615
5.05462789535522
17.1666603088379
23.4611034393311
27.657398223877
21.5536975860596
4.95925760269165
-6.58055353164673
-6.77129411697388
-2.67036962509155
3.33796191215515
9.72777462005615
19.6462898254395
36.9083213806152
43.4888763427734
35.9546165466309
27.0851764678955
18.8833274841309
15.0685138702393
17.0712909698486
24.5101776123047
39.3879508972168
58.1759071350098
73.6259002685547
80.3018264770508
83.8305282592773
84.4981231689453
74.8657150268555
66.0916442871094
69.8110885620117
81.16015625
99.2805252075195
118.640701293945
134.949035644531
142.960144042969
140.385147094727
136.474960327148
134.66291809082
135.330505371094
138.573104858398
140.099029541016
150.112915039063
172.620315551758
192.934204101563
200.9453125
199.133270263672
193.411056518555
183.397171020508
172.524948120117
166.516616821289
164.132354736328
168.424026489258
181.299011230469
192.45735168457
195.604568481445
190.931427001953
179.58235168457
162.797164916992
143.913848876953
134.186065673828
132.183288574219
128.654586791992
127.891624450684
127.700881958008
123.027740478516
112.060150146484
95.9425582885742
83.5444183349609
73.2444229125977
56.2685012817383
46.0638732910156
46.5407257080078
40.1509132385254
30.1370277404785
23.9379558563232
15.5453653335571
6.19907188415527
-2.00277709960938
-12.302773475647
-31.3768424987793
-52.3583183288574
-59.6064605712891
-62.7536849975586
-70.0018310546875
-74.6749725341797
-83.2583084106445
-91.0786743164063
-94.9888610839844
-104.335151672363
-116.256446838379
-127.891624450684
-131.324951171875
-122.074035644531
-119.308296203613
-127.319404602051
-132.850875854492
-136.66569519043
-146.011993408203
-158.886993408203
-167.756423950195
-173.192535400391
-176.816604614258
-173.478652954102
-172.143463134766
-178.914764404297
-178.151794433594
-170.903656005859
-169.473098754883
-166.802719116211
-163.750869750977
-167.661056518555
-164.60920715332
-157.742538452148
-159.745315551758
-161.843460083008
-159.936065673828
-160.126800537109
-155.83512878418
-144.772171020508
-140.194396972656
-141.529586791992
-138.85920715332
-134.090698242188
-136.570327758789
-140.003662109375
-136.093475341797
-134.66291809082
-134.472183227539
-124.744407653809
-112.155517578125
-108.245338439941
-112.441627502441
-113.20458984375
-109.96199798584
-110.915702819824
-109.389778137207
-104.716636657715
-107.482376098633
-109.866630554199
-101.855522155762
-88.0268249511719
-77.7268295288086
-73.4351654052734
-75.8194198608398
-85.7379379272461
-87.7407150268555
-81.6370086669922
-78.4897918701172
-73.4351654052734
-67.1407165527344
-61.0370178222656
-53.6935005187988
-50.7370223999023
-53.2166481018066
-51.3092422485352
-43.0120239257813
-44.9194297790527
-51.6907234191895
-51.1185035705566
-48.6388740539551
-38.5296173095703
-22.6981410980225
-14.3055505752563
-12.8749961853027
-16.7851791381836
-23.6518440246582
-23.5564746856689
-21.3629570007324
-18.9786968231201
-9.63240432739258
-2.47962880134583
1.33518481254578
13.3518476486206
23.8425846099854
18.787956237793
10.204626083374
12.302773475647
15.4499950408936
16.7851791381836
20.3138828277588
26.8944358825684
40.8185043334961
50.7370223999023
41.7722091674805
30.3277683258057
32.5212860107422
39.3879508972168
42.4398002624512
42.1536903381348
41.8675804138184
46.9222068786621
52.453685760498
51.3092422485352
53.2166481018066
56.0777587890625
53.3120193481445
55.4101676940918
54.4564628601074
46.3499870300293
44.3472061157227
50.0694274902344
58.652759552002
62.3722038269043
62.6583137512207
69.6203460693359
73.7212753295898
66.7592391967773
58.9388694763184
53.7888717651367
51.2138710021973
57.2222023010254
67.6175689697266
69.1434936523438
62.2768325805664
59.5110931396484
57.7944259643555
48.066650390625
37.8620262145996
35.9546165466309
40.913875579834
42.0583190917969
47.7805404663086
54.3610954284668
59.0342407226563
61.5138702392578
57.0314636230469
47.5897979736328
42.9166526794434
40.6277656555176
41.0092468261719
40.7231369018555
37.9573936462402
37.4805450439453
40.0555419921875
47.3036880493164
52.453685760498
52.1675758361816
49.9740562438965
49.4018363952637
50.0694274902344
49.0203552246094
49.783317565918
51.7860946655273
51.404613494873
54.2657241821289
58.5573883056641
53.6935005187988
44.4425773620605
40.5323944091797
37.5759124755859
34.5240631103516
37.1944313049316
41.7722091674805
41.6768379211426
39.864803314209
38.3388748168945
34.9055442810059
32.2351760864258
30.995361328125
27.943510055542
23.4611034393311
22.3166599273682
23.9379558563232
21.1722145080566
18.1203651428223
16.5944385528564
20.0277709960938
31.6629524230957
37.3851737976074
33.761100769043
30.5185089111328
26.8944358825684
20.7907333374023
17.0712909698486
18.4064750671387
19.074068069458
19.7416610717773
27.0851764678955
27.1805477142334
18.4064750671387
16.5944385528564
20.9814739227295
28.8972129821777
31.0907306671143
25.4638805389404
27.8481388092041
30.5185089111328
26.4175834655762
21.7444381713867
24.0333251953125
33.4749908447266
35.1916542053223
32.6166572570801
32.3305435180664
26.3222141265869
18.4064750671387
17.4527721405029
19.6462898254395
18.6925868988037
21.7444381713867
23.8425846099854
17.5481433868408
14.2101802825928
8.20184898376465
-7.0574049949646
-14.7824029922485
-10.3953666687012
-5.05462789535522
-4.48240613937378
-8.0111083984375
-5.1499981880188
6.1037015914917
8.3925895690918
-1.23981440067291
-7.34351634979248
-6.77129411697388
-6.1037015914917
-9.44166374206543
-14.2101802825928
-9.537034034729
-1.9074068069458
2.00277709960938
10.7768487930298
10.204626083374
0.381481349468231
-4.10092449188232
-2.8611102104187
2.95648050308228
0.0953703373670578
-12.1120328903198
-19.2648086547852
-14.4962921142578
-1.52592539787292
-2.67036962509155
-12.8749961853027
-14.7824029922485
-20.3138828277588
-23.1749935150146
-19.7416610717773
-23.3657341003418
-24.6055469512939
-17.9296245574951
-9.25092315673828
-3.43333220481873
-9.15555286407471
-15.4499950408936
-10.204626083374
-4.1962947845459
-4.38703584671021
-3.33796191215515
0.190740674734116
-0.858333051204681
-2.5749990940094
-0.190740674734116
0.286111027002335
-0.762962698936462
1.14444410800934
6.38981294631958
4.95925760269165
-3.24259161949158
-8.0111083984375
-11.635181427002
-7.15277528762817
0.0953703373670578
-4.10092449188232
-5.05462789535522
-1.04907369613647
-2.67036962509155
4.00555419921875
12.7796258926392
7.91573810577393
2.5749990940094
-1.62129580974579
-7.34351634979248
-11.4444408416748
-13.6379585266113
-5.91296100616455
-0.0953703373670578
-4.57777643203735
-5.05462789535522
-4.38703584671021
-13.6379585266113
-22.7935104370117
-21.3629570007324
-24.1286964416504
-26.8944358825684
-27.0851764678955
-30.3277683258057
-25.4638805389404
-17.357400894165
-12.2074031829834
-18.5018463134766
-42.8212814331055
-61.1323890686035
-67.7129440307617
-83.3536758422852
-108.626815795898
-132.46940612793
-173.383270263672
-242.049926757813
-307.187866210938
-364.314697265625
-440.2294921875
-518.242431640625
-523.392395019531
-418.866546630859
-260.361022949219
-108.531448364258
84.1166381835938
338.087860107422
457.110046386719
446.810028076172
501.171142578125
539.891479492188
562.494262695313
678.750732421875
802.827514648438
796.723815917969
602.359069824219
365.459136962891
242.049926757813
189.596237182617
151.73420715332
124.744407653809
79.729606628418
-16.8805503845215
-150.017547607422
-273.808258056641
-353.919342041016
-374.423950195313
-338.660064697266
-267.036956787109
-185.97216796875
-131.897186279297
-124.458290100098
-141.815689086914
-189.786972045898
-245.76936340332
-281.342498779297
-291.165649414063
-262.554534912109
-203.615676879883
-147.156433105469
-104.62126159668
-81.827751159668
-85.7379379272461
-108.722190856934
-143.723098754883
-177.102722167969
-184.064758300781
-166.898101806641
-139.908294677734
-101.855522155762
-63.8981285095215
-43.4888763427734
-41.4860992431641
-53.0259094238281
-71.8138656616211
-86.9777526855469
-86.3101577758789
-71.2416458129883
-55.6009063720703
-38.8157272338867
-17.4527721405029
-6.48518323898315
-8.58333015441895
-12.6842555999756
-16.9759197235107
-25.2731399536133
-30.8046188354492
-24.5101776123047
-14.5916624069214
-3.91018390655518
6.58055353164673
9.34629344940186
5.62685012817383
2.47962880134583
0.858333051204681
-3.8148136138916
-3.24259161949158
2.1935179233551
6.38981294631958
14.4009208679199
19.074068069458
21.1722145080566
26.7036952972412
31.3768424987793
35.9546165466309
43.7749862670898
50.355541229248
55.6962776184082
62.6583137512207
60.9416465759277
53.2166481018066
43.679615020752
32.2351760864258
33.761100769043
44.6333198547363
51.1185035705566
56.1731300354004
54.9333152770996
45.5870208740234
38.3388748168945
32.9981384277344
23.4611034393311
14.1148099899292
13.5425882339478
17.5481433868408
23.7472152709961
29.7555465698242
34.4286918640137
40.5323944091797
36.6222114562988
19.7416610717773
3.8148136138916
-7.53425693511963
-11.5398111343384
-4.86388731002808
9.15555286407471
20.5999927520752
29.9462871551514
36.8129501342773
27.1805477142334
8.3925895690918
-7.0574049949646
-17.5481433868408
-15.5453653335571
-0.572222054004669
19.4555492401123
31.9490642547607
37.8620262145996
46.4453544616699
49.0203552246094
40.8185043334961
24.6055469512939
6.19907188415527
-0.858333051204681
8.29721927642822
24.5101776123047
36.7175827026367
51.4999847412109
68.2851638793945
71.6231231689453
57.6990547180176
37.1944313049316
28.0388793945313
30.8999900817871
33.6657295227051
44.4425773620605
70.0018310546875
94.5120086669922
108.912925720215
120.548110961914
125.316627502441
123.790702819824
123.599960327148
117.114776611328
115.588851928711
134.758285522461
152.974029541016
163.560134887695
179.48698425293
190.073089599609
190.263824462891
187.307342529297
181.871231079102
175.958282470703
167.470321655273
159.268463134766
164.704574584961
182.252716064453
197.988830566406
198.370300292969
190.16845703125
182.348083496094
171.761978149414
161.175872802734
155.930511474609
154.786056518555
154.213836669922
157.170318603516
160.126800537109
152.687911987305
139.145324707031
124.458290100098
107.673110961914
86.8823776245117
67.0453491210938
61.99072265625
65.3286819458008
59.6064605712891
50.4509086608887
43.1073951721191
34.1425819396973
22.125919342041
7.91573810577393
-6.1037015914917
-18.9786968231201
-29.3740653991699
-40.8185043334961
-52.9305381774902
-58.2712783813477
-58.4620170593262
-61.7999801635742
-68.4759063720703
-73.9120101928711
-80.0157165527344
-92.8907089233398
-105.574966430664
-109.294410705566
-107.577743530273
-111.487930297852
-122.741630554199
-131.801803588867
-137.428665161133
-145.2490234375
-147.156433105469
-146.107360839844
-154.595321655273
-156.788833618164
-156.02587890625
-166.421249389648
-166.993469238281
-157.551803588867
-159.363830566406
-167.470321655273
-169.282348632813
-165.372161865234
-164.799942016602
-169.282348632813
-171.952728271484
-176.053649902344
-179.010131835938
-172.334197998047
-168.80549621582
-173.860122680664
-175.099945068359
-167.565689086914
-162.3203125
-165.944396972656
-160.41291809082
-148.682357788086
-151.066619873047
-157.265686035156
-156.693466186523
-150.589767456055
-142.578659057617
-133.899963378906
-123.123107910156
-119.499038696289
-123.695327758789
-126.842552185059
-127.319404602051
-123.695327758789
-120.166625976563
-120.357368469238
-120.071258544922
-113.109222412109
-101.283302307129
-95.5610809326172
-96.3240432739258
-93.6536712646484
-89.4573822021484
-89.2666397094727
-89.4573822021484
-87.1684875488281
-78.8712692260742
-70.7647933959961
-68.2851638793945
-64.9472045898438
-61.5138702392578
-56.5546112060547
-53.9796104431152
-61.0370178222656
-64.6610870361328
-56.0777587890625
-43.2027626037598
-35.0009155273438
-30.4231376647949
-24.1286964416504
-21.1722145080566
-25.9407329559326
-32.8073959350586
-36.8129501342773
-33.1888771057129
-22.6027698516846
-12.2074031829834
-2.8611102104187
4.57777643203735
8.48795986175537
10.2999963760376
13.1611070632935
14.4009208679199
10.3953666687012
3.71944332122803
1.14444410800934
2.5749990940094
3.62407302856445
9.9185152053833
22.7935104370117
36.6222114562988
44.251838684082
41.8675804138184
35.6685066223145
28.6111011505127
30.70924949646
39.1018409729004
36.3360977172852
35.0962867736816
38.8157272338867
36.2407302856445
39.0064697265625
44.4425773620605
39.1018409729004
33.8564720153809
37.7666549682617
40.1509132385254
40.2462844848633
45.4916534423828
49.9740562438965
57.7944259643555
66.2823867797852
61.7999801635742
56.0777587890625
55.6009063720703
54.8379440307617
57.1268348693848
60.274055480957
63.4212760925293
64.9472045898438
61.5138702392578
60.6555366516113
62.8490524291992
59.7972030639648
54.7425765991211
52.1675758361816
53.121280670166
55.6962776184082
53.5027618408203
56.936092376709
67.0453491210938
67.4268264770508
65.7101669311523
65.5194244384766
60.1786842346191
58.652759552002
60.4647941589355
56.936092376709
49.4972076416016
50.4509086608887
55.1240577697754
57.2222023010254
62.0860900878906
62.9444236755371
58.8434982299805
54.6472053527832
53.9796104431152
65.2333145141602
75.7240524291992
76.1055297851563
70.0018310546875
60.274055480957
57.8897972106934
57.2222023010254
49.4018363952637
46.9222068786621
47.9712791442871
44.5379486083984
42.1536903381348
44.0610961914063
48.8296127319336
52.2629470825195
53.7888717651367
51.9768333435059
47.017578125
40.2462844848633
32.6166572570801
34.5240631103516
38.0527648925781
35.6685066223145
36.3360977172852
34.1425819396973
29.4694347381592
29.8509159088135
28.6111011505127
27.0851764678955
28.3249912261963
26.8944358825684
28.6111011505127
35.4777679443359
34.3333206176758
28.5157318115234
30.0416564941406
34.1425819396973
35.5731353759766
34.3333206176758
27.4666576385498
24.3194370269775
26.6083240509033
23.0796222686768
13.0657367706299
5.91296100616455
14.4009208679199
27.1805477142334
29.278694152832
29.5648059844971
29.278694152832
26.1314735412598
24.0333251953125
21.3629570007324
20.8861045837402
21.1722145080566
16.8805503845215
12.8749961853027
11.4444408416748
10.5861072540283
9.63240432739258
9.06018257141113
6.48518323898315
3.147221326828
5.34073925018311
8.96481227874756
12.7796258926392
12.6842555999756
10.5861072540283
18.4064750671387
20.9814739227295
15.0685138702393
15.7361059188843
10.4907369613647
-1.81203651428223
-3.147221326828
0.381481349468231
-2.67036962509155
-3.24259161949158
-5.7222204208374
-17.2620315551758
-17.6435127258301
-8.29721927642822
-4.48240613937378
-4.48240613937378
-8.10647869110107
-8.77407169342041
-7.43888664245605
-7.91573810577393
-5.34073925018311
-6.00833129882813
-14.687032699585
-22.6981410980225
-24.2240657806396
-20.7907333374023
-13.7333288192749
-10.6814785003662
-10.6814785003662
-5.1499981880188
-3.91018390655518
-12.2074031829834
-20.7907333374023
-22.6027698516846
-20.7907333374023
-24.1286964416504
-27.1805477142334
-30.8046188354492
-35.0009155273438
-29.9462871551514
-27.8481388092041
-32.3305435180664
-29.0879535675049
-24.2240657806396
-23.8425846099854
-20.5046234130859
-16.4990692138672
-17.738883972168
-14.7824029922485
-6.19907188415527
-5.05462789535522
-7.24814605712891
-5.81759071350098
-4.38703584671021
-2.8611102104187
-7.0574049949646
-15.35462474823
-18.1203651428223
-15.9268465042114
-16.4036979675293
-20.2185115814209
-17.5481433868408
-10.3953666687012
-3.147221326828
2.76573991775513
8.58333015441895
16.6898097991943
17.0712909698486
12.6842555999756
11.7305517196655
3.5287024974823
-3.71944332122803
-4.10092449188232
-8.29721927642822
-8.77407169342041
-2.09814739227295
4.38703584671021
2.1935179233551
-11.9212923049927
-22.5074005126953
-28.7064723968506
-32.9981384277344
-29.5648059844971
-26.226842880249
-19.7416610717773
-13.4472179412842
-18.3111057281494
-20.5999927520752
-20.409252166748
-25.8453617095947
-27.7527694702148
-25.4638805389404
-24.6055469512939
-22.9842510223389
-18.2157344818115
-13.8286991119385
-9.63240432739258
-10.7768487930298
-22.7935104370117
-40.8185043334961
-63.1351661682129
-78.5851593017578
-85.9286727905273
-99.6620025634766
-111.964782714844
-131.706436157227
-185.018463134766
-259.502685546875
-333.3193359375
-409.424865722656
-494.590576171875
-543.324829101563
-486.197998046875
-343.810089111328
-190.263824462891
-34.7148017883301
201.231414794922
411.713745117188
434.316528320313
452.532257080078
527.97021484375
545.422973632813
612.754455566406
757.717346191406
841.261779785156
739.6923828125
494.304473876953
312.623962402344
239.951782226563
196.749008178711
166.039764404297
135.711990356445
65.9962768554688
-54.2657241821289
-189.214752197266
-296.315643310547
-349.913787841797
-341.807312011719
-282.868438720703
-201.708267211914
-134.56755065918
-103.476821899414
-113.299964904785
-152.687911987305
-199.705490112305
-240.333251953125
-264.366577148438
-259.502685546875
-223.548080444336
-168.71012878418
-117.114776611328
-83.4490509033203
-74.3888626098633
-95.084228515625
-131.992553710938
-163.560134887695
-181.58512878418
-179.296234130859
-151.73420715332
-113.967559814453
-77.4407196044922
-44.0610961914063
-29.4694347381592
-35.8592491149902
-50.0694274902344
-66.9499816894531
-78.9666442871094
-75.5333099365234
-60.5601654052734
-43.0120239257813
-16.8805503845215
7.6296272277832
13.0657367706299
10.204626083374
1.14444410800934
-11.7305517196655
-14.4962921142578
-16.4036979675293
-16.1175880432129
-8.3925895690918
-2.09814739227295
1.81203651428223
1.52592539787292
0.762962698936462
2.1935179233551
1.14444410800934
-4.1962947845459
-7.82036781311035
-2.38425850868225
7.72499752044678
16.1175880432129
18.2157344818115
21.839807510376
26.7990646362305
23.6518440246582
25.3685111999512
36.5268402099609
43.8703575134277
48.3527641296387
50.7370223999023
44.4425773620605
33.4749908447266
22.125919342041
19.2648086547852
27.3712882995605
38.7203598022461
48.2573928833008
51.2138710021973
50.2601699829102
51.6907234191895
52.2629470825195
45.0148010253906
31.9490642547607
25.3685111999512
25.2731399536133
29.7555465698242
38.3388748168945
47.6851692199707
54.170352935791
49.5925750732422
39.1018409729004
27.657398223877
11.8259220123291
1.9074068069458
4.10092449188232
15.6407356262207
28.9925842285156
34.810173034668
34.1425819396973
29.9462871551514
26.0361022949219
18.9786968231201
4.00555419921875
-4.00555419921875
-0.667592406272888
5.05462789535522
15.5453653335571
32.9981384277344
42.1536903381348
36.9083213806152
20.1231422424316
0
-5.7222204208374
-8.67870044708252
-12.9703664779663
0.667592406272888
23.3657341003418
44.1564674377441
58.0805358886719
57.4129447937012
53.8842430114746
49.0203552246094
37.099063873291
28.8018417358398
32.9027671813965
43.2027626037598
56.0777587890625
73.8166427612305
91.0786743164063
103.76293182373
111.774040222168
112.155517578125
109.103668212891
109.771263122559
106.624038696289
109.199035644531
130.561996459961
154.595321655273
171.952728271484
184.923095703125
187.593460083008
185.78141784668
187.688827514648
182.348083496094
171.189758300781
170.140686035156
174.241607666016
180.059204101563
195.509201049805
205.332336425781
197.607345581055
186.067535400391
181.489761352539
175.099945068359
160.699020385742
150.399032592773
153.641616821289
157.837905883789
154.976806640625
149.159210205078
142.769393920898
134.376815795898
118.163848876953
98.0407104492188
81.4462738037109
67.2360916137695
59.2249794006348
52.5490570068359
41.4860992431641
36.431468963623
35.0962867736816
23.4611034393311
4.00555419921875
-9.72777462005615
-24.5101776123047
-45.0148010253906
-53.3120193481445
-51.1185035705566
-52.8351669311523
-55.4101676940918
-63.4212760925293
-77.4407196044922
-87.1684875488281
-97.849967956543
-115.874961853027
-131.897186279297
-139.622177124023
-140.385147094727
-143.436996459961
-154.213836669922
-157.361053466797
-155.739761352539
-164.60920715332
-171.666610717773
-172.524948120117
-177.29345703125
-186.353637695313
-190.645309448242
-184.636978149414
-185.304565429688
-193.315673828125
-190.645309448242
-184.732345581055
-184.923095703125
-186.735122680664
-189.882339477539
-190.073089599609
-185.590682983398
-182.824935913086
-181.108276367188
-175.767532348633
-171.857345581055
-170.236053466797
-160.41291809082
-150.303649902344
-150.303649902344
-152.306427001953
-150.112915039063
-151.352722167969
-152.592544555664
-147.061065673828
-144.772171020508
-144.581436157227
-133.232360839844
-123.027740478516
-123.9814453125
-118.44995880127
-105.574966430664
-105.002746582031
-111.964782714844
-113.967559814453
-115.207366943359
-116.065704345703
-107.005523681641
-93.2721939086914
-87.3592300415039
-84.4981231689453
-80.6833038330078
-77.5360870361328
-76.2009048461914
-74.198127746582
-69.2388687133789
-67.2360916137695
-70.3833084106445
-69.1434936523438
-57.5083160400391
-47.5897979736328
-55.1240577697754
-52.3583183288574
-48.6388740539551
-55.7916488647461
-56.5546112060547
-46.7314682006836
-43.2981338500977
-44.6333198547363
-42.8212814331055
-31.7583236694336
-18.6925868988037
-14.4962921142578
-14.9731435775757
-16.30832862854
-18.787956237793
-19.5509204864502
-18.0249938964844
-11.635181427002
-0.858333051204681
8.29721927642822
15.5453653335571
21.5536975860596
21.0768451690674
17.738883972168
14.0194396972656
11.9212923049927
18.5972156524658
25.3685111999512
27.1805477142334
35.0009155273438
43.5842437744141
43.9657249450684
42.3444290161133
37.8620262145996
23.9379558563232
13.6379585266113
19.5509204864502
30.6138782501221
35.9546165466309
39.9601707458496
47.6851692199707
54.8379440307617
55.887020111084
53.3120193481445
53.3120193481445
51.4999847412109
51.1185035705566
61.8953514099121
74.0073852539063
80.111083984375
84.7842330932617
86.8823776245117
85.5471954345703
80.0157165527344
68.6666412353516
53.7888717651367
39.7694320678711
38.7203598022461
49.2110939025879
51.3092422485352
46.1592445373535
50.355541229248
55.6009063720703
51.1185035705566
47.4944305419922
53.2166481018066
61.8953514099121
61.99072265625
59.3203506469727
58.652759552002
55.9823913574219
57.7944259643555
57.8897972106934
50.9277610778809
49.9740562438965
54.3610954284668
53.5981292724609
55.3147964477539
58.7481307983398
57.1268348693848
58.652759552002
63.039794921875
62.5629425048828
59.701831817627
59.1296119689941
55.219425201416
53.5027618408203
57.5083160400391
54.0749816894531
52.8351669311523
60.1786842346191
65.6147918701172
66.1870193481445
64.6610870361328
64.4703521728516
65.4240493774414
61.0370178222656
53.5981292724609
51.6907234191895
48.5435028076172
44.0610961914063
45.9685020446777
53.3120193481445
60.3694267272949
57.6990547180176
48.2573928833008
44.7286911010742
43.2981338500977
38.9110984802246
34.0472106933594
32.04443359375
38.6249885559082
46.8268356323242
47.5897979736328
42.9166526794434
48.066650390625
58.652759552002
51.9768333435059
40.913875579834
40.3416519165039
38.7203598022461
32.8073959350586
31.5675830841064
34.4286918640137
29.9462871551514
22.3166599273682
23.5564746856689
25.4638805389404
23.5564746856689
26.0361022949219
25.8453617095947
20.5046234130859
21.9351787567139
21.4583263397217
16.2129573822021
14.4009208679199
15.0685138702393
14.0194396972656
10.8722190856934
11.8259220123291
11.3490705490112
6.77129411697388
4.86388731002808
2.95648050308228
-1.14444410800934
-10.2999963760376
-16.30832862854
-9.25092315673828
1.62129580974579
7.91573810577393
10.8722190856934
12.6842555999756
12.9703664779663
7.82036781311035
-1.71666610240936
-2.95648050308228
-0.0953703373670578
-5.43610954284668
-10.5861072540283
-13.0657367706299
-13.7333288192749
-12.4935140609741
-14.7824029922485
-14.0194396972656
-13.1611070632935
-16.9759197235107
-14.5916624069214
-10.6814785003662
-14.7824029922485
-23.0796222686768
-26.4175834655762
-21.0768451690674
-18.4064750671387
-24.2240657806396
-30.995361328125
-33.1888771057129
-28.5157318115234
-24.4148063659668
-31.6629524230957
-41.1046180725098
-39.2925796508789
-28.9925842285156
-23.4611034393311
-23.9379558563232
-22.9842510223389
-24.6055469512939
-25.4638805389404
-14.687032699585
-2.28888821601868
-1.52592539787292
0.858333051204681
1.14444410800934
-8.67870044708252
-10.2999963760376
-7.0574049949646
-7.34351634979248
-5.24536848068237
1.04907369613647
7.72499752044678
8.58333015441895
4.1962947845459
-0.858333051204681
-7.0574049949646
-11.7305517196655
-11.635181427002
-4.48240613937378
1.33518481254578
-1.33518481254578
-2.28888821601868
0.762962698936462
0.572222054004669
-0.858333051204681
-1.52592539787292
-2.1935179233551
-3.5287024974823
-2.00277709960938
-4.7685170173645
-4.7685170173645
-14.687032699585
-20.5046234130859
-13.4472179412842
-9.44166374206543
-9.15555286407471
-4.00555419921875
-8.58333015441895
-17.1666603088379
-12.8749961853027
-5.91296100616455
-4.38703584671021
-3.24259161949158
-0.572222054004669
-1.52592539787292
-4.67314672470093
-4.67314672470093
-8.96481227874756
-21.2675857543945
-36.431468963623
-49.8786888122559
-59.4157218933105
-74.4842376708984
-97.2777481079102
-122.169403076172
-159.840682983398
-215.536972045898
-264.175842285156
-306.710998535156
-386.154510498047
-462.736877441406
-463.499847412109
-390.923034667969
-263.317504882813
-110.629592895508
113.013854980469
372.039703369141
440.324859619141
385.773010253906
396.931365966797
431.360046386719
528.828552246094
678.369201660156
741.313659667969
692.960876464844
536.744262695313
333.223968505859
199.991607666016
143.436996459961
117.114776611328
104.144409179688
69.2388687133789
-13.5425882339478
-126.07958984375
-241.096221923828
-321.588775634766
-346.480438232422
-322.82861328125
-264.748077392578
-189.024017333984
-125.888847351074
-110.820335388184
-139.145324707031
-189.310119628906
-244.815658569336
-279.053619384766
-275.52490234375
-242.622146606445
-196.749008178711
-141.243469238281
-94.8934860229492
-81.9231185913086
-89.6481170654297
-111.678665161133
-144.676803588867
-161.843460083008
-162.892547607422
-153.355499267578
-119.308296203613
-72.4814605712891
-40.913875579834
-31.4722118377686
-32.3305435180664
-40.1509132385254
-59.9879455566406
-79.5388641357422
-86.4055252075195
-78.5851593017578
-61.0370178222656
-37.6712837219238
-9.537034034729
6.00833129882813
6.1037015914917
6.00833129882813
4.38703584671021
-0.381481349468231
-4.7685170173645
-8.67870044708252
-11.635181427002
-5.53147983551025
9.25092315673828
14.0194396972656
9.72777462005615
10.8722190856934
15.1638841629028
17.357400894165
21.4583263397217
26.3222141265869
32.1398048400879
36.1453590393066
33.8564720153809
28.3249912261963
22.0305480957031
25.5592517852783
32.9027671813965
32.4259147644043
32.1398048400879
34.6194343566895
38.9110984802246
41.1046180725098
37.099063873291
29.5648059844971
18.1203651428223
8.10647869110107
11.7305517196655
28.3249912261963
40.7231369018555
42.2490615844727
42.630542755127
40.1509132385254
31.2814712524414
22.5074005126953
16.1175880432129
12.2074031829834
16.6898097991943
25.8453617095947
38.6249885559082
54.170352935791
54.4564628601074
44.7286911010742
39.9601707458496
31.0907306671143
19.360179901123
10.6814785003662
11.1583299636841
21.839807510376
34.0472106933594
44.0610961914063
45.9685020446777
39.864803314209
28.2296199798584
7.15277528762817
-9.63240432739258
-14.5916624069214
-9.63240432739258
12.7796258926392
30.70924949646
29.0879535675049
35.1916542053223
37.5759124755859
16.9759197235107
0.47685170173645
-4.10092449188232
-4.1962947845459
5.62685012817383
16.30832862854
28.8018417358398
47.9712791442871
60.6555366516113
66.854606628418
69.6203460693359
65.2333145141602
58.1759071350098
51.4999847412109
50.832389831543
59.9879455566406
72.2907180786133
90.4110794067383
110.915702819824
115.111999511719
106.337928771973
100.329597473145
95.084228515625
89.5527496337891
91.1740417480469
102.713859558105
118.354591369629
134.56755065918
150.017547607422
156.693466186523
160.126800537109
163.274017333984
152.878662109375
143.15087890625
150.875885009766
155.739761352539
155.453659057617
164.51383972168
169.568466186523
165.467544555664
164.895324707031
162.129577636719
151.352722167969
141.529586791992
132.56477355957
125.030517578125
129.799026489258
138.95458984375
137.524032592773
132.183288574219
125.316627502441
110.820335388184
89.8388595581055
70.4786834716797
58.652759552002
52.5490570068359
50.7370223999023
41.6768379211426
25.6546211242676
13.9240694046021
7.53425693511963
8.20184898376465
0.0953703373670578
-17.738883972168
-32.1398048400879
-47.4944305419922
-58.9388694763184
-57.5083160400391
-49.9740562438965
-52.3583183288574
-64.756462097168
-74.7703475952148
-89.3620071411133
-103.572189331055
-108.054595947266
-115.970336914063
-122.741630554199
-123.123107910156
-127.319404602051
-131.134216308594
-127.891624450684
-125.698104858398
-130.848098754883
-140.671249389648
-148.586990356445
-155.739761352539
-164.132354736328
-163.655502319336
-156.121246337891
-152.401809692383
-154.786056518555
-159.363830566406
-158.410140991211
-156.311981201172
-159.936065673828
-159.554580688477
-153.164764404297
-156.884216308594
-162.034210205078
-155.072174072266
-149.349945068359
-144.962921142578
-138.000885009766
-133.899963378906
-130.27587890625
-126.842552185059
-122.264778137207
-119.117553710938
-116.924034118652
-113.967559814453
-115.016632080078
-111.201812744141
-107.86385345459
-106.719413757324
-99.0897827148438
-95.084228515625
-90.5064544677734
-82.0184936523438
-87.1684875488281
-100.52033996582
-106.147186279297
-107.95922088623
-109.00830078125
-102.904594421387
-94.9888610839844
-92.2231216430664
-90.3157119750977
-88.4083023071289
-90.8879318237305
-97.182373046875
-100.138854980469
-97.3731155395508
-93.5583038330078
-89.0758972167969
-76.5823822021484
-63.8981285095215
-64.6610870361328
-62.3722038269043
-53.0259094238281
-54.3610954284668
-60.9416465759277
-61.99072265625
-59.2249794006348
-54.7425765991211
-42.7259140014648
-22.6981410980225
-10.6814785003662
-10.3953666687012
-11.2537002563477
-11.1583299636841
-11.3490705490112
-12.588885307312
-12.302773475647
-4.10092449188232
7.0574049949646
16.6898097991943
24.4148063659668
23.5564746856689
23.3657341003418
27.5620288848877
24.7009181976318
20.1231422424316
22.3166599273682
30.3277683258057
42.5351715087891
48.1620216369629
47.4944305419922
50.9277610778809
49.1157264709473
40.1509132385254
31.5675830841064
29.278694152832
29.9462871551514
22.6027698516846
19.5509204864502
28.9925842285156
35.4777679443359
44.0610961914063
53.6935005187988
52.3583183288574
43.679615020752
32.2351760864258
24.1286964416504
28.9925842285156
37.0036926269531
35.4777679443359
38.0527648925781
46.8268356323242
48.5435028076172
45.9685020446777
40.6277656555176
36.3360977172852
39.5786895751953
41.7722091674805
42.9166526794434
46.6360969543457
45.8731346130371
45.3962821960449
49.8786888122559
54.2657241821289
57.3175735473633
59.4157218933105
57.8897972106934
51.404613494873
43.2027626037598
45.1101722717285
58.7481307983398
67.2360916137695
66.5684967041016
63.3259048461914
56.3638725280762
50.5462799072266
51.9768333435059
52.8351669311523
50.832389831543
51.1185035705566
53.8842430114746
55.4101676940918
53.7888717651367
49.4018363952637
47.7805404663086
46.0638732910156
41.3907279968262
38.0527648925781
38.7203598022461
40.0555419921875
40.7231369018555
45.5870208740234
50.9277610778809
54.170352935791
54.8379440307617
50.5462799072266
50.5462799072266
49.4972076416016
44.8240585327148
46.1592445373535
41.962947845459
34.7148017883301
39.6740608215332
44.5379486083984
40.5323944091797
39.0064697265625
41.7722091674805
41.3907279968262
38.148136138916
36.8129501342773
38.5296173095703
40.913875579834
39.0064697265625
32.3305435180664
30.3277683258057
34.810173034668
34.6194343566895
33.9518394470215
40.1509132385254
36.1453590393066
23.1749935150146
24.6055469512939
27.657398223877
18.0249938964844
17.4527721405029
29.0879535675049
28.6111011505127
22.125919342041
23.8425846099854
24.7009181976318
24.9870281219482
26.7036952972412
23.5564746856689
22.6027698516846
22.8888816833496
21.3629570007324
25.7499923706055
27.943510055542
19.5509204864502
12.2074031829834
9.44166374206543
3.147221326828
2.1935179233551
7.82036781311035
6.86666440963745
4.7685170173645
4.7685170173645
2.1935179233551
-1.62129580974579
-0.762962698936462
4.1962947845459
2.95648050308228
3.147221326828
8.67870044708252
6.38981294631958
1.14444410800934
2.28888821601868
3.62407302856445
1.43055510520935
6.19907188415527
18.4064750671387
20.409252166748
13.8286991119385
9.44166374206543
0.9537034034729
-6.48518323898315
-5.34073925018311
-2.09814739227295
-3.05185079574585
-8.29721927642822
-12.1120328903198
-12.4935140609741
-13.256477355957
-12.588885307312
-12.9703664779663
-13.4472179412842
-10.7768487930298
-9.72777462005615
-13.7333288192749
-16.30832862854
-13.4472179412842
-12.6842555999756
-10.4907369613647
-5.62685012817383
-4.00555419921875
-0.762962698936462
4.38703584671021
8.20184898376465
7.0574049949646
1.14444410800934
0
4.57777643203735
3.91018390655518
-4.48240613937378
-13.4472179412842
-18.9786968231201
-13.6379585266113
-3.71944332122803
-0.667592406272888
0.0953703373670578
-2.00277709960938
-6.96203470230103
-10.9675893783569
-12.588885307312
-12.2074031829834
-15.2592544555664
-21.9351787567139
-22.4120292663574
-16.022216796875
-12.0166625976563
-12.3981437683105
-12.9703664779663
-12.9703664779663
-16.8805503845215
-22.8888816833496
-24.9870281219482
-28.2296199798584
-30.0416564941406
-20.6953639984131
-13.9240694046021
-14.3055505752563
-9.25092315673828
-3.43333220481873
-0.858333051204681
-4.10092449188232
-12.2074031829834
-14.2101802825928
-10.2999963760376
-11.2537002563477
-12.1120328903198
-12.7796258926392
-26.7036952972412
-41.2953567504883
-45.300910949707
-50.9277610778809
-67.8083114624023
-96.9916381835938
-128.177734375
-175.099945068359
-244.338806152344
-302.896209716797
-360.976745605469
-442.232269287109
-504.795196533203
-487.342437744141
-375.759124755859
-217.635116577148
-68.2851638793945
145.43977355957
399.029510498047
476.088745117188
463.118377685547
510.61279296875
528.160949707031
568.693359375
896.481201171875
771.16455078125
738.547912597656
531.975769042969
319.204528808594
220.973083496094
174.146240234375
123.9814453125
75.1518249511719
14.2101802825928
-87.8360824584961
-214.201782226563
-318.441558837891
-373.184143066406
-377.952667236328
-332.937866210938
-250.633255004883
-180.440689086914
-146.202728271484
-145.153656005859
-177.102722167969
-224.120300292969
-266.369354248047
-286.683227539063
-273.808258056641
-239.188812255859
-190.454574584961
-139.812911987305
-100.424964904785
-80.8740463256836
-93.2721939086914
-122.455513000488
-149.826797485352
-168.137908935547
-164.990692138672
-146.488845825195
-120.357368469238
-83.3536758422852
-51.3092422485352
-41.962947845459
-48.2573928833008
-63.039794921875
-81.827751159668
-90.5064544677734
-89.7434921264648
-78.2036819458008
-51.2138710021973
-25.9407329559326
-8.3925895690918
0.47685170173645
-5.91296100616455
-14.8777732849121
-22.5074005126953
-30.8999900817871
-31.7583236694336
-27.0851764678955
-15.5453653335571
-3.43333220481873
-0.190740674734116
0.190740674734116
-1.52592539787292
-2.8611102104187
0
-0.9537034034729
-5.91296100616455
-2.09814739227295
9.44166374206543
15.9268465042114
17.9296245574951
21.2675857543945
22.7935104370117
22.125919342041
20.6953639984131
20.0277709960938
23.0796222686768
26.7990646362305
29.8509159088135
32.2351760864258
26.9898052215576
18.4064750671387
15.2592544555664
22.7935104370117
39.0064697265625
51.2138710021973
57.7944259643555
56.5546112060547
50.6416511535645
42.5351715087891
29.8509159088135
22.4120292663574
20.1231422424316
24.6055469512939
36.2407302856445
42.4398002624512
42.5351715087891
42.2490615844727
43.1073951721191
42.2490615844727
28.3249912261963
7.0574049949646
-5.05462789535522
-6.48518323898315
4.7685170173645
24.6055469512939
39.0064697265625
45.8731346130371
48.4481315612793
41.6768379211426
29.4694347381592
19.074068069458
8.96481227874756
0.47685170173645
-1.04907369613647
6.38981294631958
22.2212886810303
41.8675804138184
51.1185035705566
49.6879463195801
45.3962821960449
36.431468963623
25.9407329559326
18.787956237793
24.9870281219482
43.7749862670898
59.8925743103027
74.8657150268555
88.1221923828125
87.4546051025391
74.2934951782227
60.5601654052734
50.1647987365723
45.8731346130371
57.2222023010254
79.8249740600586
100.615707397461
122.074035644531
138.191619873047
139.526809692383
135.330505371094
125.411994934082
112.918479919434
108.245338439941
106.910148620605
117.305519104004
141.338836669922
153.260131835938
159.745315551758
167.374938964844
164.51383972168
162.3203125
164.418472290039
162.41569519043
162.034210205078
173.192535400391
187.211975097656
195.032348632813
201.803634643555
200.086975097656
186.449020385742
170.9990234375
156.598098754883
145.821243286133
136.379592895508
129.322174072266
132.850875854492
141.720321655273
145.2490234375
142.197174072266
133.232360839844
117.019409179688
102.046264648438
92.2231216430664
76.9638671875
61.1323890686035
58.0805358886719
58.1759071350098
53.0259094238281
46.2546157836914
31.5675830841064
12.302773475647
-1.14444410800934
-13.8286991119385
-26.7990646362305
-35.5731353759766
-42.8212814331055
-47.8759117126465
-51.0231323242188
-58.4620170593262
-67.5222015380859
-79.4434967041016
-89.2666397094727
-96.7055282592773
-113.109222412109
-123.886070251465
-121.69255065918
-124.649032592773
-133.899963378906
-143.818466186523
-151.257354736328
-158.028656005859
-166.802719116211
-173.192535400391
-175.958282470703
-173.955505371094
-170.426803588867
-168.519393920898
-170.236053466797
-175.958282470703
-178.819381713867
-180.154571533203
-177.29345703125
-170.522171020508
-165.849014282227
-159.936065673828
-157.361053466797
-160.985137939453
-162.892547607422
-162.987915039063
-163.941619873047
-162.797164916992
-156.216613769531
-150.589767456055
-147.34716796875
-148.491622924805
-152.306427001953
-154.690689086914
-158.314758300781
-160.794387817383
-159.363830566406
-157.170318603516
-156.02587890625
-150.112915039063
-137.428665161133
-125.411994934082
-115.970336914063
-109.675888061523
-107.100891113281
-104.716636657715
-103.190704345703
-106.051818847656
-109.294410705566
-102.809226989746
-92.4138565063477
-90.8879318237305
-92.1277465820313
-91.8416366577148
-94.6073760986328
-93.6536712646484
-91.0786743164063
-92.986083984375
-92.7953414916992
-84.1166381835938
-69.0481262207031
-59.701831817627
-55.4101676940918
-53.2166481018066
-52.7397994995117
-47.017578125
-46.6360969543457
-50.355541229248
-43.679615020752
-38.9110984802246
-38.8157272338867
-32.4259147644043
-23.8425846099854
-19.8370304107666
-20.5999927520752
-22.7935104370117
-24.9870281219482
-21.4583263397217
-15.6407356262207
-12.302773475647
-2.76573991775513
5.43610954284668
7.53425693511963
6.00833129882813
-1.81203651428223
-5.62685012817383
-7.72499752044678
-12.9703664779663
-15.0685138702393
-8.77407169342041
2.95648050308228
10.6814785003662
11.9212923049927
12.9703664779663
17.8342533111572
20.5999927520752
19.7416610717773
19.6462898254395
22.125919342041
29.9462871551514
36.9083213806152
39.3879508972168
41.2953567504883
45.7777633666992
55.6962776184082
59.1296119689941
51.404613494873
44.8240585327148
43.0120239257813
47.2083168029785
51.2138710021973
46.8268356323242
51.3092422485352
62.5629425048828
58.7481307983398
50.0694274902344
43.679615020752
37.2898025512695
39.5786895751953
45.0148010253906
49.783317565918
58.652759552002
65.9962768554688
71.3370132446289
70.7647933959961
63.4212760925293
61.7999801635742
60.6555366516113
53.8842430114746
54.170352935791
58.1759071350098
57.3175735473633
56.7453536987305
56.4592399597168
55.6009063720703
54.0749816894531
45.1101722717285
33.4749908447266
33.8564720153809
42.4398002624512
47.7805404663086
53.2166481018066
57.6036834716797
59.9879455566406
65.7101669311523
71.0509033203125
69.9064559936523
68.2851638793945
69.7157211303711
68.7620162963867
67.9990539550781
75.4379425048828
79.9203414916992
72.0999755859375
71.6231231689453
74.198127746582
70.4786834716797
70.5740509033203
66.7592391967773
56.7453536987305
53.121280670166
56.2685012817383
55.219425201416
52.7397994995117
53.0259094238281
46.0638732910156
42.1536903381348
43.9657249450684
36.6222114562988
30.4231376647949
32.2351760864258
33.0935096740723
33.9518394470215
34.6194343566895
29.1833248138428
23.7472152709961
25.3685111999512
28.1342506408691
29.8509159088135
32.7120246887207
31.9490642547607
31.0907306671143
35.382396697998
36.9083213806152
35.7638778686523
36.3360977172852
33.5703582763672
32.04443359375
35.382396697998
36.431468963623
35.8592491149902
36.1453590393066
32.1398048400879
29.0879535675049
29.0879535675049
22.3166599273682
14.4962921142578
17.8342533111572
23.3657341003418
21.9351787567139
21.5536975860596
26.226842880249
27.3712882995605
25.7499923706055
21.9351787567139
18.1203651428223
22.5074005126953
24.3194370269775
17.5481433868408
15.4499950408936
15.2592544555664
8.77407169342041
5.62685012817383
6.1037015914917
6.29444265365601
5.91296100616455
1.33518481254578
0.190740674734116
2.00277709960938
0
-0.762962698936462
1.81203651428223
0.0953703373670578
1.14444410800934
7.82036781311035
6.00833129882813
1.33518481254578
2.38425850868225
2.28888821601868
0.9537034034729
-0.190740674734116
-2.8611102104187
-0.572222054004669
7.0574049949646
5.05462789535522
-6.86666440963745
-13.3518476486206
-8.3925895690918
-2.28888821601868
0.190740674734116
4.10092449188232
3.05185079574585
-2.28888821601868
-7.53425693511963
-14.1148099899292
-21.5536975860596
-22.4120292663574
-14.4009208679199
-16.4990692138672
-23.5564746856689
-23.7472152709961
-27.7527694702148
-28.1342506408691
-25.0823993682861
-29.1833248138428
-30.8046188354492
-25.6546211242676
-24.3194370269775
-25.5592517852783
-19.074068069458
-10.2999963760376
-9.82314491271973
-13.0657367706299
-16.5944385528564
-22.5074005126953
-17.5481433868408
-4.95925760269165
-1.23981440067291
1.81203651428223
6.58055353164673
5.24536848068237
0.9537034034729
-1.81203651428223
-4.57777643203735
-11.4444408416748
-17.2620315551758
-14.4009208679199
-3.91018390655518
1.62129580974579
-4.67314672470093
-13.7333288192749
-15.1638841629028
-10.1092557907104
-9.537034034729
-15.8314762115479
-21.9351787567139
-28.0388793945313
-30.1370277404785
-28.4203605651855
-27.943510055542
-19.7416610717773
-11.2537002563477
-13.256477355957
-17.357400894165
-22.4120292663574
-23.7472152709961
-15.7361059188843
-15.1638841629028
-21.839807510376
-20.5046234130859
-18.5018463134766
-20.2185115814209
-18.6925868988037
-17.5481433868408
-22.2212886810303
-25.7499923706055
-24.1286964416504
-23.4611034393311
-26.0361022949219
-27.0851764678955
-20.6953639984131
-14.4962921142578
-22.0305480957031
-37.2898025512695
-48.2573928833008
-62.1814613342285
-87.5499725341797
-109.771263122559
-130.943481445313
-180.822158813477
-251.586959838867
-313.863800048828
-380.813781738281
-471.606323242188
-536.458190917969
-502.315582275391
-376.426727294922
-220.973083496094
-60.3694267272949
171.857345581055
378.811004638672
395.119323730469
403.416534423828
481.906341552734
514.523010253906
609.034973144531
778.984924316406
864.818237304688
767.063659667969
519.196105957031
319.967498779297
248.630477905273
212.294372558594
178.056427001953
143.913848876953
74.9610900878906
-43.1073951721191
-179.105499267578
-285.157318115234
-338.660064697266
-337.992492675781
-285.157318115234
-200.75456237793
-129.799026489258
-97.182373046875
-102.52311706543
-142.101806640625
-197.798080444336
-244.434173583984
-267.323059082031
-261.982330322266
-225.074005126953
-166.516616821289
-108.531448364258
-72.0046081542969
-67.8083114624023
-90.4110794067383
-123.886070251465
-154.881439208984
-173.478652954102
-171.189758300781
-141.624954223633
-100.234230041504
-64.2796096801758
-38.9110984802246
-33.5703582763672
-45.8731346130371
-67.3314590454102
-89.8388595581055
-98.7083053588867
-94.5120086669922
-85.6425628662109
-70.0971984863281
-43.7749862670898
-21.4583263397217
-14.3055505752563
-12.302773475647
-13.8286991119385
-21.839807510376
-32.9027671813965
-38.3388748168945
-32.2351760864258
-22.9842510223389
-11.5398111343384
0.381481349468231
6.96203470230103
7.43888664245605
4.1962947845459
6.19907188415527
9.9185152053833
8.86944198608398
11.3490705490112
18.787956237793
24.1286964416504
25.9407329559326
25.6546211242676
22.4120292663574
18.787956237793
24.7962875366211
36.7175827026367
40.3416519165039
36.6222114562988
30.8999900817871
26.4175834655762
22.6027698516846
10.9675893783569
4.10092449188232
14.0194396972656
23.4611034393311
28.8018417358398
35.5731353759766
36.7175827026367
32.7120246887207
28.3249912261963
16.9759197235107
6.48518323898315
8.0111083984375
15.5453653335571
26.5129547119141
42.1536903381348
51.9768333435059
51.6907234191895
48.9249839782715
38.5296173095703
15.2592544555664
-6.19907188415527
-18.8833274841309
-19.8370304107666
-10.204626083374
0.381481349468231
10.7768487930298
24.891658782959
28.1342506408691
12.588885307312
1.33518481254578
-3.71944332122803
-15.2592544555664
-17.0712909698486
-2.8611102104187
9.72777462005615
23.2703628540039
41.1046180725098
49.9740562438965
47.1129493713379
35.8592491149902
19.360179901123
8.77407169342041
7.53425693511963
16.2129573822021
27.4666576385498
42.7259140014648
65.9962768554688
77.0592346191406
75.1518249511719
64.4703521728516
45.8731346130371
40.1509132385254
47.6851692199707
55.6962776184082
73.5305328369141
102.046264648438
122.83699798584
135.998107910156
146.393478393555
138.95458984375
123.886070251465
122.169403076172
122.550888061523
120.166625976563
129.226806640625
150.494400024414
171.952728271484
187.593460083008
191.694381713867
185.209197998047
179.48698425293
177.579574584961
178.914764404297
184.064758300781
189.882339477539
198.942535400391
205.904556274414
206.858261108398
209.147155761719
205.427719116211
191.980499267578
178.533279418945
165.181427001953
151.73420715332
150.208282470703
158.505508422852
159.363830566406
154.404586791992
153.73698425293
153.355499267578
142.483291625977
124.267555236816
106.433296203613
88.9805297851563
79.1573791503906
69.9064559936523
56.936092376709
49.783317565918
37.8620262145996
22.5074005126953
20.8861045837402
1.43055510520935
-15.6407356262207
-27.943510055542
-38.7203598022461
-53.2166481018066
-63.6120147705078
-68.6666412353516
-76.6777496337891
-82.0184936523438
-90.8879318237305
-109.771263122559
-125.221252441406
-133.899963378906
-136.76106262207
-133.041625976563
-133.041625976563
-137.237915039063
-139.908294677734
-143.15087890625
-148.014770507813
-151.448104858398
-153.927734375
-159.649948120117
-167.661056518555
-170.903656005859
-168.71012878418
-171.189758300781
-176.435134887695
-179.3916015625
-184.350860595703
-185.304565429688
-179.296234130859
-171.857345581055
-166.516616821289
-167.088836669922
-170.903656005859
-168.614761352539
-164.132354736328
-167.374938964844
-172.906433105469
-170.331420898438
-165.181427001953
-167.184204101563
-167.661056518555
-163.846237182617
-162.701797485352
-159.268463134766
-158.219390869141
-164.418472290039
-167.088836669922
-164.990692138672
-160.22216796875
-153.83235168457
-148.586990356445
-141.338836669922
-137.714767456055
-136.856430053711
-135.521255493164
-131.038848876953
-121.120330810547
-116.161071777344
-111.201812744141
-100.997192382813
-97.3731155395508
-94.8934860229492
-88.0268249511719
-82.3999710083008
-80.111083984375
-77.4407196044922
-77.5360870361328
-76.296272277832
-66.2823867797852
-55.887020111084
-51.8814659118652
-51.8814659118652
-50.355541229248
-49.2110939025879
-50.832389831543
-51.3092422485352
-47.3036880493164
-38.5296173095703
-33.1888771057129
-31.4722118377686
-25.177770614624
-15.7361059188843
-8.67870044708252
-10.5861072540283
-18.5018463134766
-22.2212886810303
-21.2675857543945
-18.1203651428223
-8.3925895690918
3.71944332122803
12.8749961853027
16.8805503845215
14.3055505752563
12.9703664779663
7.34351634979248
0.762962698936462
5.62685012817383
9.9185152053833
11.8259220123291
15.5453653335571
11.635181427002
10.6814785003662
22.3166599273682
25.2731399536133
14.8777732849121
10.204626083374
9.82314491271973
6.6759238243103
9.34629344940186
19.9324016571045
29.4694347381592
34.7148017883301
40.913875579834
42.5351715087891
37.5759124755859
32.8073959350586
27.3712882995605
26.7990646362305
34.0472106933594
41.1046180725098
46.8268356323242
53.0259094238281
60.1786842346191
65.805534362793
64.6610870361328
55.219425201416
43.3935050964355
44.8240585327148
54.6472053527832
50.0694274902344
44.8240585327148
50.832389831543
57.2222023010254
69.3342361450195
74.4842376708984
66.2823867797852
60.7509078979492
56.5546112060547
55.3147964477539
58.5573883056641
60.9416465759277
65.6147918701172
69.1434936523438
67.2360916137695
61.6092376708984
58.2712783813477
61.4184989929199
65.0425720214844
63.7073860168457
64.5657196044922
70.0018310546875
67.2360916137695
63.3259048461914
72.8629379272461
80.5879364013672
77.9175643920898
70.5740509033203
62.5629425048828
65.5194244384766
72.5768280029297
75.6286773681641
79.1573791503906
77.8221969604492
76.8684921264648
78.6805267333984
77.9175643920898
68.0944213867188
53.4073905944824
52.9305381774902
54.2657241821289
50.355541229248
51.8814659118652
51.2138710021973
46.3499870300293
45.5870208740234
40.4370231628418
32.1398048400879
33.2842483520508
38.9110984802246
40.6277656555176
37.7666549682617
42.5351715087891
51.7860946655273
49.1157264709473
43.679615020752
40.4370231628418
38.4342460632324
39.1018409729004
38.0527648925781
36.0499877929688
31.5675830841064
28.9925842285156
33.4749908447266
39.197208404541
36.6222114562988
26.6083240509033
21.2675857543945
17.4527721405029
14.3055505752563
18.0249938964844
22.6981410980225
28.1342506408691
33.8564720153809
36.0499877929688
32.9027671813965
30.3277683258057
35.9546165466309
37.8620262145996
35.5731353759766
36.8129501342773
33.2842483520508
24.7962875366211
19.4555492401123
18.8833274841309
19.074068069458
21.1722145080566
21.4583263397217
16.4990692138672
12.588885307312
10.8722190856934
11.8259220123291
9.34629344940186
2.5749990940094
2.5749990940094
4.1962947845459
3.147221326828
8.29721927642822
10.9675893783569
4.1962947845459
4.00555419921875
4.86388731002808
-4.10092449188232
-4.95925760269165
-1.23981440067291
-3.33796191215515
-1.81203651428223
-0.9537034034729
-3.8148136138916
-3.91018390655518
-4.67314672470093
-7.82036781311035
-6.19907188415527
-2.95648050308228
-5.24536848068237
-8.10647869110107
-7.91573810577393
-8.0111083984375
-6.19907188415527
-2.47962880134583
-3.43333220481873
-6.29444265365601
-6.86666440963745
-7.43888664245605
-9.537034034729
-16.4990692138672
-28.2296199798584
-37.0036926269531
-39.9601707458496
-38.0527648925781
-30.0416564941406
-20.7907333374023
-20.8861045837402
-28.1342506408691
-32.1398048400879
-27.2759170532227
-16.7851791381836
-13.8286991119385
-20.2185115814209
-24.6055469512939
-25.177770614624
-23.0796222686768
-18.3111057281494
-13.3518476486206
-8.96481227874756
-8.10647869110107
-14.0194396972656
-19.1694374084473
-15.8314762115479
-6.96203470230103
1.23981440067291
6.00833129882813
2.5749990940094
-5.62685012817383
-11.7305517196655
-15.5453653335571
-17.2620315551758
-19.7416610717773
-18.0249938964844
-12.3981437683105
-8.0111083984375
-1.43055510520935
-3.24259161949158
-14.2101802825928
-19.6462898254395
-18.8833274841309
-22.5074005126953
-33.4749908447266
-38.0527648925781
-31.4722118377686
-21.6490669250488
-14.4962921142578
-12.8749961853027
-12.9703664779663
-14.0194396972656
-15.5453653335571
-13.9240694046021
-14.5916624069214
-16.30832862854
-11.7305517196655
-5.81759071350098
-4.95925760269165
-6.48518323898315
-8.86944198608398
-13.9240694046021
-20.1231422424316
-26.7990646362305
-28.8972129821777
-23.7472152709961
-22.7935104370117
-23.8425846099854
-18.4064750671387
-13.7333288192749
-12.6842555999756
-20.409252166748
-37.9573936462402
-54.6472053527832
-63.2305335998535
-65.6147918701172
-82.0184936523438
-108.722190856934
-140.671249389648
-200.086975097656
-261.123992919922
-314.436004638672
-401.318389892578
-493.350769042969
-507.751678466797
-428.880432128906
-296.220275878906
-147.728652954102
55.7916488647461
321.684143066406
449.289672851563
427.640594482422
458.922088623047
499.740570068359
542.275756835938
673.409973144531
785.374755859375
773.453430175781
603.885009765625
367.843414306641
237.090667724609
193.887893676758
163.369384765625
140.003662109375
101.474044799805
21.0768451690674
-99.948112487793
-227.649002075195
-318.155456542969
-349.723022460938
-327.597106933594
-265.701751708984
-187.498092651367
-132.087921142578
-114.062927246094
-126.747184753418
-166.61198425293
-220.11474609375
-259.311950683594
-267.895294189453
-247.295288085938
-199.228637695313
-141.624954223633
-93.8444137573242
-66.1870193481445
-68.3805313110352
-93.5583038330078
-128.463851928711
-162.41569519043
-177.579574584961
-168.519393920898
-138.477737426758
-95.2749710083008
-59.0342407226563
-43.2027626037598
-40.4370231628418
-44.8240585327148
-60.9416465759277
-80.778678894043
-86.5009002685547
-78.394416809082
-61.0370178222656
-39.864803314209
-21.0768451690674
-5.62685012817383
-4.00555419921875
-13.1611070632935
-19.360179901123
-23.0796222686768
-25.7499923706055
-26.3222141265869
-20.5046234130859
-8.67870044708252
-2.38425850868225
-1.9074068069458
0
4.7685170173645
6.19907188415527
-0.381481349468231
-5.05462789535522
-5.05462789535522
0.9537034034729
13.4472179412842
20.1231422424316
22.2212886810303
26.1314735412598
24.5101776123047
20.3138828277588
28.5157318115234
40.913875579834
45.300910949707
47.017578125
43.3935050964355
37.9573936462402
31.1861019134521
23.5564746856689
30.0416564941406
36.6222114562988
32.4259147644043
33.2842483520508
40.913875579834
44.7286911010742
38.7203598022461
33.1888771057129
32.8073959350586
22.0305480957031
9.82314491271973
15.5453653335571
33.9518394470215
49.3064651489258
54.3610954284668
50.2601699829102
37.2898025512695
24.7009181976318
18.5018463134766
8.86944198608398
-4.00555419921875
-8.48795986175537
4.29166507720947
25.8453617095947
32.9027671813965
30.2323970794678
31.2814712524414
25.3685111999512
8.58333015441895
-7.24814605712891
-11.5398111343384
-5.43610954284668
4.57777643203735
19.2648086547852
31.6629524230957
39.1018409729004
43.679615020752
36.431468963623
20.9814739227295
11.5398111343384
7.53425693511963
7.24814605712891
17.1666603088379
39.0064697265625
58.5573883056641
67.903678894043
73.5305328369141
66.854606628418
49.1157264709473
38.5296173095703
31.9490642547607
32.5212860107422
49.3064651489258
67.9990539550781
83.925895690918
96.2286758422852
103.190704345703
108.149963378906
102.713859558105
88.8851547241211
86.8823776245117
96.3240432739258
110.915702819824
128.559219360352
144.867553710938
164.895324707031
180.631423950195
182.634201049805
178.437911987305
169.091613769531
156.598098754883
155.072174072266
160.794387817383
167.661056518555
185.209197998047
205.1416015625
213.057342529297
209.43327331543
201.136047363281
195.413833618164
183.68327331543
162.987915039063
152.783279418945
156.598098754883
158.886993408203
155.644393920898
149.922180175781
140.575881958008
126.747184753418
108.817558288574
86.8823776245117
67.6175689697266
59.0342407226563
53.9796104431152
47.8759117126465
47.9712791442871
45.6823921203613
35.7638778686523
23.3657341003418
5.43610954284668
-10.0138854980469
-19.6462898254395
-32.9027671813965
-44.5379486083984
-45.8731346130371
-47.2083168029785
-54.9333152770996
-61.5138702392578
-65.2333145141602
-73.6259002685547
-80.8740463256836
-86.5962677001953
-98.9944152832031
-108.531448364258
-108.912925720215
-115.684219360352
-125.793479919434
-131.229583740234
-140.194396972656
-145.821243286133
-143.627731323242
-151.543472290039
-152.974029541016
-162.034210205078
-164.704574584961
-165.849014282227
-166.70735168457
-170.140686035156
-176.816604614258
-177.007354736328
-173.383270263672
-170.522171020508
-166.230499267578
-163.750869750977
-161.748092651367
-159.840682983398
-161.938842773438
-170.045318603516
-174.718460083008
-166.802719116211
-164.704574584961
-170.903656005859
-166.230499267578
-158.314758300781
-152.783279418945
-145.821243286133
-144.867553710938
-146.202728271484
-145.2490234375
-145.344390869141
-142.387924194336
-134.472183227539
-126.174957275391
-123.9814453125
-124.362922668457
-119.68977355957
-117.973114013672
-116.828666687012
-110.724967956543
-108.054595947266
-102.61848449707
-93.5583038330078
-89.2666397094727
-84.3073806762695
-79.5388641357422
-78.2990493774414
-78.4897918701172
-85.5471954345703
-89.2666397094727
-82.3046035766602
-76.9638671875
-68.1897964477539
-56.3638725280762
-54.2657241821289
-51.0231323242188
