Value(bpm)
62.3123732251521
62.2311229416355
62.151316729716
62.0741737013124
62.0009012970911
61.9326965996357
61.8707481027817
61.8162379295105
61.7703444940515
61.7342456077936
61.709122033258
61.6961614957581
61.6965631685127
61.7115426539557
61.7423374918991
61.7902132341799
61.856470135637
61.9424505229279
62.0495469160908
62.1792109932206
62.3329613205003
62.510802475249
62.7083575597282
62.9204113446697
63.1416264219085
63.3665216784384
63.5894597666825
63.8046442346961
64.0061270458662
64.1878272090078
64.3435611462992
64.4670852388676
64.5521507014594
64.5925705468701
64.5822979132306
64.515543462148
64.3903382051412
64.2118079891534
63.9860266216265
63.7191403563091
63.4172877551181
63.0865312171971
62.732800626795
62.3618490849277
61.9792203027295
61.5902269488394
61.1999390540973
60.8131814745352
60.4345393857813
60.0683708152563
59.718825300047
59.3898672914191
59.0843880438614
58.8024403634701
58.5435968551227
58.3074824155497
58.0937725647515
57.9021920602357
57.7325137819143
57.5845578782885
57.4581911672017
57.3533267870028
57.2699240964743
57.2079888243863
57.1675734720706
57.1487779750227
57.1517506322664
57.1766893151097
57.223835278817
57.2929422245454
57.3829233950265
57.4926417367108
57.6209831967182
57.7668488130356
57.9291472962102
58.1067880529679
58.2986746143972
58.5036984426012
58.7207331002382
58.9486287772965
59.1862071789096
59.4322567870665
59.6855285177712
59.9447318035269
60.2085226206462
60.4750297767534
60.7415860179078
61.0053682887697
61.2634567124164
61.5128375988426
61.7504094652096
61.9729922842818
62.1773401484329
62.3601574920771
62.5181189543217
62.6478928855717
62.7461684070661
62.8096858222315
62.8352700557837
62.8198669323496
62.7618934059254
62.664288865006
62.5310111419004
62.36608579944
62.1735643619299
61.9574875123516
61.7218535569821
61.4705922774541
61.2075441371052
60.9364446854012
60.6609139114977
60.3844502343242
60.1104287795921
59.8421035808593
59.5826133489623
59.3349904785311
59.1018759463909
58.8841177047302
58.6819352257523
58.4955585426581
58.3252309113701
58.1712106558975
58.0337730831258
57.9132124810671
57.8098442159014
57.7240069446157
57.6560649617457
57.6064107006705
57.5754674121507
57.5636920453852
57.5715783598405
57.5996602995549
57.6485111178491
57.7179817215417
57.8063297381766
57.9116206802393
58.0319224082863
58.1652940777277
58.309776344697
58.4633828178331
58.6240927690949
58.7898451397509
58.9585338974431
59.1280048165597
59.2960537667693
59.4604266030569
59.6188207544665
59.7688886074294
59.9082452352921
60.0350916030778
60.1490490813074
60.2499542472638
60.3376599611828
60.4120358629391
60.4729688174478
60.5203633060182
60.554141761203
60.5742448430146
60.5806316547356
60.5732798969153
60.5521859585335
60.5173649447035
60.4688506406906
60.4066954124258
60.3309746092418
60.242193838724
60.1416034454643
60.0305284832815
59.9102875954311
59.7821888732731
59.6475263111987
59.5075768521631
59.3635980123635
59.2168260689188
59.0684747908284
58.9197346909624
58.7717727752941
58.6257327649583
58.4827357669281
58.3438813700713
58.2102491449998
58.0829264945113
57.9631875657891
57.8523853015756
57.7518588850388
57.6629378067007
57.5869470924273
57.5252131269217
57.4790700904954
57.4498670389811
57.4389756701459
57.4477988351363
57.4777798706354
57.5304128469688
57.6072538498799
57.7099334397806
57.8401704628129
57.999776967517
58.1889074298126
58.404008871964
58.6410011418278
58.8957148200341
59.1638607071082
59.441004855463
59.722549562846
60.0037208900675
60.2795633782274
60.544942712209
60.7945570991823
61.022958093495
61.224581492788
61.393788745829
61.5249190444862
61.612727596223
61.657191489679
61.6621543049929
61.6317058472488
61.5700515802916
61.4814675344591
61.3702604876372
61.2407338993005
61.0971598660461
60.9437571869743
60.7846754821019
60.623985198319
60.4656732648056
60.3136441214994
60.1717258375635
60.0436810589134
59.9329764859671
59.8397212915295
59.7616576217378
59.696522657466
59.6420913678144
59.5961677221401
59.5565776190566
59.5211634650876
59.4877803551893
59.4542938216326
59.4185791270453
59.3785220819452
59.3320213669878
59.2769923355176
59.2113722629884
59.1331269965961
59.0403054042288
58.9330983504247
58.8146143554102
58.6881418762562
58.5569231023358
58.4241472476452
58.2929474286588
58.1664009772299
58.0475330328982
57.9393232689123
57.8447156300628
57.7666309970035
57.7079827404175
57.6716951889498
57.6607251076743
57.6780863701391
57.7268781087846
57.809842946817
57.9257286967324
58.0712330919601
58.2430626659628
58.4379169798136
58.6524590328252
58.8832892211355
59.1269228474991
59.3797713060664
59.6381271716169
59.8981535128085
60.1558778215115
60.4071910020544
60.6478518911453
60.8734977766312
61.0796613738598
61.2627980983885
61.4230079861097
61.5612921799916
61.6787236756087
61.7764395042197
61.8556329753421
61.9175460818585
61.9634621610694
61.9946988946625
62.012601719688
62.0185377116332
62.0138899899095
62.0000526857414
61.9784265028249
61.9504148923716
61.9174126604652
61.8806483550238
61.841196150485
61.8001201054334
61.7584790666833
61.7173263034744
61.6777095033338
61.6406711246637
61.6072491013802
61.5784778956864
61.5553898963194
61.5390171613442
61.5303935067894
61.5305569451244
61.5405524807882
61.5614352737184
61.5941455550029
61.6390186369454
61.696218088788
61.7659230679409
61.8483290122078
61.9436483539048
62.0521112985098
62.1739666728965
62.309482848749
62.4589487473575
62.6226749326656
62.8009948001901
62.9942658702702
63.2028711950414
63.4272208895788
63.667379775374
63.9207538986831
64.1835096477653
64.4516865952907
64.7211914683808
64.9877924451294
65.2471187884445
65.4946662897759
65.7258089881185
65.935817586772
66.1198849070661
66.2731585909134
66.3907810905092
66.4679367640436
66.4999804301606
66.4858084560396
66.4291994240458
66.3344232922641
66.2058444285104
66.0478753492759
65.8649358564391
65.6614179741871
65.4416568812301
65.2099078568942
64.9703291171574
64.7269703089471
64.4837663570374
64.2445363153824
64.012986860605
63.7926857386185
63.5852073158723
63.3892458598003
63.2033022691828
63.0259194733416
62.8556780442177
62.6911925371488
62.5311085121897
62.3741001945116
62.2188687376885
62.0641410576889
61.9086692082618
61.7512302702435
61.5906267282152
61.4256873080014
61.2552682477902
61.0784919748768
60.8973513166409
60.715672238019
60.5372248374441
60.3656913991995
60.2046732115207
60.0577016306686
59.9282531785498
59.8197685284849
59.7356753186349
59.6794148350688
59.6544727273327
59.6644140609716
59.7129231777299
59.8038490312098
59.9412569023263
60.1289572622487
60.3646312373922
60.6417838038802
60.9537660324551
61.2937605028908
61.6547043850879
62.029226585271
62.409600297641
62.7877128886981
63.1550554914528
63.5027349610071
63.8215108914583
64.1018601605739
64.3340708984865
64.5083668266315
64.6163753584955
64.6603300720679
64.647748110701
64.5864885085839
64.484596112357
64.3501915898597
64.1913808358665
64.0161848013672
63.8324899343408
63.6480187958835
63.4703200111996
63.3067765215227
63.1646311036574
63.0510282992997
62.9730722298576
62.9376695642035
62.9472467020081
63.0001693129396
63.0948166248179
63.2297173855203
63.4035294128182
63.6150209832603
63.8630537195158
64.1465666843783
64.4645614299165
64.816087783823
65.2002301833191
65.6160943912291
66.0627944500455
66.5394388870273
67.0437326966764
67.5690016713391
68.1073353404839
68.6503033431263
69.1889227027608
69.713646849791
70.2143801994213
70.6805221784619
71.1010443405247
71.4646035336062
71.7596929181142
71.9748309379862
72.0987861325471
72.1225562122793
72.0514096724748
71.8976998753109
71.6742386563027
71.3939942477787
71.069870432931
70.7145326685967
70.340281797707
69.9589737582517
69.5819822173508
69.2202002740725
68.8840771980156
68.5836865012425
68.3288223826973
68.1282035074703
67.9817007760188
67.8844798388463
67.8319285444335
67.8196496211877
67.8434060880116
67.8990736165337
67.9825989706807
68.0899638954336
68.2171540316254
68.3601326056628
68.5148187875474
68.6770707308229
68.8426734056395
69.0073143795285
69.1664642074672
69.3154482936672
69.4495191548852
69.5638734425621
69.653675336908
69.7140867466136
69.7403042209675
69.7276022876148
69.6713827010642
69.567228831621
69.4109641523278
69.1987135067416
68.9269655799489
68.5936949463472
68.204055818622
67.7659548009274
67.2871978595651
66.7753917709853
66.2378711865045
65.6816438895493
65.1133530573496
64.5392549587452
63.9652103031876
63.3966873781026
62.8387751449273
62.2962045811566
61.773376731973
61.2743961495805
60.8031084555863
60.3622753086591
59.9516949896278
59.5706360188683
59.2184470908693
58.8945537388574
58.5984555089374
58.3297236151459
58.0879990526713
57.872991151961
57.684476561642
57.5222986532071
57.3863673453755
57.2766593509997
57.1932188544762
57.1361586329086
57.1056616398808
57.1019784517854
57.1248743927245
57.1730991807482
57.2453380903642
57.3403251876843
57.4568325636565
57.5936603326199
57.7496272948625
57.923562181136
58.114295414292
58.3206513388064
58.5414408833136
58.7754546346717
59.021456314748
59.2781766632155
59.5443077412959
59.818495194569
60.0987079256513
60.3813730667981
60.6625729523016
60.9382434266336
61.2041768792466
61.4560311089797
61.6893444911561
61.8995578564895
62.0820433846211
62.2321406632251
62.3451998649279
62.4166317504167
62.4419639222829
62.4169024397683
62.3373975735216
62.200564786869
62.0105332378864
61.7747484046598
61.5006927349048
61.1957704581185
60.8672296287326
60.5221026062076
60.1671643079683
59.8089070945249
59.4535308521201
59.1069467064603
58.7747928064002
58.4624607328305
58.1751312914991
57.9178187192547
57.6954226568269
57.5127862985484
57.3726981963277
57.2718278701891
57.2058824493325
57.1707438569513
57.1624219707245
57.1770145866622
57.2106734713135
57.2595760112366
57.3199021506903
57.3878164553846
57.4594552559212
57.5309189113572
57.5982692917432
57.6575326080527
57.7047077175049
57.735780000541
57.7468687158044
57.7375448345072
57.7111307058215
57.6711568622155
57.621157278509
57.5646550091419
57.5051521649709
57.4461242038138
57.3910184688573
57.3432568910146
57.3062427747085
57.2833716105952
57.278045902864
57.2936940628151
57.3337935050178
57.4018981890303
57.501670981283
57.6364791525266
57.8063765490483
58.0098775954444
58.2455542410294
58.5120268888286
58.8079466604455
59.1319784431461
59.4827845431218
59.8590088050654
60.2592610920363
60.6821020521991
61.1260281313309
61.5894568227839
62.0707121804901
62.5680106560873
63.0793788655552
63.6011027902488
64.1275810759156
64.6527572901697
65.1701762087238
65.6729850574846
66.1539491398672
66.6054838738811
67.0197050961078
67.3884991408838
67.7036136468519
67.956769264762
68.1397914425009
68.2447602716129
68.2644014845048
68.1991447755646
68.0583890090107
67.8524018760436
67.5916326151476
67.2865342592525
66.94741764126
66.5843383436255
66.2070161437133
65.8247853077147
65.4465733163295
65.0809052272578
64.735930837238
64.419472039022
64.1390882197255
63.9019730479579
63.7094498673843
63.5561877777557
63.4367168448519
63.3457624665924
63.2781940129595
63.2289829919334
63.1931699489854
63.1658395677922
63.1421036358043
63.1170916774439
63.0859491443796
63.0438430888775
62.9859752339676
62.9076022941771
62.8040693963554
62.6732756972929
62.5193511355253
62.3473536655293
62.1622730529686
61.9690069775437
61.7723452449972
61.5769617502348
61.3874137597411
61.2081480582685
61.0435135268773
60.8977797815878
60.7751615997067
60.6798489911642
60.6160429336023
60.5879969833874
60.600019491924
60.6533642700501
60.7441832876776
60.8682390150317
61.0213404158878
61.1992986288509
61.3978884324299
61.612815284553
61.839687937809
62.0739968115999
62.3110984524479
62.5462065322895
62.7743899179498
62.9905783876414
63.1895765656873
63.3660919448538
63.5169210210482
63.6443381396131
63.7515682178009
63.8419256441429
63.9187949551395
63.9856147416375
64.045865021964
64.1030582561768
64.1607341276623
64.2224581863141
64.291824432733
64.3724619261154
64.4680455204926
64.5823108756418
64.719049309636
64.880420438382
65.065815045821
65.2743916737367
65.5053308491083
65.7578283340429
66.0310886266558
66.3243186679411
66.6367217171053
66.9674913648061
67.3158056604102
67.680821335889
68.0616681154214
68.4574431062773
68.867190547435
69.2890795437194
69.7199196724687
70.1562505937503
70.5944332333377
71.0306431273713
71.4608676690773
71.880907785947
72.2863845903597
72.6727515378067
73.0353125897495
73.3692468080178
73.6696397004334
73.9315436426916
74.1512434218149
74.326970076862
74.4572423455853
74.540729430188
74.5762659185941
74.5628655455886
74.4997335317424
74.3862772537498
74.2221150227891
74.0070827774377
73.7412385338714
73.4248644776332
73.0584883633667
72.6464887059693
72.2008687867716
71.7341704314865
71.2583892094665
70.7849336756442
70.3246238823493
69.8877243243139
69.4840067976054
69.1228393576801
68.8132985587157
68.5643033808974
68.3847706745778
68.2837935796308
68.2708307223613
68.3497058656003
68.5091368122795
68.7357712099207
69.0163394203659
69.3374116622462
69.6852052956923
70.0454427915239
70.4032637607285
70.7431964576703
71.0491952967735
71.3047509478654
71.4930782796212
71.5973846108045
71.6030353166546
71.5119183446226
71.3347853591762
71.0829231249481
70.7678407221722
70.4010565148973
69.9939217173394
69.5574822182009
69.1023782455516
68.6387799086249
68.1763556356358
67.7242699924074
67.291207244015
66.8854172307447
66.5147051043063
66.1824263300909
65.8856679676835
65.6211994143368
65.3859716801183
65.1770897792437
64.9917887885263
64.8274131081312
64.6813985499307
64.551256952576
64.4345630829684
64.3289436334559
64.2320681645791
64.1416418758712
64.0554001130914
63.9711200844866
63.8874670183594
63.8044193854904
63.7220631979697
63.6404835882678
63.5597648321585
63.4799903737323
63.4012428524455
63.3236041321529
63.2471553320761
63.1719768596619
63.0981484452895
63.0257491787897
62.9548575477413
62.8855514775172
62.8179084177131
62.7522241159878
62.6895166820317
62.630946524786
62.5776666465334
62.5308244075343
62.4915637061501
62.461027573317
62.4403611839252
62.4307152919887
62.4332501014936
62.4491395905384
62.4795763128966
62.5257767085389
62.5889869630771
62.6704894657018
62.7713105297525
62.8899071814387
63.0233907223486
63.1688340043216
63.3232695478894
63.4836792504196
63.6469868233998
63.8100530817719
63.9696742343403
64.122583338965
64.2654550883195
64.3949140801455
64.5075466989109
64.5999166925363
64.668584467727
64.7108341638489
64.7277353647643
64.7216565465062
64.6950176742641
64.6502731819598
64.5898973967421
64.5163717525916
64.4321738728822
64.3397685640626
64.2416007307456
64.1400901967695
64.0376283973534
63.9365768942195
63.8392676583087
63.7480050631578
63.6648719864463
63.5906662671127
63.5256837419604
63.4702240249239
63.4245926987783
63.3891022908448
63.3640732946305
63.3498352419842
63.3467278308771
63.3551021145006
63.3753217580158
63.4077643699954
63.4528229163939
63.5109072257544
63.5824455953459
63.6677668850516
63.7661760763225
63.8764457448023
63.9973400576806
64.1276146550617
64.2660125716248
64.4112606182092
64.5620662307511
64.7171147997387
64.8750674984044
65.0345596321925
65.1941995355777
65.3525680449913
65.5082185783519
65.6596787349036
65.8060934861842
65.948378701885
66.0877754814706
66.2255476378251
66.3629809468459
66.5013828806265
66.6420828467398
66.7864329563086
66.9358093445901
67.091614069781
67.2552776187521
67.4282620525428
67.6120648297932
67.8082233530079
68.0175474777434
68.2374606679377
68.4643826489853
68.6946403389374
68.9244614809999
69.1499722285136
69.3671989959051
69.5720748682085
69.7604508453617
69.9281121572972
70.0707998196597
70.1842375062808
70.2641636928388
70.3064015278985
70.3091566295015
70.2745103680361
70.2050063672848
70.1032774366713
69.9720209801362
69.8139759691248
69.631901741866
69.428558823781
69.2066919002707
68.969015014964
68.7181990150039
68.4568612208344
68.1875572615797
67.9127720052011
67.6341786914429
67.3517054552984
67.0650501984972
66.7739255480173
66.4780591048943
66.1771936988944
65.8710876450039
65.5595149977322
65.2422657992848
64.9191463177401
64.5899792714573
64.2546040360542
63.9128768304311
63.5646708784694
63.2098765432099
62.8486999700931
62.4825309495482
62.1129978967115
61.7416612987411
61.3700134075017
60.9994787111049
60.6314150999565
60.2671156464053
59.9078109217252
59.5546717797011
59.2088125422898
58.8712945294713
58.5431298823209
58.2252856353769
57.918688001438
57.6242268389282
57.3427571953229
57.0748306882826
56.8204979282453
56.5797672161535
56.352657125718
56.1391971314642
55.9394282576327
55.75340375248
55.5811897927505
55.4228662233626
55.2785273376627
55.1482827039715
55.032258044571
54.9305961737692
54.8434580022441
54.7710236155112
54.7134934350961
54.6710894718345
54.6439376039816
54.6310368571686
54.6307657472464
54.6415148227757
54.6616868352441
54.6896907472208
54.7239366880834
54.7628318388434
54.8047772388399
54.8481655160329
54.8913795493387
54.9327920759151
54.9707662584811
55.0036572275732
55.0298146110478
55.047586058053
55.055321757097
55.0513946778297
55.0355260506163
55.0098293443011
54.9766677184894
54.9384005806869
54.8973782219036
54.8559384806491
54.8164054157325
54.7810899599808
54.7522925258474
54.7323075397291
54.7234298944658
54.7279633288982
54.7482307695643
54.7865867029194
54.8454316874182
54.9272291643206
55.0345247855406
55.1694249677018
55.3306344828292
55.5154968861327
55.7213383963701
55.9454482076663
56.1850577432261
56.4373222974459
56.6993051611253
56.967964399963
57.2401425236881
57.5125593408452
57.781808340473
58.0443569740856
58.2965512263356
58.534624856977
58.7547136665803
58.9530013694159
59.1281552787652
59.2812198733472
59.4134075745975
59.526003393546
59.6203558757518
59.6978683044114
59.7599902803884
59.808209783547
59.8440458050145
59.8690416253398
59.8847587993981
59.8927718956775
59.8946640255867
59.8920231878704
59.8864394443013
59.8794683930778
59.8718703150044
59.8636107420114
59.8546207729106
59.8448316400268
59.834174726781
59.82258158682
59.809983964678
59.796313817955
59.7815033409934
59.765484990033
59.7481915098228
59.7295559616638
59.7095117528561
59.6879926675205
59.6649328987615
59.6402703384061
59.6140652717701
59.5865336904921
59.5579011348302
59.5283924286457
59.4982316060312
59.4676418550241
59.4368454782573
59.4060638703809
59.3755175120842
59.3454259805401
59.3160079760941
59.2874813650301
59.2600632382527
59.2339699857426
59.2094173866642
59.1866206420224
59.1657763279162
59.1470386922307
59.1305560833042
59.1164770054052
59.104950236727
59.0961249550217
59.0901508710028
59.0871783696724
59.0873586597582
59.0908439314782
59.0977875228836
59.1083440950683
59.12266981657
59.1409225573307
59.1632620926285
59.1898503174379
59.2209106155515
59.2569293938409
59.298469239856
59.3460987163969
59.4003934670794
59.461937445158
59.5313242695524
59.6091587151203
59.6960583454598
59.7926552979342
59.8995982321899
60.0175544552229
60.1472122380592
60.2892833413925
60.4445057700987
60.6136464355756
60.797253931092
60.9952088383335
61.2072839957878
61.4332603096024
61.6729252942671
61.9260716373691
62.1924957812984
62.4719965153219
62.7643735719438
63.0694262219446
63.3869518629454
63.7167445967908
64.0585937914839
64.4122826238557
64.7775697891378
65.1526642566917
65.5329122903328
65.9131474383272
66.2879604796695
66.651700499857
66.9984855380168
67.3222238141352
67.6166464468967
67.8753523843362
68.0918659811256
68.2597072625593
68.3724744178423
68.4239374749709
68.4081759379235
68.3238168751334
68.177957327109
67.9788559573381
67.7348665883071
67.4543222850127
67.1454399053557
66.8162456171528
66.474521027633
66.1277689390157
65.7831973287699
65.4477199374363
65.1279718047339
64.8303381976509
64.5609955953069
64.3258958632221
64.1271397687664
63.9612427333264
63.8244246681232
63.7130496052026
63.623595056417
63.552626066248
63.4967735201037
63.4527163840488
63.4171676434417
63.3868637798729
63.3585576803271
63.329014911059
63.2950133121862
63.2533458779797
63.2008309955567
63.1359643796224
63.0614162288098
62.9804858897174
62.8964448714873
62.8125320283893
62.73195213015
62.6578777321374
62.5934542588363
62.541808229236
62.5060585811694
62.4893310929539
62.4947759549145
62.5255886110655
62.5850340736356
62.6764750123204
62.802699240041
62.9620884829195
63.1512789329942
63.3669047497403
63.6055706668017
63.8638235501218
64.1381273171496
64.4248412935564
64.7202021955707
65.0203100246424
65.3211182453326
65.6184286845767
65.9078916372313
66.1850116846814
66.4452050627739
66.6858427858363
66.9071502647383
67.1096161365074
67.2937808733025
67.4602334864506
67.6096081116326
67.7425805153403
67.8598645615977
67.9622086763342
68.0503923447883
68.1252226749763
68.1875310576567
68.2381699504356
68.2780103796373
68.3079783839094
68.3290779435448
68.3423291072454
68.3487594394512
68.3494018116039
68.3452924957974
68.3374695670835
68.3269716184853
68.3148367909405
68.3021021189567
68.2898031917298
68.2789741288379
68.2706478693972
68.2658470947831
68.2644236978772
68.2639561261979
68.261762046315
68.2551600158417
68.2414718925909
68.2180273434247
68.1821704346282
68.1312682674407
68.0627215976126
67.9739773469214
67.8625428781463
67.7260018639627
67.5620315358223
67.3684210526316
67.1439056513617
66.8905815468644
66.6113745663226
66.3091930478572
65.9869084688571
65.6473387093099
65.2932339424873
64.9272650920355
64.5520147513176
64.1699704275444
63.7835199492432
63.394948860149
63.0064396146746
62.6200723886892
62.2378273233278
61.8615476883329
61.4921916754112
61.1299458302719
60.7749590621424
60.4273714202644
60.0873148043304
59.7549136582909
59.4302856475937
59.1135423200808
58.804789750923
58.5041291721129
58.2116575871627
57.9274683717723
57.6516518613385
57.3842959262786
57.1254865362338
56.8753083143035
56.6338702728386
56.4016195174953
56.179234490368
55.967382310054
55.7667161970066
55.5778784931416
55.4015037889577
55.2382221621745
55.088662535115
54.9534561613837
54.833240255862
54.7286617857113
54.6403814440053
54.5690778318716
54.515451879706
54.4802315432242
54.464176815952
54.468085106383
54.492390710898
54.5359467536527
54.5972334504076
54.6747535230318
54.7670226548994
54.872560817682
54.9898844176736
55.1174992290856
55.2538940990209
55.3975354243062
55.5468624141761
55.7002831650038
55.8561715838437
56.0128652063802
56.1686639618211
56.3218299421071
56.4705882352941
56.6136874252868
56.7520999217143
56.8873851197891
57.0211346319918
57.1549711657309
57.2905482963499
57.4295511822354
57.5736982698391
57.7247440398794
57.8844828520789
58.0547539547827
58.2374477380285
58.4345133244958
58.6479676127644
58.8799059121056
59.1325143384523
59.4076651633947
59.7040121031354
60.0185991052246
60.3483551037507
60.690083335048
61.0404443116263
61.3959418983048
61.7529129011126
62.1075206478055
62.4557530920101
62.7934260064506
63.1161918391323
63.4195547840176
63.6988925588206
63.9494852817875
64.1671022317107
64.3518549674113
64.5060353159935
64.6320921814404
64.7325966469313
64.8102202081951
64.8677145200949
64.9078929780863
64.9336143928696
64.9477689567636
64.9532666461984
64.9530281578796
64.9499784377945
64.9470428330881
64.9471458773784
64.9531061791408
64.967320500336
64.9920883914439
65.0297253578544
65.0825711950746
65.1530000659956
65.2434324101573
65.3563488093273
65.4943059751493
65.6599550743196
65.8560626663447
66.0855346005541
66.3514433055204
66.6570590090632
67.0054461267583
67.3938875843787
67.8152442545375
68.2619861575097
68.726212710694
69.1995944756112
69.6733325606655
70.138138469152
70.5842375783178
71.0013996074963
71.3789993138463
71.7061101727217
71.9716328935302
72.1645420886907
72.2798263301539
72.3224619794271
72.2987977826528
72.2155547513367
72.0797100085115
71.89839035786
71.678777881681
71.4280290980898
71.1532085025405
70.8612367150388
70.5588529700639
70.252591327353
69.9487697453008
69.6533113719075
69.3688350701032
69.0952600248464
68.8324297254258
68.5801969514837
68.3384235275908
68.10698009716
67.8857459149447
67.6746086574429
67.4734642505955
67.2822167142383
67.1007780228247
66.9290679820034
66.7670141206898
66.6145508003158
66.4713011406159
66.3360991032211
66.2076785005392
66.0847963521393
65.9662305162907
65.8507778063684
65.737252570844
65.6244857182821
65.5113241707047
65.3966307299489
65.279284342251
65.1581807463046
65.0322334894894
64.9003752958999
64.7615839708595
64.6162026254771
64.4665885582517
64.3152251355324
64.1645506282908
64.0169580677309
63.8747969086747
63.7403764148933
63.6159706891117
63.5038252839079
63.4061653477824
63.3252052830427
63.2631599187505
63.2222572329157
63.2047526937207
63.2129431189814
63.2482985528614
63.3101156948094
63.3974027783994
63.5092192202369
63.6446677373517
63.8028869752961
63.9830445695991
64.1843305738448
64.4059511969817
64.6471228007787
64.9070661158462
65.1850006415149
65.480139201275
65.7916826315552
66.1186558527522
66.4575948811739
66.8029517378034
67.1488924395074
67.4893381574696
67.8179666314758
68.128225328222
68.4133574530593
68.6664417853458
68.8804470505732
69.0483011569332
69.1629751061782
69.21758074477
69.2054807704612
69.1212533273389
68.9680930676788
68.7541014711052
68.4875941725492
68.1769192806459
67.830345960842
67.4559736572976
67.0616620645307
66.6549811707456
66.2431801248675
65.8331733180008
65.4315418951785
65.0445488964624
64.678166337744
64.338112752865
64.029213998338
63.750827339857
63.4998945754352
63.2734963995446
63.0688442375937
62.8832601616797
62.7141597156525
62.5590373465172
62.4154541991564
62.2810280799217
62.1534254336118
62.0303552091066
61.9095645124906
61.7888359636827
61.6659866839891
61.5388745524893
61.4068146100358
61.2724039474712
61.1386542835661
61.0085253245183
60.884927108166
60.770725123211
60.6687480924624
60.5817983355555
60.5126646628498
60.4641377979508
60.4390283816195
60.440187675367
60.4705311600044
60.5330653148262
60.6309179698644
60.7672882177825
60.9417168836495
61.1484905591414
61.3814460077755
61.634297739432
61.9005878684842
62.1736483702201
62.4465766426957
62.7122255768103
62.9632095163556
63.1919275302666
63.3906052963724
63.5513565852916
63.6662648157473
63.7274844204007
63.7274288676998
63.6635975188522
63.5416520825266
63.3682263198283
63.1500905859757
62.894053216569
62.6068758729379
62.2952037033794
61.9655104991997
61.6240584799553
61.2768719377074
60.9297237010362
60.5881332339496
60.2573751462544
59.9424969423764
59.6483449575521
59.3795947646532
59.1396622067016
58.9290750174333
58.7479781085086
58.596588641083
58.4751997337526
58.3841847274462
58.324002076126
58.2952009428864
58.2984275937268
58.3344326963074
58.4040796488604
58.508354085705
58.648374731239
58.8254058047615
59.0408712151538
59.2963708287346
59.592802393747
59.9272544365144
60.2956934692254
60.6939701774751
61.1177683846699
61.5625585286839
62.0235561153995
62.4956858778983
62.9735526490438
63.4514202117467
63.9231996129248
64.3824485967713
64.8223839086129
65.2359082170173
65.6156988721165
65.9574541886298
66.2621998186944
66.531662251989
66.7677684880018
66.9726249278865
67.1484960481291
67.2977833328874
67.4230049007237
67.5267762133891
67.6117922022166
67.680811094256
67.7366401679898
67.7821236194041
67.820129855164
67.8524142409978
67.8778804127392
67.8949874428568
67.9021968148891
67.8979765485573
67.8808060040249
67.8491813427325
67.8016216127035
67.7366754156964
67.6529281022627
67.5490094289045
67.4236015993875
67.2754476002102
67.1033597286016
66.9066120306268
66.6870082656602
66.4473267988503
66.1903174986394
65.9186849983932
65.6350767975788
65.342073693024
65.0421824477449
64.7378305783613
64.4313631236744
64.1250412458284
63.8210425108273
63.5214626961398
63.2283189788509
62.9435543674793
62.6689703501553
62.4050484998502
62.1511965704749
61.9068120730767
61.671315045127
61.4441463737019
61.2247662623242
61.012652829868
60.8073008311606
60.608220490011
60.4149364363553
60.2269867400676
60.0439220347371
59.8653047253813
59.6907082746539
59.519716562626
59.3519369786465
59.1874951585337
59.0271614021768
58.8717319468965
58.7219874379421
58.5786944864888
58.4426074096075
58.3144701456673
58.1950183407004
58.0849816034791
57.9850859294252
57.8960562959979
57.8186194349062
57.7535067893873
57.7014576679113
57.6632226090543
57.6395669759784
57.6311402300769
57.6374429259002
57.6573946534029
57.689927470946
57.7339859951015
57.788522937475
57.8524950493012
57.9248594556443
58.0045703670195
58.0905761615993
58.1818168359136
58.2772218261582
58.37570820588
58.4761792689338
58.577523509175
58.678614010352
58.7783201927064
58.8759449409374
58.9713575648605
59.0644639911188
59.1551697032505
59.2433798091015
59.3289991114147
59.4119321815721
59.4920834364645
59.5693572184465
59.6436578783294
59.7148898613516
59.7829577960576
59.8477665860019
59.9092215041875
59.9672282901344
60.0216933672593
60.0725282500696
60.119650913608
60.1629806363368
60.2024377275505
60.2379436229997
60.2694209814667
60.2967937821184
60.3199874224555
60.3389288166713
60.3535464942224
60.363770698411
60.3695334847676
60.3707688190212
60.3674126744366
60.3594031282925
60.3466956765307
60.3295979159629
60.3087683644117
60.2848804844864
60.258606703365
60.2306178091366
60.2015824977041
60.1721670694172
60.143035274257
60.1148483041798
60.0882649311587
60.0639417895199
60.0425338013699
60.0246947442351
60.0110779604935
60.0023372087616
59.999142320577
60.0025029551313
60.0137705143891
60.0343187110878
60.0655328353532
60.1088143471994
60.1655861597925
60.2372986522374
60.3254364621927
60.4315261220755
60.5571446183122
60.7039289714092
60.8735869560733
61.0679091058467
61.2887821765348
61.5382042781283
61.8173997973796
62.1228692603514
62.4494118710328
62.7916356377796
63.1439225531159
63.5004016314718
63.8549318589449
64.2010963142608
64.5322088396498
64.8413346649893
65.1213262965409
65.3648757514264
65.5645838324727
65.7130465841716
65.803036020997
65.8329892388223
65.8105862587571
65.7445876495256
65.643882682869
65.5173845204972
65.3739491990354
65.2223189125442
65.0710893150622
64.9287000659525
64.8034476121303
64.7035192263827
64.637047580009
64.6121856051122
64.6372020916712
64.7202968594856
64.8619074063271
65.0539151185788
65.2878123828408
65.5550163522151
65.8467652188947
66.1540361807087
66.4674860989714
66.7774166782777
67.073766587152
67.3461332391453
67.5838269097572
67.7759594128301
67.9115686454917
67.9798981644198
67.9771178185596
67.9098287115808
67.7857978113269
67.6129932665183
67.3994634331509
67.1532337900408
66.8822230040553
66.5941784925537
66.2966311061918
65.9968680300537
65.7019226695321
65.4185801331145
65.1533969251412
64.9127335940992
64.7025508918251
64.5237910169706
64.3729332058726
64.2464252338113
64.1408267257565
64.0527851255615
63.979015687621
63.9162851855211
63.8613991138861
63.8111922233829
63.7625222767031
63.7122669466624
63.6573237972428
63.5946132950613
63.5210847928338
63.4337704699641
63.331434634121
63.2150218371631
63.0856229872649
62.9443298386364
62.7922309200897
62.6304078451512
62.4599320098655
62.2818616795017
62.0972394610128
61.9070901543219
61.7124189723288
61.5142101169241
61.3134256962519
61.1110049669434
60.9078638840122
60.7049234814188
60.503465585895
60.3050137547028
60.1110578027083
59.9230497980485
59.7424069388735
59.570515061996
59.408732747354
59.258395990136
59.1208234212695
58.9973220666761
58.8891936462638
58.7977414250993
58.724277641684
58.6701315519169
58.6366581423827
58.6252411398221
58.636529746585
58.6697093987424
58.7238375435481
58.7980106526051
58.8913576902511
59.0030340145753
59.1322156542457
59.2780939129
59.4398702604685
59.6167514776561
59.8079450260552
60.0126546221159
60.2300759985923
60.4593928421751
60.6997729009055
60.9503528014902
61.2099362946349
61.4769507848932
61.749752578525
62.0266391246377
62.3058455393068
62.5855420411609
62.8638323928162
63.1387534493179
63.4082759190468
63.6703064439074
63.9226911034848
64.1632204417381
64.3896361041533
64.5996391576744
64.7909870407254
64.9626062470516
65.1142998156132
65.2459274250539
65.357387182955
65.4486158903394
65.5195891212234
65.5703211174976
65.6008645010551
65.6113098066809
65.6017848407583
65.5724538723086
65.5235166642438
65.4552073539605
65.3677931935225
65.2617721718782
65.1386264523991
65.0001333945968
64.8480659216131
64.6841849299518
64.5102327498883
64.327927596822
64.1389589995516
63.944984180373
63.7476253531484
63.548467898986
63.3490593747708
63.1509093073324
62.9554897253509
62.7642363819988
62.5785481769817
62.3997591065507
62.2291513742373
62.0679824969833
61.9174897013944
61.7788942395625
61.653406147383
61.5422294444191
61.4465677827602
61.3676305614254
61.3066395327806
61.2648359383112
61.243488223108
61.2439003918232
61.2674210839577
61.3154534635091
61.3890612682803
61.4875960799021
61.6099697834393
61.7551316627315
61.9220598151394
62.109753048624
62.3172232037519
62.5434878420024
62.7875632529493
63.0484577432219
63.3251651798393
63.6166587697487
63.9218850663308
64.2397582023947
64.5691538097307
64.908026912433
65.2515632243078
65.5942300314334
65.9302600824358
66.2536552357505
66.5582009986636
66.8374929630635
67.0849759994624
67.2939968213357
67.457870167379
67.5699583676048
67.6237634670687
67.6130303966834
67.5318589353941
67.3765606934067
67.1540795337816
66.8752438840593
66.5508788135979
66.1916445307237
65.8079157599
65.409696297254
65.0065668078875
64.607663085477
64.2216815914825
63.8569090614449
63.5212732375757
63.2224122939532
62.9677612101168
62.764654185784
62.6200981621511
62.5352583037925
62.5065248638625
62.5304523811209
62.6038632925144
62.7237954027205
62.8874549451095
63.092174160268
63.3353725337822
63.6145210132297
63.9271086750576
64.2706114428254
64.6424625750137
65.0400247478028
65.4605636593756
65.9009438612248
66.3563664862721
66.8212607501282
67.2897341195266
67.7555552478583
68.2121473515252
68.6525939870797
69.0696589290747
69.4558217797419
69.8033307331452
70.1042735450607
70.3506672086689
70.5345660993516
70.6482521619224
70.6888522339235
70.6613629771397
70.5718663168694
70.4267315566422
70.2325115448642
69.9958483897422
69.7233904649685
69.4217217876355
69.0973042595474
68.7564327655464
68.405202728808
68.0494894353067
67.6949382528859
67.3469646837697
67.0103201913799
66.688112327886
66.3830369026309
66.0977037413487
65.8346531304829
65.596373916665
65.3853232220731
65.2039477991459
65.0547071151881
64.9400983299828
64.8626834093737
64.8251187073637
64.8301874518343
64.8808356887793
64.980182439691
65.1288706019415
65.3228870800495
65.5578054986437
65.8292223780753
66.1327012108083
66.4637221490349
66.817637103535
67.1896303344736
67.5746848702566
67.9675553218915
68.3627478649395
68.7545083329649
69.136819495981
69.5034742901845
69.8501176401074
70.1747466523146
70.4754853810982
70.750457570448
70.9977983310819
71.215666686807
71.4022588943764
71.5558224163734
71.6746704020746
71.757196507489
71.8018898636856
71.807349982996
71.7723016164622
71.6967835015355
71.5848580856352
71.4414604920231
71.2715425229465
71.0800335958603
70.8718086002985
70.6516627145459
70.4242930579602
70.1942869329295
69.966116328962
69.7441383176811
69.5326009580859
69.3356543525289
69.1573593014912
68.9999130122393
68.8613555753408
68.7392061731378
68.6310426396418
68.5344907819048
68.4472155213798
68.3669137511225
68.2913088284808
68.2181466413827
68.1451931999203
68.0702337139829
67.9910731224732
67.9055380403441
67.8114801130214
67.707730591425
67.5965919232536
67.4811254458241
67.3643540856125
67.2492600065438
67.1387849417821
67.0358331158236
66.9432766702516
66.8639635222444
66.8007276093113
66.7564015064633
66.7338314430581
66.7358947961967
66.7655201965147
66.8255333353642
66.9167134171489
67.0385051450317
67.1904022061645
67.3719672785753
67.5828271406738
67.8226682265508
68.0912325680812
68.3883140710845
68.713755078029
69.0674431741362
69.4493081973588
69.8593194156738
70.2974828375286
70.7625665892106
71.2481408471061
71.7461205704663
72.24795929006
72.7446213650852
73.2265754267467
73.6838122158211
74.1058900381393
74.4820107738558
74.8011287207647
75.052093478989
75.2238265709632
75.3055817284265
75.2934381366629
75.196387247479
75.0253423170177
74.7915065453919
74.5061747390383
74.1805671977618
73.8256979228508
73.4522774015101
73.0706488159619
72.6907555662041
72.3221374584748
71.9739527484801
71.6550233809869
71.3725387670053
71.124833467409
70.906947963466
70.7141059006492
70.541685990797
70.3851922369332
70.2402305801428
70.1024914983071
69.9677381990401
69.8318001281819
69.6905715642764
69.5400150912754
69.3761697384276
69.1951635499515
68.9945227990503
68.7775088055615
68.5488725217689
68.3132601232877
68.0752014454304
67.8391047755597
67.6092575576135
67.3898326012783
67.1848994119359
66.9984403081771
66.8343710679557
66.6965659398367
66.588886970904
66.5152177377418
66.4792988112225
66.4809261606885
66.5162885135172
66.5815295295749
66.6728501398353
66.7864761499012
66.918630306768
67.0655086331203
67.2232609578347
67.3879756752464
67.5556688502143
67.7222778509876
67.8836597363104
68.0355946453323
68.1738398371719
68.2955329756649
68.3994877695752
68.4846291352512
68.5499025759836
68.5942799056613
68.6167651715146
68.6164007262962
68.5922733941889
68.5435206691245
68.469336879234
68.3689792469864
68.2417737714002
68.0871208566807
67.9045185871363
67.6948013245357
67.4608947345999
67.2058970467306
66.9328672647613
66.6448087742465
66.3446558743488
66.0352631491617
65.7193975503999
65.3997330318717
65.0788475552128
64.7592222749574
64.443242707969
64.1332016963361
63.8313039828639
63.5396675315046
63.2595483873781
62.9905100203965
62.7319266223939
62.4831972176934
62.2437437949129
62.0130095956734
61.7904575470408
61.5755688259392
61.367841545029
61.1667895506466
60.9719413243803
60.7828389807296
60.5990373540599
60.4201031687484
60.2456142870217
60.0751598020535
59.908431595565
59.745308364248
59.5856923635834
59.4294883249633
59.2766033546165
59.1269468371122
58.980430343211
58.8369675418444
58.6964741160163
58.5588676824368
58.4240677147024
58.2919954698555
58.1625739181595
58.0357276759394
57.9113829413439
57.7894674328951
57.6699744570943
57.5537647473198
57.4423082158585
57.3370671626484
57.2394852978601
57.1509913780797
57.0730035318155
57.0069342673367
56.9541961657126
56.9162082731801
56.8944032197137
56.890235105085
56.9051882100015
56.9407866084567
56.9986047786302
57.080279334121
57.1875220257045
57.321618005537
57.480606421216
57.6612148598835
57.8601323863256
58.0739884773989
58.2993322709545
58.5326155183502
58.7701794637944
59.008245954478
59.2429131479162
59.470156224076
59.6858335259183
59.8856985386241
60.0654180706121
60.2205969144758
60.3468091401392
60.440512241672
60.5024597480256
60.5347939492367
60.5397587878416
60.5196783027699
60.4769365062581
60.4139587134354
60.3331945443947
60.2371027619456
60.128138055499
60.008739834049
59.881323049975
59.7482710409598
59.6119303499783
59.4746074630199
59.3385673907378
59.2058592554219
59.0769816133386
58.9516486662441
58.8295738144428
58.7104758180094
58.5940784880137
58.4801104077943
58.3683046829109
58.2583987185208
58.1501340230233
58.0432560369052
57.9375139857945
57.8326607567972
57.7284527972457
57.6246500350355
57.5210158197636
57.4173168861055
57.3134018691949
57.2094066499374
57.1055298186564
57.0019671039062
56.8989114002125
56.7965528088034
56.6950786908341
56.5946737326223
56.4955200224354
56.3977971383903
56.301682247053
56.2073502123546
56.1149737144694
56.0247233783333
55.9367679115156
55.8512742511939
55.76840772002
55.6884900688413
55.6129580707976
55.5437169916139
55.4826582901378
55.4316626913595
55.3926064635192
55.3673689564631
55.3578414239989
55.3659371765286
55.3936031378391
55.4428329121785
55.5156815053979
55.6142818880848
55.7408636406786
55.8977739824382
56.0875015602792
56.3127034631348
56.5756284573773
56.8739119760233
57.2028947527405
57.5577632515635
57.9335089624713
58.3248814972049
58.726349455023
59.1320701658112
59.5358697258851
59.9312349900471
60.3113193493675
60.6689641797311
60.9967377598675
61.2869931972687
61.5319464376917
61.7237936355158
61.858015383513
61.9371383426423
61.96489369509
61.9452965556816
61.8825816393924
61.7811418754688
61.645471343023
61.4801135930911
61.2896161163212
61.0784914294433
60.8511849991137
60.6120500062539
60.3653287815157
60.1151406138147
59.8654755473882
59.6201930774817
59.3825541790219
59.1544208565351
58.9373813832977
58.7329840432185
58.5427440969661
58.3681514281623
58.2106788553488
58.0717911131718
57.9529545251617
57.8556474108482
57.7813712920565
57.7316629875445
57.7081077122478
57.7123533280626
57.7461259282732
57.8112469786451
57.9094768465225
58.0391928243955
58.1955882825512
58.3737078317773
58.5685245864318
58.7749054842389
58.9875849995847
59.2011477051776
59.4100203073318
59.6084738860086
59.7906371026983
59.9505210863224
60.0820565586903
60.1791435077816
60.2357133546987
60.2458030907406
60.2040127022665
60.1109164671713
59.9717824126785
59.7921321032336
59.5775444007121
59.3335882458348
59.0657657912816
58.7794661975986
58.4799300104223
58.1722237304955
57.8612239667625
57.5516104226284
57.2478668978637
56.9542894834566
56.6750011733239
56.4139722051781
56.1750455644174
55.9618665955018
55.7753455268946
55.6135443162831
55.4744853825648
55.3562829573093
55.2571287058474
55.1752790044689
55.10904368588
55.0567761005821
55.0168643717281
54.9877237462609
54.9677899664919
54.9555136043126
54.9493553153816
54.9477819832161
54.9492637333712
54.9522718059715
54.9552772808587
54.9572992038619
54.9595507176237
54.9637940814227
54.971792933826
54.9853141373514
55.006130760969
55.0360262127019
55.0767995442518
55.130271962499
55.1982945991162
55.2827576096881
55.3856006981061
55.5088251912122
55.6545078235528
55.8248164337668
56.0220278240348
56.2485480940545
56.5059496293369
56.7911341577808
57.099478651133
57.4261990648013
57.7663114234883
58.1145999792058
58.4655936117327
58.8135515834492
59.152459935892
59.4760399178643
59.7777698441738
60.0509216779131
60.2886133860527
60.4838777201542
60.6297475109338
60.7193605529232
60.7487666339085
60.7217849980093
60.6438203830852
60.5204982233063
60.3575771627467
60.1608706659855
59.9361790459952
59.6892326661489
59.4256465820863
59.1508864862768
58.8702455100036
58.5888312233783
58.3115620477071
58.0431722465451
57.7882246810573
57.5511305907354
57.3361082134642
57.1447687630605
56.9755306192278
56.8266874056564
56.6966082651109
56.5837269666847
56.486532222135
56.4035590813417
56.3333812998774
56.2746045911208
56.2258606918696
56.185802184464
56.1530980303624
56.1264297802045
56.1044884338497
56.085971930859
56.0695832575014
56.0540437277571
56.0393959050616
56.0280321127447
56.0225844382462
56.0256858013929
56.0399767576956
56.0681148043516
56.1127862463194
56.176720722282
56.2627085440857
56.373621069725
56.5124344111904
56.6822568774372
56.8863606733978
57.1282185238431
57.411546073388
57.740351140978
58.1184094444257
58.5435102673972
59.0095251603587
59.5099795352599
60.0380078740277
60.5862663536296
61.1468589357143
61.711279964231
62.2703771521395
62.8143395314269
63.3327154021623
63.8144654369752
64.248055753526
64.6215948352961
64.9230165571471
65.1423781855295
65.2811196577085
65.3449900925583
65.3403381150222
65.273968522037
65.1530071927097
64.9847761936127
64.7766822781335
64.5361209578986
64.2703973804891
63.9866644311209
63.6918778163342
63.3927673966477
63.0958237100205
62.8072984563517
62.5329573254451
62.2744124921064
62.0301606901067
61.7986765428945
61.5784900057438
61.3681805645191
61.166372238312
60.9717293188145
60.7829527889526
60.5987773712601
60.4179691629486
60.2393238198093
60.0616652551127
59.8838448226898
59.7047409554791
59.5232592321203
59.3383677093434
59.1501523108201
58.9599746045806
58.7692357488428
58.5793016111752
58.3915031045036
58.2071371349261
58.0274681204904
57.8537300429242
57.6871289980709
57.5288462153618
57.3800415219452
57.2418572330252
57.1154224564842
57.0018578069605
56.9022805322331
56.8178100630703
56.7495083084824
56.6971442337282
56.6593108543331
56.6345871775742
56.6215765620627
56.6189006232689
56.6251938766888
56.6390990822083
56.659263263613
56.684334386019
56.7129586813936
56.7437786183666
56.7754315172635
56.8065488147278
56.8357559844475
56.8616731213347
56.8829161960086
56.8982478707675
56.9082298697186
56.9146212400272
56.9192059402584
56.9237697625736
56.9300997598345
56.9399847940429
56.9552172091023
56.9775956338236
57.0089289270233
57.0510412855414
57.105778548147
57.1750157437797
57.2606659516957
57.3646905642376
57.4891110707199
57.6360225140713
57.8070744538928
58.001856180396
58.2194551658829
58.458976964483
58.7195369667027
59.000252438786
59.300234793315
59.6185820484523
59.9543714437322
60.3066521905577
60.6744383457699
61.056701806988
61.4523654390108
61.860296351525
62.2792993597681
62.7079629058546
63.1427584817587
63.5784684717272
64.0095491127912
64.4301603291762
64.8341745955321
65.2151976543459
65.5666023432762
65.8815765902649
66.1531863096612
66.3744534707179
66.5384490089468
66.638399521262
66.6678058528374
66.6205933304832
66.4950155990094
66.2978826808574
66.0373556533462
65.7217601739845
65.3594460304175
64.9586669944406
64.5274822360131
64.0736794354511
63.6047188439323
63.1276968937652
62.649327539457
62.1759392933977
61.71348587333
61.2675684676839
60.8434678159266
60.4461211728143
60.0773995231574
59.7352314437497
59.4173956106358
59.1218001773885
58.8464670516082
58.5895181348834
58.349163284256
58.1236897931275
57.9114532226133
57.7108694418371
57.5204077584984
57.3385850400217
57.1639607413052
56.9951327680237
56.8307341149936
56.6694302275919
56.5099573384577
56.3525817345232
56.1994724085216
56.0528758647859
55.9149942776612
55.7879918531642
55.6740028023219
55.5751408780423
55.4935104562002
55.4312191750687
55.3903921855408
55.3731881082754
55.3818168438745
55.4185594397238
55.4857902840258
55.5860019762207
55.7218333166323
55.8960899998844
56.1099235336957
56.3606811051796
56.6452332820335
56.9604267177805
57.3030433387232
57.6697624521059
58.0571257398417
58.4615052874091
58.8790749760391
59.3057857383995
59.737345341598
60.1692035120575
60.5965433478004
61.0142800655733
61.41706819149
61.799474580935
62.1580028765193
62.4906388068334
62.7954084434398
63.0703594214344
63.3135764611861
63.5231977007567
63.6974316533722
63.8345745724851
63.9330279776185
63.9913160686187
64.0081027354995
63.9822078569924
63.9126225743531
63.7985232288374
63.639455367827
63.4381423997264
63.1999327654387
62.9302512490233
62.6344626189938
62.3178259932477
61.9854587197796
61.6423094770191
61.2931400872357
60.9425153941975
60.5948004759352
60.254164436997
59.9245900432075
59.6098885170336
59.3137188953879
59.0396114575166
58.7909797918791
58.5693581073442
58.3728012867553
58.1990729129799
58.0460376208313
57.9116455403438
57.7939186855148
57.6909390780623
57.6008384361255
57.5217892914387
57.4519974264614
57.3896955461009
57.3331381176818
57.2805973281859
57.230360119877
57.1807262745101
57.130007522595
57.0765764690544
57.0203516251921
56.9630543731989
56.9064958277195
56.8524728274618
56.8027690027485
56.7591569610475
56.7234015728358
56.697264347396
56.6825088982039
56.6809075104567
56.694248839101
56.7243467846263
56.7730506162111
56.8422564379866
56.93392012487
57.0500718904526
57.1925985895724
57.3602936983443
57.5496656336134
57.7571259847759
57.9790134658613
58.2115717667939
58.4509318070153
58.6930986924614
58.9339437676291
59.1692022207941
59.3944767380156
59.6052477052028
59.7968904215858
59.9646997069702
60.1039221545823
60.2097960982865
60.2779994664689
60.3086284390954
60.3045589713867
60.2688298133703
60.2045716522347
60.1149761862474
60.0032680661623
59.8726800300897
59.7264314434867
59.5677103536908
59.3996590807516
59.2253632945844
59.0478444731401
58.8700555970553
58.6948799122844
58.5251325823219
58.363558484148
58.2120549376773
58.0709583093446
57.9404322075244
57.8206466298419
57.711778751581
57.6140137412276
57.5275456072068
57.4525780802087
57.3893255358772
57.3380139630567
57.298881983264
57.2721819275777
57.2581809777302
57.2571623788509
57.269426732058
57.2952933759385
57.3350507504588
57.3878308511525
57.4515970993209
57.5242572682082
57.603707174973
57.6878248332923
57.774466128018
57.8614620435707
57.9466174890009
58.0277117690887
58.1025007522397
58.1687207819591
58.2240943690644
58.2663376862987
58.2931698654997
58.3023240700006
58.2915603060865
58.2595540298709
58.2082096656107
58.1401814608496
58.0581314011364
57.9647153754002
57.8625717885696
57.7543126337626
57.6425169977807
57.5297269446476
57.4184457023812
57.3111380676869
57.2102329412727
57.1181279124138
57.0371958246727
56.9697932748309
56.9182710237916
56.8849846623514
56.8716412462379
56.8782934640853
56.9047731759289
56.9509533306464
57.0167469855089
57.102106537342
57.2070231564407
57.3315264163896
57.4756841148308
57.6396022820232
57.8234253757761
58.0273366630518
58.2515587902237
58.4963545456975
58.7620278203536
59.048924773093
59.3571133985474
59.6849658717452
60.030226427146
60.3905473525472
60.7634739783053
61.146430798541
61.5367092866623
61.9314576676002
62.3276729582099
62.7221956310462
63.111707292923
63.4927317955494
63.8616402079355
64.2146600756513
64.5478894016466
64.8585804716441
65.1485918499033
65.4209766275981
65.6789372105724
65.925810421603
66.1650554019593
66.4002447051145
66.6350589367583
66.8732852690923
67.1188201467633
67.3756765095775
67.6479958862628
67.9400657672201
68.2563427462579
68.5998684897715
68.9666834026035
69.3506986981627
69.7455648466992
70.1446414057975
70.5409782922394
70.9273100318965
71.2960646040031
71.6393885158892
71.9491896243631
72.2171989349277
72.4350521387387
72.5943909775083
72.6875834062363
72.7124859938624
72.6700150770882
72.5614821690321
72.3885488707184
72.1531997630177
71.8577118472744
71.504621309728
71.0966884065806
70.6368612605471
70.1282393285157
69.5740372471056
68.9775496926581
68.3421178091256
67.671515427538
66.974408663187
66.2621699745098
65.5454093761007
64.8339032471048
64.1366166247679
63.4617514285683
62.8168149645036
62.2087039414427
61.6438002249983
61.1280755864536
60.6672037317902
60.2666789019131
59.9319413254566
59.6685108058397
59.4821307794485
59.3785856397757
59.356387377739
59.4068795192119
59.5215845824118
59.6923477626139
59.9111674215698
60.1700497556329
60.4608850055168
60.7753441334688
61.1047962046065
61.4402478057363
61.7723067186648
62.0911727070897
62.3866586231831
62.6482450210245
62.8651956037082
63.0308400361623
63.1474947151294
63.2188907627148
63.249003770723
63.2419985825428
63.2021774313888
63.1339325107952
63.0417037959589
62.9299426881523
62.8030818302895
62.6655112479271
62.5215608115354
62.3754888951429
62.2314770236389
62.0936302547666
61.9657207452494
61.8491906171482
61.7443033189382
61.6513206832487
61.5705138155345
61.5021642761887
61.4465653167706
61.4040231773066
61.3748584523305
61.3594075341158
61.3580241424383
61.3710809511957
61.3989713233291
61.4421111667524
61.5009409254167
61.5759272823537
61.6673892806534
61.7752273790574
61.8992956355557
62.0394696342229
62.1956455540386
62.3677393156377
62.5556857990799
62.7594381263332
62.9789670026905
63.2142601118054
63.4653215594366
63.732171361346
64.0148449711022
64.3133928438027
64.6278646194523
64.9569137749343
65.2966065661643
65.642580490081
65.9902851054933
66.3349739331859
66.6717028686048
66.9953358453478
67.3005584890794
67.5819004525945
67.8337670152066
68.050480356231
68.2263306682884
68.3556369603704
68.432841160109
68.4554852813127
68.4270317612528
68.3518211024148
68.2343600053219
68.0792638684416
67.8912043207283
67.6748625524619
67.4348889402574
67.1758692187632
66.9022972421062
66.6185542067503
66.3288940754555
66.0374348485279
65.7481552709833
65.4647316432065
65.188494651371
64.9191442336233
64.6563559604607
64.3998163130316
64.1492220795213
63.9042797929988
63.6647052078771
63.4302228123752
63.2005653745865
62.975473519955
62.7546953381361
62.5379860173812
62.325107504731
62.115828190434
61.9099236025711
61.7078863447354
61.5121487778672
61.3254155115219
61.1503298201545
60.9894831961329
60.8454269870549
60.720686051583
60.6177744136869
60.5392129473034
60.4875491824974
60.4653793912365
60.4753731874722
60.5203009646701
60.6030645974096
60.7267319564438
60.8945121819109
61.1062838525539
61.3566616538793
61.639770375638
61.9496128258998
62.2800070554313
62.6245343748572
62.9764989955407
63.3289005443417
63.6744210336868
64.0054280903074
64.3139963300121
64.5919486788422
64.8309191490277
65.0224380518476
65.1585072632129
65.2384534509721
65.2675207666432
65.2513795059524
65.1958932675325
65.1070433326878
64.9908626773046
64.8533806032498
64.7005785180464
64.5383570090354
64.3725140615166
64.2087340625404
64.0525871110522
63.9095381156644
63.7849651965718
63.6839755483941
63.6074467792109
63.5524293796749
63.5158965586002
63.4948710236923
63.4864090946621
63.4875877047658
63.495494178438
63.5072187182108
63.5198495685225
63.5304708478556
63.5361630541352
63.5340062515242
63.5210859396289
63.494501588667
63.4514560410914
63.3921171105574
63.3204084074611
63.2404792508238
63.1564467263771
63.0723878063941
62.9923368142061
62.9202880979404
62.8602037789525
62.8160264687959
62.7916969032422
62.7911765222954
62.8184751317159
62.8776839159708
62.9730142381517
63.1088317393667
63.2869221237565
63.5027597442175
63.750905556934
64.0258450093267
64.3219333655692
64.6333499535492
64.9540617943776
65.2777973982875
65.5980317710248
65.9079838611297
66.2006277744812
66.4687190683233
66.7048372915679
66.9014456417439
67.0519707111255
67.1563763579812
67.2173906725667
67.2379467050798
67.2211389389315
67.1701873337319
67.0884032757314
66.97915799107
66.8458538544611
66.6918989068837
66.5206847850114
66.3355681658339
66.1398557445085
65.9367926931952
65.7295491509357
65.5205783624416
65.3110337482218
65.1018985513329
64.8941311803208
64.6886656672787
64.4864123933541
64.2882590637253
64.0950719153108
63.9076971419642
63.7269625236057
63.5536792476259
63.3886439129445
63.2326407092981
63.0864437666569
62.9508196721311
62.8265481838514
62.7144786596377
62.6154783016713
62.5304176697208
62.4601746223774
62.4056385249095
62.3677147463889
62.3473294742668
62.3454348807042
62.3630146817974
62.4010901385491
62.4607265571826
62.5430403564118
62.649206780817
62.7804683528619
62.9378707404016
63.1198793439769
63.3234765495755
63.5455914046309
63.7830951177429
64.0327830262213
64.291359435516
64.5554255057957
64.8214704228744
65.0858661409829
65.344866021589
65.5946077130583
65.831120617499
66.0503382705416
66.2481213857997
66.4212047066402
66.568288491341
66.6883674720592
66.7804903214906
66.8437668372703
66.8773749854305
66.880567715655
66.8526794592375
66.7931322204503
66.7014411735543
66.5772196810385
66.4201836538659
66.2301551815186
66.0070653683774
65.7511485941656
65.4650461738463
65.1529264304039
64.818916076694
64.4670448852595
64.1012237198053
63.7252278590272
63.3426852986782
62.9570696533339
62.5716972414168
62.1897279222354
61.8141692584065
61.4478835974009
61.093597698687
60.7539145750385
60.4313272654864
60.1280261802386
59.8443375139169
59.5796811360896
59.3335124626399
59.1053275714336
58.8946607776203
58.7010824325782
58.524196926564
58.3636408773837
58.2190814893788
58.090215068789
57.9767656831176
57.8784839535202
57.7951459704901
57.7265523242331
57.672527242137
57.6329178285353
57.6075963705396
57.5964657806274
57.5994518176534
57.6165010413189
57.6475805451547
57.6926777653893
57.7518003641613
57.8249761860414
57.9122532873338
58.0137000381124
58.1294052974409
58.2594786627159
58.4040507945741
58.56327381932
58.7373218113661
58.9263913587364
59.1303159559333
59.3461785105548
59.5697830129285
59.796805647667
60.0227901407818
60.2431447540857
60.4531461616765
60.6479507334339
60.8226137076096
60.9721166385024
61.0914033510172
61.1754244188802
61.2191899080351
61.217829796282
61.1666611049353
61.0612617963324
60.8997854775859
60.6874649092809
60.4309329848482
60.1368356818743
59.8117478685584
59.4621039892042
59.0941436948235
58.713871940305
58.3270326678872
57.939094931649
57.5552501756539
57.1804193411922
56.8192685267658
56.4762320391854
56.1555418387372
55.8612625822782
55.5973316954498
55.3670464246845
55.1697539666653
55.0032290916296
54.8653878336716
54.7542730393798
54.668035449095
54.6049168696524
54.5632351484633
54.5413707104982
54.5377544630132
54.5508569093819
54.5791783444647
54.6212400305801
54.6755762761612
54.7407273591765
54.8152332548664
54.8976281426255
54.986444684844
55.0807047754416
55.1801818676953
55.2847119564559
55.3941307812527
55.5082734895564
55.6269743085047
55.7500662247651
55.8773806722935
56.0087472278312
56.1439933140664
56.2829439104633
56.4254212718453
56.5712446548958
56.7202300528199
56.8721899384853
57.0269330164437
57.1842322855451
57.3432199942171
57.5024196459355
57.6602995732119
57.8152946614791
57.9658072623491
58.1102089980593
58.2468435003109
58.3740301217789
58.4900686512262
58.5932450532729
58.6818382413634
58.7541278773403
58.8084031733527
58.842972651783
58.8561747967806
58.8463972020806
58.8133794666958
58.7596612547808
58.6881601161054
58.6018019753549
58.503505122779
58.3961671351912
58.2826547392358
58.1657965808502
58.0483788293604
57.9331435214089
57.8227895383714
57.719976110329
57.6273287492272
57.547447532827
57.4829176888531
57.4363224649968
57.4101912485715
57.405541926814
57.4218951949638
57.4587503254353
57.5156486067585
57.5921699600846
57.6879298238639
57.8025762737798
57.9357873485453
58.0872685552056
58.2567505302036
58.4439868347211
58.6487518647503
58.8708388580272
59.1100579814031
59.3662344834761
59.6391647389873
59.9267268235289
60.2240263975159
60.5257761540517
60.8264740564709
61.1203976129022
61.4016086211106
61.6639694389251
61.9011717682659
62.1067787685017
62.27428102476
62.3971664810309
62.4690039065198
62.4835388076595
62.4347999518119
62.3172138711562
62.1277101297884
61.8724401314996
61.5601758981258
61.1997272466422
60.7998021521623
60.3688927382907
59.9151870433609
59.4465056271735
58.9702612515554
58.493439340675
58.0225966679166
57.5638756791244
57.1230319983422
56.7054729258909
56.316305090443
55.9603898259646
55.6424052897045
55.3665393944365
55.1329360065446
54.9394598449091
54.7841580044115
54.6652703768476
54.5812076439661
54.530531952495
54.5119398549861
54.524247167407
54.5663754491531
54.6373398560047
54.7362381534499
54.8622407082547
55.014581301418
55.1925486266669
55.3954783562232
55.6227456703431
55.8737078313175
56.1463856113488
56.4372681724661
56.7426460280839
57.0586591936204
57.381277209443
57.7062841664384
58.0292693736535
58.3456243965609
58.6505472495268
58.9390545380612
59.2060023056048
59.4461162362225
59.6540316899766
59.8243437958372
59.9516674956893
60.0308487743112
60.0606983971202
60.044381184935
59.9854839997153
59.8877573241123
59.7550653573749
59.5913398023526
59.4005380861202
59.186606531428
58.9534487872675
58.7048996417449
58.4447041838453
58.1765021548352
57.9038172352131
57.6300509479525
57.3584808208409
57.0922624369033
56.8343024362655
56.5856202998688
56.3459278622694
56.1149217851397
55.892311642019
55.677819160638
55.4711775147947
55.2721306619732
55.0804327232313
54.8958474021785
54.7181474401414
54.5471141048532
54.3825367102319
54.22421216501
54.0719445481631
53.9255447092534
53.7848298919525
53.6496233791503
53.5198502877115
53.3963650186427
53.28052599649
53.1736784428136
53.0771530037834
52.9922707992536
52.9203491039167
52.8627076702345
52.8206757155803
52.7955996102557
52.7888513189813
52.8018376664322
52.8360105178084
52.8928779888414
52.974016826735
53.0810861352024
53.2158426541032
53.3801578486139
53.5756138080635
53.8002182160923
54.0500653136528
54.3211486019288
54.609338535278
54.9103500087154
55.2197156041437
55.5327652014006
55.8446127350851
56.1501510146764
56.4440556130685
56.7207988542647
56.9746748801129
57.1998366340058
57.3903453535815
57.5402328058065
57.6435773179892
57.6966417987146
57.7021296989859
57.6641611946919
57.5870438444255
57.4752116434551
57.3331693729591
57.1654431941735
56.9765381118002
56.7709026369678
56.5529007276445
56.3267908795692
56.0967120854939
55.8666762737338
55.6405667754297
55.4221423489138
55.2150463039206
55.0228203129276
54.8487915442407
54.6944600200019
54.5600576689692
54.4458219466826
54.3520266685211
54.27898457422
54.2270501336533
54.1966226264203
54.1881495318524
54.2021302708076
54.2391203461975
54.2997359357082
54.3846589978299
54.4946429612998
54.6305190786412
54.7932035369776
54.9837054340696
55.2031296557252
55.4516548032397
55.7273207817128
56.0278661507768
56.3509788722579
56.6942733113951
57.0552686788115
57.4313689900746
57.8198447011066
58.2178162575477
58.6222398738679
59.0298959321751
59.43738045905
59.8411001982357
60.2372718436335
60.6219260260249
60.9909499854951
61.3411321585972
61.6704305268277
61.9768523777381
62.2583965334626
62.5130668192188
62.7388867023141
62.9339149875428
63.0962624193795
63.2241090055092
63.315721841193
63.3694731811013
63.3838584759916
63.3575140674616
63.2892342163986
63.1780023916529
63.0248279439539
62.8344227299078
62.611942586338
62.3625196530705
62.0912166886742
61.8029900461049
61.5026611857057
61.1948963881961
60.8841941762861
60.5748798565472
60.2711065472384
59.976862055921
59.6959810056581
59.4321616735708
59.1889870946129
58.9699500919814
58.7775311056853
58.610048239203
58.4647801045162
58.3391074022854
58.230494483893
58.1364735690203
58.054631405052
57.9825981778079
57.9180385279462
57.8586445632122
57.8021307845937
57.7462308651658
57.6886962345083
57.6272964294407
57.5598211737469
57.4840841457827
57.3979429946439
57.3010534207182
57.1964978013679
57.0877129968941
56.9780877716875
56.8709600183509
56.7696179559341
56.6773051500119
56.5972292184882
56.5325741209201
56.4865159798744
56.4622424499037
56.4629757334785
56.4919994448576
56.5526896448456
56.6485505155345
56.7832553201726
56.9606054105343
57.1806482905234
57.437978171658
57.7267132125765
58.0408248668979
58.3740729890306
58.7199525402911
59.0716529676533
59.4220317929986
59.7636043119691
60.0885515296507
60.3887485180989
60.655815226038
60.8811913620993
61.0562362753428
61.1723537523329
61.2218875346015
61.2055960729715
61.1295671413784
61.000272243059
60.8243794112575
60.6086474842717
60.3598339508585
60.0846176526812
59.7895368644309
59.4809426388551
59.1649668170818
58.8475037647607
58.5342046922623
58.2304833369011
57.9415318084325
57.6723455072234
57.427756200693
57.2114963337978
57.022986782978
56.860569037807
56.7226870804397
56.6078743415963
56.5147419833389
56.4419683612329
56.3882895139994
56.3524905528389
56.33339784305
56.3298718880279
56.3408008407479
56.3650945808418
56.4016793067082
56.4494926020367
56.5074789449017
56.5745856353591
56.6498893823767
56.7329868396232
56.8236071138217
56.9214813688048
57.0263420624334
57.1379222104457
57.2559546755107
57.3801714800609
57.5103031417683
57.6460780308068
57.7872217483095
57.9334565256936
58.0845006447758
58.240067878852
58.399866955159
58.5636010393726
58.7309232906196
58.9008791602607
59.0720569323399
59.2430020967807
59.4122263052374
59.578207622417
59.739391556623
59.8941929126687
60.0409985076047
60.1781707850296
60.304052356964
60.4169714932414
60.5152485670476
60.5972034516049
60.6611638471206
60.7054744991644
60.7287168929081
60.730999193137
60.713117061347
60.6759080775762
60.620243781854
60.5470243676211
60.4571735014339
60.3516333124907
60.2313595900373
60.0973172211074
59.9504758954539
59.7918060990449
59.6222754122265
59.4428451236769
59.2544671666565
59.0580813798395
58.8546769810667
58.6464901139421
58.436857914327
58.2290681646676
58.0263161297101
57.8317091399234
57.6482744737592
57.4789703147315
57.3266996039648
57.1943266650595
57.0846965449394
57.0006570915775
56.9450838777125
56.9209081803866
56.9311483418916
56.9789449723541
57.0676006130978
57.2000812531236
57.3743075798138
57.5853415706756
57.828207302903
58.0978601287109
58.3891315422771
58.6966821630415
59.0149632420802
59.3381874382784
59.6603098962293
59.9750208774359
60.2757513341864
60.5556928507723
60.8078332863645
61.025009214835
61.1999759012087
61.3273546330021
61.40868655949
61.4472955569908
61.446712317253
61.4106268820266
61.3428438755759
61.2472412942337
61.1277335098937
60.9882389494326
60.8326527329041
60.6648243960644
60.488540691285
60.3075133570711
60.1253716705156
59.9456595480895
59.7718369363703
59.6070885822466
59.4536743796269
59.3135817971336
59.1887744813655
59.0812022055872
58.9928120453402
58.9255608216697
58.8814288793759
58.8624353052229
58.8706547335648
58.9082359355545
58.9774224445333
59.0805755363863
59.2201999622341
59.3989729252088
59.6197769076633
59.8847480043612
60.1904309541468
60.5312370475335
60.9014203491823
61.2950120085542
61.7057613224414
62.127087373667
62.5520427016817
62.9732908803277
63.3831002033819
63.7733558757682
64.135593135958
64.4610535472035
64.7407662469693
64.9656569139923
65.1294101522576
65.2342176457309
65.2842039758487
65.2838138767422
65.2377398565465
65.1508533097006
65.0281407196867
64.8746461845734
64.6954211371423
64.4954817962991
64.2797745908094
64.0531495490596
63.8203414539229
63.5859584205695
63.3544774650363
63.1295923863869
62.9117576032259
62.7004781196334
62.4952736146307
62.2956776517008
62.1012367827471
61.9115097356239
61.7260666797378
61.5444885647456
61.3663665278325
61.1913013654599
61.0189030658264
60.8487903985996
60.6805905587432
60.5139388614993
60.3484784964911
60.1842428728983
60.0226505520856
59.8654036729925
59.7141695344036
59.5705837450838
59.4362542369274
59.3127661049255
59.2016872482142
59.1045747985585
59.0229823363077
58.9584679091934
58.9126028864575
58.8869816999245
58.8832325451059
58.9030291397154
58.9481036646823
59.019812124457
59.1156727619316
59.231207305213
59.3618941968854
59.5031579212188
59.6503485342618
59.7987281721437
59.9434648398561
60.0796338509745
60.2022273080889
60.3061719793674
60.3863558340019
60.4376633447154
60.4550194477418
60.4334417718531
60.3681004148182
60.2553053311282
60.0975317649238
59.8997380754723
59.6669434877469
59.4041627592968
59.1163550288905
58.8083812931072
58.4849705099421
58.1506940711101
57.8099481906444
57.4669436240613
57.1257020544562
56.7900584523209
56.4636687268149
56.1500220299154
55.8524571441745
55.5741824736264
55.3182053859425
55.0855985735364
54.8757417865545
54.6880142073779
54.5218554763261
54.3767620843211
54.2522841748246
54.1480227173054
54.0636270195403
53.9987925504877
53.9532590493835
53.9268089001817
53.9192657535652
53.930493381545
53.9603947522027
54.0089113144545
54.0760224848687
54.1617453305886
54.2660608620306
54.3884614684351
54.5282363482107
54.6846899859154
54.8571381657563
55.0449032980956
55.2473099304275
55.4636804187737
55.6933307404008
55.9355664334661
56.1896786537365
56.4549403429531
56.7306025077997
57.0158906128115
57.3100010949625
57.6120980121242
57.9213075279287
58.2363218695983
58.5549282801249
58.8747055435261
59.1931248658158
59.5075485211113
59.8152308028748
60.1133215288751
60.3988723445956
60.6688460546839
60.9201291839332
61.1495479266948
61.3538875854014
61.5299155244426
61.6744075751432
61.7841777221318
61.8564257457029
61.8918603838819
61.8934037464426
61.8641263191671
61.8071853877682
61.7257954451377
61.6232014825631
61.5026554603614
61.3673961464739
61.2206324167819
61.0655300303849
60.9052018279748
60.7427012520741
60.5810190539291
60.4230830324644
60.2717606447972
60.129675959762
59.9977767859322
59.8761651596799
59.7649434026697
59.664221611976
59.5741181620089
59.4947602305938
59.4262843519169
59.3688369992553
59.3225752006438
59.2876671908873
59.2642931036193
59.2526457074281
59.2529311904359
59.2653699981181
59.2901977296053
59.3276453852355
59.377599260381
59.4396527263643
59.5134007407756
59.598447872559
59.6944066750993
59.8008961322897
59.9175401702677
60.0439662284419
60.1798038843
60.3246835272949
60.4782350778689
60.6400867483901
60.8098638434689
60.9871875977792
61.1716740501517
61.3627375308666
61.5586314792111
61.7571471420524
61.9560178714152
62.1529181336136
62.3454636550181
62.531213385702
62.7076733939833
62.8723027965614
63.0225218136841
63.1557220160155
63.2692787992189
63.3605660835651
63.4269731892742
63.465923784358
63.4752053405786
63.4553663539014
63.4084150985623
63.3364324986694
63.2415438735797
63.1259032346117
62.9916788626108
62.8410402817521
62.6761467070398
62.499137008421
62.3121212039057
62.1171734679435
61.9163266197405
61.7115680391829
61.5048369454289
61.2980230500004
61.0931003385839
60.8923934942075
60.6982421818471
60.5129282364557
60.3386820138214
60.1776903045017
60.0321057372384
59.9040576257484
59.7956642441132
59.7090465512035
59.6463434239712
59.6097285036181
59.6014288085387
59.6237453248583
59.6790758511325
59.7699404160484
59.8977581725326
60.0595190653718
60.2512141199085
60.4688208199082
60.7082635989337
60.9653794091548
61.2358884098574
61.5153700054165
61.7992446247487
62.0827617693144
62.3609949602864
62.6288442812469
62.8810472328698
63.1121985817426
63.3167797879697
63.4898547638673
63.6303239143098
63.7385725702349
63.8150971559911
63.8604975405894
63.8754706031533
63.8608032161981
63.8173647574261
63.7460992621893
63.6480173278949
63.5241878786027
63.3757298931231
63.2038041933481
63.0096053816365
62.7943540071288
62.5593387161686
62.3067169731495
62.0393427428544
61.7600294232537
61.4715154691208
61.1764562486406
60.8774184272969
60.5768767038249
60.2772127101623
59.9807158830565
59.6895861180673
59.4059380259288
59.1318066254707
58.8691543255466
58.6198790698216
58.3858235421695
58.1687852460839
57.9699903192325
57.7888838127842
57.6245854304435
57.4762594522422
57.3431102886575
57.2243784217223
57.1193366914999
57.0272868916268
56.947556642267
56.8794965128675
56.8224773706443
56.7758879338423
56.7391325115508
56.7116289142873
56.692806521711
56.6821044957498
56.6789704779806
56.683111664237
56.6949399566065
56.7149937872375
56.7438199573842
56.7819752651306
56.8300282637439
56.8885611605879
56.9581718681817
57.0394762208392
57.1331103724037
57.2397333929293
57.3600300848087
57.4947140418438
57.6445309781695
57.8102623578408
57.9927293603615
58.1926525051167
58.4085602752531
58.6371941874421
58.8751584666454
59.1189519674198
59.3649578633429
59.6094374702434
59.8485285801927
60.0782487098194
60.2945036683436
60.4931018236911
60.6697743851518
60.8202019248864
60.9400472258882
61.0249943702808
61.0707937709513
61.0742130527016
61.0374381090248
60.9647051443821
60.8603508144772
60.728762404727
60.5743364436989
60.4014435540694
60.2143997418291
60.0174441337901
59.8147230222436
59.6102799645534
59.4080516131754
59.211868915286
59.0254633173085
58.8524776343451
58.6964812942277
58.5608759266791
58.4464267972491
58.3513292604186
58.273727739266
58.2118185357744
58.1638396822861
58.1280620528785
58.1027816406312
58.0863129285264
58.0769833000337
58.0731284506879
58.073088774475
58.0752067088079
58.077825029438
58.0792860918876
58.0779320189418
58.0721058344256
58.0608420023356
58.0462022290498
58.03107542012
58.0183448966873
58.0108893231709
58.011586516775
58.0233201137871
58.0489891126153
58.0915203474369
58.1538839927759
58.2391122591976
58.3503215151001
58.4907381615884
58.6637286999352
58.8728345687995
59.1218124975088
59.4141914534424
59.7494822354448
60.1250735221638
60.5383247355362
60.98654172179
61.4669360097197
61.9765854185038
62.512395986216
63.0710653569926
63.6490479371731
64.2425223099581
64.8473615836979
65.4591075381469
66.0729496206928
66.6837178509181
67.2864267313362
67.8766890760603
68.4499446996076
69.0013923394889
69.5260106251303
70.0185869314726
70.4737546571032
70.8860392758445
71.2499132600677
71.5598596643637
71.8104437949404
71.9963919840247
72.112676056338
72.1561140626167
72.1299869100708
72.0394885893776
71.8901249586404
71.6876219673702
71.4378398425303
71.1466949880146
70.8200908417874
70.4638584558524
70.0837071349931
69.6851851050466
69.2736498876341
68.8542478371672
68.4319021444427
68.010708520147
67.5919632142233
67.1761935418465
66.7639004806523
66.355559598312
65.9516220104404
65.5525153800724
65.1586449503899
64.7703946031897
64.3881279363811
64.0121893545602
63.6429051674401
63.2805846916118
62.9255213517688
62.577993778151
62.2382963593758
61.9071567468529
61.5856175827823
61.2746881136836
60.9753388980548
60.6885062586106
60.4150969180185
60.1559928038642
59.9120560151375
59.684133949049
59.4730645935144
59.2796819972335
59.1048219360301
58.9493278011017
58.8140567421868
58.6998861065296
58.6077200364005
58.5384653818761
58.4930045038902
58.4722614611845
58.4772184580917
58.5089244411924
58.5685044908101
58.6571701410781
58.7762307844579
58.9271063429975
59.1113414202632
59.3306211859635
59.5867892913273
59.8818681692112
60.2180821411104
60.5978838368189
61.0238388674887
61.4941415998667
62.0014203402262
62.5375538563515
63.0938732888668
63.6610775386404
64.2291714083118
64.787431537053
65.3244059727232
65.8279536551262
66.285329982356
66.6833238313419
67.0084497487782
67.2471964126196
67.3863507544342
67.4188018143314
67.3510189089293
67.1921210360024
66.9518499152204
66.6403297617116
66.2678489248526
65.8446693202395
65.3808671591374
64.886206323139
64.3700439564139
63.8412665046908
63.308253518423
62.778866020297
62.2604560553787
61.759894127748
61.2834250523932
60.8341012557005
60.4126419607722
60.0196973918533
59.6559198648309
59.321974178349
59.0185480559014
58.7463627438748
58.5061838835735
58.2988327900198
58.1251982874034
57.98624927116
57.8830481906309
57.8167656751061
57.7886965610118
57.800277620599
57.8531073446328
57.9481374561378
58.0831742293863
58.2553109738011
58.4617136853135
58.6995836858282
58.9661232390677
59.25850378213
59.5738365520305
59.9091455146418
60.2613426231206
60.6272055461453
61.0033581139007
61.3862538313354
61.7721629022119
62.1571632910732
62.5372762524162
62.9105047323303
63.2764875550223
63.6349087246382
63.9854537789559
64.3278104051466
64.6616690687862
64.9867236541513
65.3026721136969
65.6092171244845
65.9060667492047
66.1929350993333
66.469542997858
66.7356186389334
66.990896045803
67.2348501988565
67.4664345047028
67.6845315852674
67.8880159540079
68.0757582378435
68.246629775207
68.3995075752621
68.5332796170631
68.6468504608574
68.7391471369143
68.8091252703645
68.8557753936788
68.8781293917718
68.8752793029188
68.8472317949318
68.7954566409672
68.7215963078373
68.6273244057824
68.5143355989085
68.3843362421446
68.2390358071267
68.0801391414972
67.909339589529
67.7283129869987
67.538712530017
67.3421645061905
67.1402648670574
66.9345766132024
66.7269263082537
66.5203998379749
66.3183630328537
66.1241008189173
65.9408239264782
65.7716786609174
65.619759568665
65.488124888605
65.3798147363108
65.2978720356634
65.2453662899299
65.2254203734459
65.2412406276701
65.2961506646452
65.393591977019
65.533798751239
65.7110674189487
65.9190681483082
66.151400104766
66.4015354690333
66.6627754398576
66.9282187832037
67.190743817699
67.443004953596
67.6774450139923
67.886324543373
68.0617691291245
68.1958354080562
68.2806240869503
68.3131227025422
68.3006310240535
68.251920108009
68.1758470729243
68.0812731000994
67.97700432802
67.8717558080144
67.7741381732277
67.6926664081421
67.6357900838633
67.6119446332538
67.6296236704096
67.6974730104836
67.8244072547325
68.0164051999438
68.268729561537
68.574480899015
68.9267553256882
69.3185354475351
69.7425941220929
70.1914109963288
70.6571025920202
71.1313674314863
71.605448327154
72.0701144705535
72.5156663099959
72.931966348771
73.3099860832954
73.6484279021904
73.9487622943759
74.2126606502229
74.4419753600006
74.6387209462193
74.8050550027306
74.9432593185437
75.055721532684
75.1449176295907
75.2133955445091
75.2637601069663
75.2986552992081
75.3190664034354
75.3217298852084
75.3027405650448
75.258234374609
75.1844125834198
75.0775695809102
74.9341238416617
74.7506515851479
74.5239225206396
74.2509369488338
73.9289633809333
73.5555757405513
73.1286892113275
72.649075410952
72.1266744822654
71.5731142306303
70.9994959065645
70.4163282113468
69.8334962310467
69.2602608852361
68.7052844079756
68.176677650933
67.6820655181872
67.2286675308694
66.8233913182094
66.4729377018508
66.1839169657892
65.9626782966321
65.8089187883247
65.7159161536187
65.6770801584627
65.6861395971204
65.7370452822193
65.8238870974487
65.9408233273567
66.0820210960269
66.2416072496582
66.4136294291952
66.5920274106969
66.770615048258
66.9430733363679
67.1029624506687
67.2455497340989
67.3702638313571
67.4771512500541
67.566289552274
67.6377867352071
67.6917804907994
67.728437351327
67.7479517285533
67.7505448547719
67.7364636345821
67.7059794166761
67.6593866952453
67.5970017508283
67.5191612405334
67.4263798085878
67.3198841213966
67.2010947547253
67.0714280731092
66.9322915314378
66.7850795938545
66.6311702628014
66.4719222098753
66.3086724947747
66.1427348543283
65.9753985403822
65.8079276831111
65.6415611550597
65.4775129108299
65.3169677740938
65.1606368791438
65.0084181952399
64.8601300286785
64.715594723138
64.5746384514383
64.4370910197904
64.3027856838923
64.171558976277
64.0432505443601
63.9177029986763
63.7947617708292
63.6742749807132
63.5560933125988
63.4400698996976
63.3260612016854
63.2146373909878
63.1083199553633
63.0099324438363
62.9222674696604
62.8480951687431
62.7901740585045
62.7512642911149
62.7341433398752
62.7416242114431
62.7765763405583
62.8419493993868
62.9408003427881
63.0763241168268
63.2518885849527
63.4710743801653
63.7357861613839
64.0403503943413
64.3770387820166
64.7378796043833
65.1145812757937
65.4984746413211
65.8804761315739
66.2510744701489
66.6003439769324
66.9179875731593
67.1934123018189
67.4158394630477
67.5744502776274
67.6585663136887
67.6593309322296
67.5788691049834
67.4243626003198
67.2034038144176
66.9238257884887
66.5935640653031
66.2205353299685
65.8125346422604
65.3771520027852
64.9217081045113
64.4532084269176
63.9783143342053
63.5033295287874
63.0342000640157
62.57652610833
62.1355317758294
61.7142286960148
61.3130492267083
60.9322571425154
60.5721160585293
60.2328932205664
59.9148632542926
59.6183118988033
59.3435397520868
59.0908660578489
58.8606325654721
58.6532074975062
58.4689896621072
58.3084127513576
58.1719498705153
58.0601183480663
57.9734848821413
57.9123606920455
57.8751247500719
57.8594359667106
57.863007920132
57.8835947445996
57.9189770264343
57.9669495439732
58.0253107565023
58.0918539842946
58.1643602530492
58.2405928016815
58.318293272784
58.3951796202026
58.468945777932
58.5372631387188
58.5977838890822
58.6482306560517
58.6885818877088
58.721283712341
58.7489240877042
58.774104533652
58.7994368125338
58.8275419154353
58.8610513782444
58.902610952154
58.9548866626445
59.0205733094682
59.1024054880491
59.2031712506202
59.325728574302
59.473024864567
59.6481197981511
59.8541396875138
60.0916501625095
60.3578022820824
60.6494842476299
60.9635142242722
61.2966120305894
61.6453736725912
62.0062489196605
62.3755222384277
62.7492975094357
63.1234870485943
63.4938055369224
63.8557695227865
64.2047031944239
64.5357511197859
64.8440112557051
65.1264356766919
65.3816425636137
65.6083447604406
65.8053066750484
65.9713537652112
66.1053820000302
66.2063671783832
66.2733739803333
66.3055646240174
66.302206999639
66.2626821540088
66.1864910037569
66.0732601629266
65.9227467811159
65.7354969119828
65.5147764776225
65.2645293480966
64.9886804154099
64.6911047968047
64.3756019176352
64.0458744408193
63.7055118971589
63.3579787837189
63.0066068349773
62.6545911316653
62.3049896925765
61.9607261923037
61.6245954599624
61.2992714377039
60.9873070807264
60.6902397822221
60.4079354498064
60.140108994692
59.8864959761936
59.6468518317718
59.4209511782183
59.2085871799848
59.0095709811095
58.8237311976042
58.6509134675505
58.4909800565165
58.3438095162368
58.2092963948269
58.0873509971005
57.9778991938593
57.8808822793028
57.7961834064915
57.7229111447246
57.6597151862366
57.6052611406477
57.5582331184917
57.5173300461578
57.4812626043194
57.4487507684279
57.4185219351552
57.3893096227836
57.3598527365341
57.3288953917351
57.2951872885901
57.2574846321379
57.2145515898282
57.1651622769889
57.1081032573679
57.042568091273
56.9700457497271
56.8928396844153
56.8132331618966
56.7334853643311
56.6558304623864
56.5824784660262
56.5156178031729
56.4574195821145
56.4100435048691
56.3756454153306
56.3563864878067
56.3544440885927
56.3720243757892
56.4113767411995
56.4748102436777
56.5647122369714
56.6828980952708
56.8277111616854
56.9963441792305
57.1859809379204
57.3937734845855
57.6168212148153
57.8521525885098
58.0967095553731
58.3473348522538
58.6007624000259
58.8536110825213
59.1023822319537
59.3434611717831
59.5731231760372
59.7875441904306
59.9828166218595
60.155457018014
60.3045503446837
60.4300849028115
60.532109495272
60.6107319696741
60.6661179429892
60.698489190556
60.7081217210387
60.6953435619411
60.6605322828354
60.604112285542
60.5265518920552
60.4283602620699
60.3100841725053
60.1723046914859
60.0156337788338
59.8409664899918
59.6505633102097
59.4471026164205
59.2332155948816
59.0114763596756
58.7843947735631
58.5544115710577
58.3238956481787
58.0951433718902
57.8703797584888
57.651761373228
57.4413808122898
57.241272641984
57.0534206879899
56.8797665889426
56.7222195532449
56.5826672853962
56.4625389936
56.3611140303127
56.2770684101336
56.2091256637798
56.1560495470508
56.1166373482735
56.0897138575908
56.0741259404007
56.0687376681366
56.0724259690193
56.0840767696213
56.1025816052213
56.1268346831113
56.1557303883452
56.1881612259516
56.2230161974135
56.2591796122748
56.2955303380714
56.3309414934093
56.3642805899059
56.3944101288615
56.420188657919
56.4404722915792
56.4541166972598
56.4599795456084
56.4569234200134
56.443819175721
56.4195497337046
56.3830142885026
56.3331329027265
56.2688514539638
56.1891468924798
56.0930327606416
55.9795649175219
