Value(μV)
28.4720662244368
32.1405434397229
34.2739707424236
35.3465742397772
35.9577674363842
36.4813579969163
37.1290628763334
37.8061349999076
37.9085963889685
36.7337752172232
34.3789586122102
32.0068690166077
30.8557461248472
30.9886869130262
31.3212567423568
30.9650772933383
30.2108572444669
29.8866407118158
29.9692556194113
29.3881393529203
27.4209021960661
24.8856905905282
23.4470718285661
23.7622010902171
24.7773632719658
25.0765366589618
24.5424452650539
24.1905066128773
24.4632144117
24.346636547562
22.6000974732834
19.5313318019698
16.9052755501289
15.9559591967035
15.9933094994369
15.3925622379493
13.6738957046245
11.9626947750913
11.2740545731194
10.9724803597955
9.54527398168918
6.72286418508688
4.09143516732023
3.24676152749655
3.78953664354987
3.75429174537035
1.93784796804099
-0.869693197460933
-3.28031458669422
-5.37037189204405
-8.56568908969101
-13.4364578005081
-18.3652319584612
-21.0077756275095
-20.809971766014
-19.3987996716737
-18.3944523738371
-17.5320309380421
-15.5147377068173
-12.3465082522087
-9.89121888239464
-9.77276332424622
-11.342248943786
-12.4552222812337
-12.1274846705433
-11.6269535219989
-12.5906657576588
-14.6831930723999
-15.91466488584
-15.1771718337306
-13.5712189879763
-12.7068412494659
-12.2674414255742
-10.2063074440791
-5.4654953256124
0.336960185651227
4.54887614547484
6.36941965049279
7.22169808394127
8.20957892922539
8.20390563120567
5.29578047282144
-0.243764712231318
-5.58569702851471
-8.3413287709418
-9.17554636114005
-10.6046780489568
-13.5240349576323
-16.0730669581659
-16.3797820884058
-15.4670124643402
-16.2220952407448
-19.558775871496
-22.8617362949232
-23.0259348490881
-20.313515655406
-17.9486468482216
-17.8638172967003
-18.2035518296836
-16.0462775320504
-11.8642558510089
-9.65857197413849
-12.209809432579
-17.4766417299809
-21.0209462896756
-21.5639779890087
-22.4498302817664
-26.866114368698
-32.847729704074
-34.674103073554
-29.2092287447476
-19.3495004555742
-10.4200158583165
-4.39974300239821
0.572722740188395
5.23481257865696
5.99020913965427
-1.80618262626314
-18.3745975285814
-39.363041213321
-61.2308333490306
-84.5008391210162
-110.20061709603
-135.25275452715
-155.633106628525
-175.646311350956
-210.512753335942
-274.111931549767
-361.482135571045
-445.07853221958
-490.935574921105
-479.1628150842
-409.036196048748
-288.476817200769
-126.728580478859
57.8983645656219
228.927711664867
344.808428715106
393.298393059029
412.88024262465
468.278061315884
591.290470692303
740.849150642976
826.701450175976
781.938464360358
619.663067129666
421.836125046065
272.455723416598
197.554030587094
161.834102022718
113.920227097249
30.894146435331
-74.4942007392545
-176.565759681318
-257.325521705703
-307.826668740072
-321.325059834171
-295.271042915679
-240.828728701977
-183.972789499239
-151.033656616351
-151.412905085711
-174.872744162917
-204.447801456252
-229.376802003083
-245.520901045543
-248.045494524186
-230.113781145235
-191.388037495534
-145.134713273079
-112.376669772027
-106.458173418163
-123.123117764521
-145.649104776894
-158.794846345905
-157.736809316005
-146.020975130969
-128.726854891343
-109.390259225602
-91.5084333025146
-79.2720842383438
-74.9032448154855
-76.2254263996103
-78.5049730079397
-78.8072183562823
-77.5135225046056
-75.4200524114143
-70.8596216804138
-61.2666476605959
-47.4162531307564
-34.4790462447751
-27.6833377683357
-27.2429963367166
-28.4556047411647
-26.8092476318264
-22.1363659691765
-17.4104757385761
-14.421774553101
-11.8972650994506
-7.90338639580475
-2.8326509420195
1.02162314527433
2.48253779252389
2.93990456748129
4.3994338416279
6.8734047130681
8.57437407351634
8.50758627296014
7.90638914688562
8.62304560718032
10.681740966127
12.2501726837228
12.0256546449674
10.8831381531919
10.7012519164777
12.0120277247896
13.5500785780722
14.1488619138404
14.3492374395731
15.5922617364201
18.1492007935378
20.5844442894144
21.4551384912102
21.0007187399023
20.6614495798048
21.1630566668105
21.7173841783275
21.290262552337
20.1149375147728
19.3804976963314
19.5429663045204
19.5715813280519
18.1897857019655
15.514723515258
12.9676831673188
11.5789438774096
10.8507020523951
9.54608203021708
7.28505957402707
4.92193517076176
3.40766513739674
2.78288655466731
2.56025099497312
2.72817601369086
3.78918496305298
5.72043389568232
7.4076261337366
7.58712179242005
6.26471144135575
4.7740720250484
4.28635738536345
4.59019307502244
4.67109978531905
4.33518819187594
4.76496643961104
7.22357466598307
11.4586647683988
15.7540861803857
18.5832636841572
19.9651247307621
21.1371866286742
23.2154011884489
26.4800097552001
30.8029278112861
36.2245973588192
42.7696472535112
49.9202709842169
56.7562195573243
62.7979106807117
68.4744519494228
74.5107413353881
80.94519460182
87.030080510616
92.154837249687
96.6161279016015
101.274497023103
106.589848352302
112.291668651696
118.034635306622
124.063516820005
130.93841098381
138.681872640158
146.516100502017
153.577897058911
159.695381959846
165.240892300807
170.322469958192
174.453274361767
177.166807638792
178.740873575535
180.02193482565
181.541269144052
183.071720939067
184.193265720486
185.084238191929
186.442968058174
188.60223137751
190.992208656512
192.675898472386
193.284126964863
193.159055328438
192.560689197659
191.021154973742
187.72803718886
182.455880200623
175.83766706208
168.620638346848
160.853233840384
152.006473925477
141.804453817111
130.653429987018
119.146855239865
107.358791389729
94.8821977033782
81.542939069904
67.82426647613
54.4478161003528
41.6848704070677
29.2960235920517
17.1172464392189
5.44435552203981
-5.31937527667081
-15.2489824846832
-24.8778166696924
-34.5578663642556
-44.045115034028
-52.8701104964483
-60.99983466484
-68.8974984134745
-76.8929054441914
-84.7118447526917
-91.8147231227221
-98.1130735102078
-104.110805987557
-110.26436483311
-116.39055116762
-121.897543501873
-126.53487966488
-130.675153906229
-134.756306726698
-138.616925277215
-141.597339192043
-143.279964253522
-143.921775127328
-144.056188038692
-143.831399608581
-142.969966326239
-141.384622352523
-139.610000161406
-138.456289103985
-138.307859288926
-138.928582871347
-139.94655773829
-141.319450548346
-143.175061875502
-145.310474926782
-147.100565474187
-147.999177055421
-148.003935159811
-147.498160784102
-146.708369224058
-145.501527475615
-143.750399311717
-141.710750686681
-139.850403508074
-138.340413722279
-136.901396083156
-135.228270427466
-133.430636712501
-131.89468139178
-130.745591956933
-129.624979824811
-128.073016236302
-125.995762662271
-123.599534418063
-120.916164974936
-117.61307398865
-113.397651589887
-108.500923566743
-103.582345232667
-99.1446040698237
-95.187128936782
-91.4975373047386
-88.1243073948235
-85.3489377386437
-83.1885259545461
-81.1408182256092
-78.5926310760521
-75.4206847806466
-72.0237095318545
-68.7497905013773
-65.4700411790587
-61.8431904607298
-57.8826221605287
-54.0280415272542
-50.5981288088404
-47.3600102696776
-43.8290271577986
-39.9453794001072
-36.2460502759505
-33.2845940272073
-31.0282662006404
-28.9899731381192
-26.887137261825
-24.9366983044059
-23.4018277921543
-22.0272848896617
-20.1704028718498
-17.5146196592814
-14.4587585116395
-11.6685483940627
-9.34872818925697
-7.13594143372437
-4.68290277009838
-2.11078976234057
0.270845145563342
2.55559366477265
5.28222244026602
8.80291837564498
12.7785946515035
16.469318418591
19.4641347372723
21.9398261085375
24.1856224368834
26.1051423203
27.399666216919
28.1663370027602
29.0340613665617
30.5545886315375
32.5832974408891
34.4494208526645
35.7133578852658
36.558627780561
37.3671953346922
38.1133863133408
38.4308546694309
38.2644467244579
38.1844092637687
38.8542532560645
40.2757358982229
41.7731403349132
42.7493587302323
43.2629317929817
43.7372929905503
44.2695933435436
44.5143747412776
44.3016707182654
44.1116296978142
44.6787076533679
46.159210686581
47.9182997011843
49.223667282167
49.9725158556735
50.562199119852
51.1643214351135
51.442308818081
51.1177346759516
50.5936939174875
50.7081059079912
51.8312138619559
53.4307908477188
54.6721139218235
55.3023190374149
55.7228935740317
56.2405931897643
56.5665422815912
56.2693920568705
55.5658788550832
55.3250901936186
56.1726947998567
57.7853685062897
59.2603809900856
60.0823026931131
60.4742108256992
60.7707004350008
60.7426861405716
59.8224284454536
57.9172855106769
55.6701098268538
53.7501084697291
52.0698788223454
49.952447785143
47.0293164525723
43.6967069313878
40.5732668544435
37.7561472374359
34.9265051283891
32.1534662036085
30.2222125666333
29.8996076823928
31.0089727020677
32.542147495726
33.7407794287235
34.8065320773914
36.3639383071117
38.4334672055879
40.3192066239395
41.5819497778451
42.7642013865012
44.7842980336183
47.6577305048311
50.1634176404655
50.9445463041775
49.7371752292483
47.2822627861181
44.180956224158
40.2752423074691
35.3557581317442
30.1640387425016
26.2074160365363
24.4505911427074
24.455190154599
25.0129910562204
25.4412082531989
25.9359431962292
26.6972147069694
27.168427126171
26.5116846641933
24.6969492127131
22.6844676204744
21.3537027954001
20.5143184808261
19.2611592592701
17.1835316704732
14.8411215988319
12.938772114385
11.391996034693
9.59648403357118
7.52896963931522
6.10614702474848
6.18219705527633
7.42976827303324
8.59564821716081
8.8538543690946
8.52973330932907
8.30508937925871
8.05316093465624
6.95064758988244
4.75384791679618
2.45303537977269
1.24644954891216
1.0265927381075
0.348646025928312
-1.97995708752175
-5.64863926329238
-9.46909989504286
-12.96539120194
-16.7570540822023
-21.2005726508898
-25.1575690690126
-26.7095289097417
-25.1148040577921
-21.5959116492705
-17.9531626213212
-14.7439812735688
-11.2660044918538
-7.17523335189451
-3.43091750184626
-1.22096001476154
-0.305293112066366
0.910174293068751
3.50732444567542
6.74657771532963
8.9974008372174
9.68050789549348
9.69397984302031
9.85741053300669
9.5888034961772
7.71086375349529
4.345659307781
1.25149917376581
-0.063440154373243
-0.108864200020186
-0.738122929149615
-2.8519124591981
-5.44520024449975
-7.19949521917588
-8.42045564723976
-10.6247064768779
-14.2418339437582
-17.5424687401166
-18.4150570655273
-16.8443714241257
-14.8971820555521
-14.2016516529236
-14.1832454593426
-13.3124453030767
-11.594129758848
-10.8441330261236
-12.2818171929078
-14.6776123017086
-15.684962379092
-14.737968520911
-13.690391919334
-14.3125309564235
-16.0196870902338
-16.9722860087046
-17.0805753357471
-18.6514571903757
-23.4636260431022
-30.0904933267595
-35.3692704381678
-38.4442445817399
-41.9092578777818
-47.8931881487061
-53.7301578548056
-53.2368920686645
-43.1207597966604
-27.4563007921317
-14.9499581922732
-11.9596930664254
-18.7869218733383
-32.169796605543
-49.4867849656435
-69.573559837986
-91.3155321878176
-114.765418451772
-144.743772042184
-190.526892257696
-257.802271654151
-339.303497831547
-414.975690467368
-463.049011808421
-470.268941549719
-430.421152364191
-336.5318793344
-183.339843460289
15.1783060860138
212.913072003779
348.758417364559
391.259267351394
372.290533187747
370.069937702088
445.805281875031
586.990859743406
711.386362211178
732.327960249996
628.73632432212
458.929666418109
309.99578059995
231.312998812471
208.195580616809
188.655229617088
130.083138731696
25.5694896116763
-101.598247476733
-218.28707956603
-297.266091085417
-324.099350299403
-300.345302341069
-243.969986792869
-182.577675097733
-140.024078525832
-125.899159112635
-136.353313414748
-162.943424318276
-198.122972011526
-232.376273179042
-250.765366961818
-238.802639275447
-195.265363112726
-138.015545937823
-93.5974287012826
-78.3345656286273
-88.3819335997943
-107.139039693806
-120.814036070957
-126.414491284596
-127.044894793896
-123.514349472289
-112.929176593084
-94.3296740724634
-72.7160810886296
-55.9133941083293
-48.1746747579732
-47.9140923338935
-51.1036312029232
-55.1615871405238
-58.9734473096128
-60.7869181016463
-58.3718756451937
-51.8160064202658
-44.7457742790502
-41.2733111328892
-41.6972014098366
-42.1631829971781
-38.9356705184552
-32.3241763798619
-25.7837696659407
-21.6275860143114
-18.681097024277
-14.3994820443555
-8.33782838507555
-2.55124324253481
1.21474212794659
3.62107861249153
6.46596932571177
9.97394760178673
12.3439210711435
12.1098442021361
10.1520842649656
8.76291408180072
9.06917956920145
10.1343825605248
10.6902518125906
10.9969021400568
12.3466559528368
15.0112910937535
17.5175853379687
18.3102859178557
17.6565281061688
17.3267357309739
18.5007386496344
20.5954013661266
22.3879501077197
23.7726129529307
25.7650102368653
28.8171745017671
31.7952443696649
33.0806986684667
32.4286435169664
31.2121899440595
30.779800108532
31.0458889575575
31.0142554085652
30.3526587867121
29.8374472865201
30.1133962162495
30.5199729974801
29.6507325421755
26.9971668189535
23.576734760168
20.752261578853
18.7605465829349
16.7655363472385
14.2245288526772
11.7105740401657
10.1650343556249
9.64972391935517
9.23899652299287
8.09301882217346
6.22949514808428
4.08939381431013
1.76960866959157
-0.758307839177794
-2.6691939036476
-2.15335806637591
2.1000854071673
9.20435921389901
16.2281740834932
20.3728784570743
21.0655200803869
19.9455074896464
19.0560533596663
19.3302985063526
20.7107019993563
23.1459924188085
26.9235527595745
32.053199227931
37.8276171326495
43.3780938235378
48.5816591667337
54.1224282068333
60.604795174262
67.849126894241
75.2179514125196
82.4393308510683
89.7828019989023
97.3881709168219
104.732944698065
111.043424400468
116.166454235069
120.768654649467
125.590907767589
130.703646549246
135.667446008867
140.283886041291
144.867222392078
149.672617549197
154.30925612507
158.027317110316
160.601370900137
162.692994807068
165.19325069959
168.327017073135
171.578629317867
174.426701920966
176.868681113506
179.071074010482
180.691803411313
180.874831506022
179.027890881503
175.445495955838
171.002738273221
166.291892438805
161.215372415201
155.400721928341
148.766585887994
141.487893466919
133.511213232159
124.401464619371
113.830114724668
102.1151582192
90.1169181603842
78.6087607855248
67.8769770391288
57.9340994680253
48.8958774352115
40.913516832267
33.7569381571964
26.7136375279127
19.0935261028929
10.8023557218396
2.29344780696661
-6.03294040632699
-14.2301384624304
-22.547172606962
-30.9332228356927
-39.0221059185189
-46.6398628828307
-54.1383021423943
-62.0480785825535
-70.4293990294626
-78.7168105199239
-86.2529803511503
-92.8614915438463
-98.8023721609975
-104.264621444694
-109.107508367028
-113.166093593559
-116.651036027261
-120.047779150317
-123.600455987484
-127.030766753764
-129.848128735335
-131.859686517089
-133.272537851026
-134.348035886403
-135.135275645767
-135.633161526937
-136.089203661891
-136.934238504258
-138.361432204505
-140.082591125555
-141.606398954051
-142.718367411412
-143.586521069026
-144.4126170102
-145.133961477141
-145.576503887117
-145.814057355678
-146.178596948749
-146.823642267077
-147.368701903954
-147.10894846997
-145.594278639651
-142.934347949909
-139.539502453694
-135.694946168102
-131.50698200482
-127.207772566664
-123.309491324522
-120.306207741417
-118.239495239531
-116.653010161923
-114.998695010238
-113.032993654296
-110.813087127789
-108.429187846143
-105.883542802565
-103.232344222829
-100.697852054646
-98.503711136522
-96.599348452363
-94.6281242773986
-92.1929746341583
-89.0995020560424
-85.3204171082511
-80.824846225901
-75.585978481857
-69.7830707873662
-63.8745751173348
-58.3389142567602
-53.3272951511143
-48.6406971128564
-44.0702864255701
-39.6918236002771
-35.7695509130746
-32.4285942238347
-29.5422263719727
-26.9772670938471
-24.850888616297
-23.4252297824172
-22.7411868815049
-22.4471554921191
-22.0491258514676
-21.2942073415735
-20.2588340053773
-19.1029669078431
-17.8466326043365
-16.4281885646009
-14.8883127674768
-13.3658008370266
-11.8846115879208
-10.2297989159528
-8.10991565236379
-5.42793329132738
-2.34768723571005
0.877491802197412
4.04981458131397
6.97335928501712
9.36205811169404
10.9534695114042
11.7698586241105
12.2008094394544
12.7498254423312
13.6978590826677
15.0421542464416
16.7134211873846
18.7263146053683
21.0478475317853
23.4015341721484
25.3614844579071
26.7172788098226
27.6929803764117
28.7318165264341
30.0774668645673
31.6272743586461
33.1788541835063
34.6978829966393
36.2450844244036
37.6920951326407
38.6668976381317
38.876813809361
38.442805804973
37.8273665304701
37.428719235279
37.3136852456658
37.3606523316391
37.5613536182184
38.0705619576635
38.9781049345309
40.1648033524342
41.4716361569814
42.9575623826547
44.8775269165254
47.3771671097684
50.2757816671904
53.1865814725547
55.7807037200045
57.8501409140097
59.1611812160158
59.4233606615971
58.537906190244
56.8434230963755
54.9855339205274
53.478872573845
52.4342099849587
51.7274395995846
51.3237305935715
51.2914072354461
51.5031062960452
51.5064415341005
50.8674038356437
49.6434958230701
48.3924901644045
47.6505973862252
47.4712917777836
47.5413977992389
47.6586179923387
47.9124686551283
48.3432670985958
48.5917449142428
48.1025446720204
46.7128418445706
44.9003381037945
43.343194008056
42.2978246061235
41.5250843549844
40.7907512383943
40.2456410774949
40.1912121507988
40.5834555531206
40.9919646136447
41.1217256204394
41.2276519695094
41.8475879834725
43.1427410152235
44.64150290147
45.6716282184725
45.9100951945971
45.3946073897872
44.1077600352936
41.818375016663
38.4763497833256
34.6438109586022
31.3205398797622
29.274124220196
28.6187899343326
29.057818861853
30.3583102850548
32.3976843437907
34.7977139841343
36.7960004225784
37.7038735518051
37.4581455915463
36.5573719269733
35.42582250759
33.9875233105567
31.9534673639095
29.3781055745294
26.6958167345764
24.1829844620327
21.6158641350481
18.6632699012183
15.5384220521175
13.0075536052385
11.643425988166
11.2089455272084
10.9204632411909
10.2171070742426
9.03672916750994
7.31945720751099
4.56164397109849
0.208285479750785
-5.50411251601821
-11.377946991982
-16.114105387772
-19.2346348522248
-20.9930865642739
-21.5081783746871
-20.3730892150356
-17.3235287285083
-13.0404464291766
-8.85891310553302
-5.5575094916526
-2.70175203857477
0.578665243449116
4.31637040905081
7.55201636739937
9.49309644379127
10.462551948976
11.3750973649658
12.4348381636936
12.8318639125633
11.9321217751846
10.4316633450753
9.87789330752538
11.0344797468956
13.1082275065652
14.7953428787056
15.7663097195244
16.6616070300434
17.6815584767897
17.7855096003295
15.7537141522533
11.8384493910403
7.7957302246692
5.09924814719962
3.53013275099543
1.91354272629471
-0.0143317465441024
-1.13013270149562
-0.512926699221657
1.05463570521582
1.83340723808951
1.3060933854939
0.903957246568283
2.13273029295133
4.38934785759887
5.364239686225
3.68032872172586
0.435584361916713
-2.39255098206865
-4.62304557146752
-7.98535469858186
-13.2599674145388
-18.0964227049579
-18.689626060185
-13.7597917988834
-6.16644953480041
-0.118481846199321
2.74983288040908
3.79107004046685
3.97021992390133
1.15431078579479
-8.28377873981927
-25.2199502764206
-45.8477279096311
-64.3962469239828
-77.744350883407
-87.6566128216608
-99.4804664567519
-119.384261007998
-152.035101167869
-198.783274361625
-256.418295323845
-317.7892303842
-374.428208189215
-417.924258659971
-436.82704891126
-412.478867518013
-323.444330196348
-162.982851254138
42.3834959136138
235.481933246905
361.492664571877
410.130797409671
428.064711577686
482.081214272273
598.442899506982
731.704340069562
795.21689597314
730.807193557432
557.887776047864
359.507986558993
218.987352810247
162.53728639441
152.963658710448
131.075215753276
63.0289580267069
-43.7658679591178
-158.424858136134
-252.621852064992
-312.220227201079
-333.681531627719
-318.604095590115
-274.649114725389
-218.390101799955
-171.959795227167
-153.111203543737
-166.275426683507
-201.342064650463
-239.894741555099
-263.927246194695
-262.848355097828
-237.084005254257
-197.31457011896
-158.830278219156
-133.234644615632
-122.878416083159
-122.254503571461
-124.607645315728
-127.137370648226
-130.157658429646
-132.54981217768
-129.899196108768
-118.178384306979
-98.9524089703706
-79.9206562221489
-69.560318449662
-70.8598649124345
-79.7596502348103
-88.8882717034997
-92.5173988242913
-88.9129484099319
-79.7936134188261
-68.7661188208405
-59.7846895744439
-55.4137723114683
-55.2441550336824
-55.9805422631326
-53.9016319028344
-47.8616592786531
-39.9496685524431
-33.1621432523959
-28.6235623382847
-25.2150232033849
-21.5408833726537
-17.5665764644475
-14.0752680317017
-11.057741660934
-7.41290979846491
-2.41453133182038
3.04364873406797
7.16142673664694
9.0938848838212
9.67761564115207
10.2233438113003
11.023197122805
11.4505073834157
11.3358958561634
11.6249842734514
13.3366677772999
16.1518257243408
18.5123594728535
19.196915718667
18.4747690552397
17.5184552174474
16.965319381006
16.480115402205
15.7193226821338
15.22231860543
15.9137902326886
17.8183191827243
19.6955387938809
20.1557046860397
18.9380288885737
16.8660702666217
14.698886538301
12.4211228862611
9.78710319124781
7.2041933931625
5.6177984576827
5.45667477538744
6.01506088310862
6.13445519044799
5.39129346198935
4.37141702793074
3.80325632994374
3.73790874647669
3.77781536382794
3.88951358454366
4.57200559600284
6.08145534714101
7.75594811753157
8.43030480946355
7.54245342528205
5.63761315962613
3.73833360394173
2.45002229722272
1.88784908222803
2.31556580795574
4.41185960549527
8.62503758389416
14.39367534989
20.3172602544337
25.2144831582228
28.8924089358292
31.8203253723731
34.2710500536281
36.0824364477892
37.2673303984675
38.5139388237336
40.7470654417153
44.1936138245287
48.1294505973005
51.6931745419334
54.8346845084504
58.3053889738749
62.7855349933571
68.260827252511
74.3457924894559
80.9992972270163
88.6142765184589
97.3393545393221
106.524757103877
115.047832105916
122.183784011944
128.057002664246
133.283894467121
138.378277436084
143.606533262437
149.221607069535
155.482586666171
162.277802143208
168.881142550802
174.335025884296
178.165773412579
180.656068227777
182.404985767652
183.761385283582
184.802197275843
185.739455905858
187.039345001219
188.938073559176
190.917099549812
191.871707746414
190.901927491727
187.891271262552
183.300036425129
177.548665250731
170.787014189599
163.229754092815
155.435199243602
147.987215893453
140.890338218918
133.462795569208
124.954836279492
115.231425334736
104.781597912264
94.1447254163326
83.5084041085949
72.9042098679164
62.5840079592611
52.9322756353513
43.9475532110477
34.9870864644087
25.2115687398911
14.3050003631725
2.6936166838946
-8.90070385521193
-19.9612348802175
-30.1708907037189
-39.1040863205973
-46.2488631834514
-51.5047116724176
-55.5578411648828
-59.5612417818432
-64.3608186122304
-70.0740918798574
-76.4022303055581
-83.1742504825115
-90.4116143140526
-97.9156697169962
-105.065900694622
-111.257610658919
-116.528657667228
-121.582240987128
-127.091441853134
-133.038973135635
-138.807716377254
-143.837938011548
-148.032238355763
-151.492157657586
-154.059360118438
-155.361741098076
-155.35945382197
-154.679158963928
-154.236671858356
-154.512178253101
-155.266116249546
-155.95042120584
-156.270543759171
-156.275159772525
-156.025431343865
-155.414310688913
-154.421705696843
-153.430426773038
-153.088336942666
-153.767802026268
-155.198865845641
-156.659285220267
-157.457364133481
-157.174223191152
-155.543288879084
-152.343708161951
-147.600139056513
-141.856178089017
-136.066924136713
-131.073231852264
-127.146361732163
-124.033442537725
-121.35544718041
-118.850240244579
-116.255718407512
-113.160542485215
-109.188987654572
-104.381766666616
-99.2773501336599
-94.4993349451158
-90.2543468011548
-86.2693251482733
-82.1754403022518
-77.8406651762652
-73.2990840723957
-68.5022759051797
-63.3470785462466
-58.0093611631592
-53.1132737250669
-49.3885336989322
-47.0961720803427
-45.830575730709
-44.8881568405248
-43.7443498954721
-42.1218657061468
-39.7249251297065
-36.1690315839644
-31.3432582320768
-25.7801596249148
-20.4692581054764
-16.1721924983976
-12.9220501844408
-10.2121181158063
-7.59264142261188
-4.96686773242726
-2.33132580724752
0.553246192905334
3.99967933408695
7.86842905526285
11.3638478533866
13.525133008826
13.9622294547021
13.0756923558155
11.5900129090251
9.99417896716226
8.49503731310567
7.37948714152205
7.17126197867512
8.28623342246037
10.5946565102917
13.4701322489443
16.3257560327608
19.0483640226188
21.8771968973794
24.9396083045293
28.0127661225175
30.7229816387956
32.8349451063213
34.2423609166737
34.747768741086
34.0385674026013
32.0001464306692
29.0267576496174
25.9458060350364
23.6185191462349
22.6262606758454
23.2623497835201
25.621009193962
29.5098166814843
34.2834538428702
38.9505169179291
42.6336899391645
44.9949518160676
46.2164601605404
46.6297478357179
46.4731536488093
46.0141454990373
45.7198709740472
46.0575868451932
47.0345872150516
48.0520590282359
48.3748166083128
47.7830745669325
46.7049352344915
45.7192945745391
45.0604098193965
44.7075305237474
44.85280460854
46.0221983194718
48.569747389083
52.1263217227034
55.7394875627001
58.6403521294563
60.7972329329934
62.6524078323013
64.4132374361839
65.7716833405505
66.3388053614956
66.1646850708668
65.6369355225271
64.8937516566979
63.549138559643
61.1477005838376
57.8309506447923
54.4073657749397
51.7407155159537
50.1771296974442
49.6093179704663
49.9297186701148
51.1755022225888
53.1776738513677
55.2754689300785
56.6229801835298
56.8341119723347
56.2276434415924
55.4029214478292
54.6897143418165
54.1068708876324
53.7321921719025
53.8302133306561
54.4635546282648
55.1113925575548
54.92372791879
53.4515135430933
51.0335718554386
48.3967561323111
45.9883671075193
43.8568209519993
42.1253939417518
41.2820113708829
41.7507430221625
43.228227871503
44.7001379674491
45.2605993017129
44.8237094051713
43.9043590729294
42.7944990358596
41.2055423219667
38.8078490523566
35.8924796080438
33.1962789034328
31.0434182858068
28.9199915943951
26.1119466415043
22.6767717883728
19.542842618838
17.5943531206178
16.8639235600087
16.7885276087658
17.0958420080844
18.0841912004487
19.8991063592059
21.799297452984
22.5020336390143
21.329936436674
18.8096839086725
16.0136066612567
13.4883351247709
11.0783310431105
8.73017875837764
7.06220100213544
6.82006467265409
7.87615149322012
9.12891043384236
9.55469776912132
9.1707009357788
8.74729883174679
8.69014132915272
8.54808308956131
7.73918474201046
6.45793740205585
5.4858676512859
5.10840012753036
4.58887448434574
2.98358639896104
0.332948011328249
-2.27365617982927
-3.84875906331606
-4.42215240111699
-4.61645067736871
-4.5597756126068
-3.67525162203092
-1.67789944885608
0.575354072130452
1.63522117323449
0.854061160504841
-1.07832326514426
-3.10126114037906
-4.98400771497732
-7.23634877782297
-9.95458857150639
-12.2708890035842
-13.2696002771443
-13.2196739455142
-13.4391558899272
-14.8353455989138
-16.9200388098433
-18.5403138310537
-19.3650154021339
-20.1978016441384
-21.7498965507699
-23.5616484705798
-24.5776604627789
-24.6573774567258
-24.9776270625069
-26.6678364445636
-29.3481779294698
-31.4380760385754
-31.8496022617996
-30.9087780749208
-29.4042986536948
-27.1699582429927
-23.228573936819
-17.3933382702662
-11.1584828369674
-6.52423601329249
-4.10220049957693
-2.86371961882197
-1.79979171451873
-1.26745564237789
-2.23542761311654
-4.49572499043429
-6.38447463205784
-6.59352617224403
-5.78107461861554
-5.78092161109172
-7.29978422808471
-9.05359855824721
-9.49922021591413
-8.90796422177983
-9.01407282758128
-10.6582661932287
-12.5872518670987
-13.140447596248
-12.6945573023489
-13.5521012643835
-17.1970538742268
-22.3700526151619
-26.5102148509208
-28.7719569358174
-30.7025374537338
-33.684906312675
-36.5693484512924
-36.7917862441689
-33.6924450830899
-29.6892834016407
-27.6169609912632
-27.586190751443
-27.4539775994263
-26.2523580938004
-25.9028887956814
-28.7552636348938
-34.1941877162105
-39.0507725991063
-41.4592763787189
-42.7719506065762
-44.3766813147091
-43.4805404539229
-34.4996284978991
-16.1506549997241
3.80708594934021
13.1403770046463
5.61911550310929
-13.5918524701125
-33.7174730040884
-49.1806022839581
-64.0758291672723
-86.8193986585844
-122.540305456553
-171.599892899004
-233.16311268608
-306.039111389892
-383.927349430488
-451.635651257967
-489.245242576812
-481.319663800307
-421.639591650552
-310.643622870557
-154.078612159361
30.0785928380474
205.024039232715
326.560621863196
374.663369585549
378.884060857778
404.715465789533
500.334955837943
646.957286048374
762.991175976804
766.719094353594
645.059908150922
465.810573280692
321.560593912589
256.558644953102
241.035847712195
209.674697048765
122.046704086822
-9.88234268253116
-142.570470346892
-239.546873435687
-290.147126574104
-300.66938607024
-279.067469713112
-232.686803311305
-175.956657727758
-131.710003830972
-119.604598219032
-142.518032176593
-184.908461786521
-224.076118910856
-243.106040868007
-236.071741591752
-206.402816160098
-164.239913968243
-124.233409934971
-100.666083561016
-99.7950973288414
-115.511679729642
-133.844099184188
-143.290388798515
-141.460526784274
-132.463161825329
-119.620439087789
-102.482480918518
-80.8490076265933
-59.5801423009977
-47.1587901742799
-48.7585499320419
-61.2470164738759
-75.4051892147953
-82.842945625271
-80.8891179879525
-72.0732005227708
-60.6189262664059
-49.9231301194362
-41.9983237181814
-37.3405824980728
-34.5889596452372
-31.173210389654
-25.4352672983708
-18.3078864927276
-12.3735721101371
-9.04824384905862
-7.1111790565479
-4.34999999010149
-0.287097039384534
3.36980171037858
4.9959919506927
5.04932966514343
5.27144323248115
6.25886277089405
6.67073435653114
5.13952654612387
2.37824345818924
0.703875867527344
1.53926086973375
4.03213848565807
6.42926888165321
8.29729777378256
10.7168807804436
14.3545136668367
18.1140861339041
20.2396603610138
20.4565229283063
20.3518334813397
21.491071462462
23.6827579399714
25.5354064347057
26.4249529410151
27.2178278229344
28.8513645045628
30.7648077082524
31.3661978277273
29.994623394592
27.8213723643714
26.4847174794325
26.1835712800611
25.6266847244023
23.8022119654867
21.2079694132514
18.9820963900264
17.18895762474
14.6251941680275
10.4795580164952
5.69992736600559
2.24697101983453
1.11496757960176
1.56267833122468
2.4197363773947
3.68893242124784
6.35358392615602
10.6604878922839
15.1106983230592
17.4934000623372
16.7884428698359
13.8344829663505
10.3115485554507
7.51846902050779
6.22066731819291
7.08527985416571
10.4796706319885
15.6551626930867
20.669492386046
23.7508209470868
24.8751690929311
25.7376496965972
28.0431807325574
32.0292049841382
36.8202161360173
41.9470324301994
47.9931471440942
55.5627746868653
63.98021518226
71.4899923202715
76.8195640145657
80.2697793499801
83.1374520599347
86.3304556867853
89.850940635861
93.4826650367404
97.4336576256002
101.953608259784
106.579304083031
110.332128074479
112.917962602771
115.470541332986
119.74219069286
126.530002664583
135.116771749771
144.283076045539
153.541970103634
163.081648887242
172.650903574065
181.005695516548
186.780827837912
189.770648765252
191.040430156432
191.74669665622
192.116979791035
191.731321501697
190.534684087894
189.143500800534
188.05689733405
186.890839538334
184.725210863983
181.16789034978
176.785020393241
172.368308792503
167.999924149545
163.080710056785
157.186195174326
150.557965829626
143.599149019733
136.124368520872
127.453789417304
117.296685128219
106.283430202617
95.4279808803599
85.1749714396631
75.1965748806254
65.0998494146682
55.0337183595833
45.3883195818955
36.0541553676085
26.3320529352146
15.719295721907
4.5976779335523
-6.07918917456792
-15.7376413814213
-24.6127458101334
-33.1978964125216
-41.5279970749927
-49.2698175265287
-56.4555943178231
-63.7904550455385
-72.0061359320413
-81.0125611143869
-89.919364000121
-97.9215255742679
-104.965899553536
-111.436781176799
-117.383231600628
-122.371124902336
-126.159977897672
-129.26298400981
-132.566335452682
-136.41380880845
-140.289752421489
-143.497540055803
-145.981473061203
-148.291269816625
-150.81273082956
-153.3110294073
-155.369318412249
-157.093406644536
-159.093810830971
-161.712230312734
-164.468740511003
-166.450053284239
-167.177890943241
-166.920410575351
-166.156351220762
-164.968774767273
-163.153499057865
-160.81664739082
-158.569567506137
-156.977870228276
-155.9356584053
-154.767557278516
-152.943716368012
-150.537236590839
-147.932593989005
-145.274780556222
-142.429204697294
-139.461463836177
-136.894179150157
-135.276769340726
-134.543464043212
-133.973159389927
-132.832525054262
-130.932233003052
-128.469332456441
-125.470734151076
-121.648566980668
-116.880106992294
-111.637071083078
-106.702975458473
-102.435104449265
-98.4512430575017
-94.1228328403104
-89.2664810063877
-84.2140509340966
-79.2644013759545
-74.2978850166735
-69.0685953225824
-63.7542844268449
-58.979607052885
-55.2110056629787
-52.2522982279794
-49.463293130762
-46.4228364725726
-43.2311500478507
-40.1549075193447
-37.1700201959017
-34.0374798856385
-30.7821340365989
-27.8715319882758
-25.7774908184205
-24.4327029656511
-23.2651091545849
-21.7718531649408
-19.924276427875
-17.9466474219577
-15.8405827303398
-13.33715053055
-10.3485786725689
-7.28246807393977
-4.72814338246611
-2.84950768271043
-1.23689873877165
0.584815352013187
2.61840095122682
4.47990395281378
5.95461618630475
7.27629016203876
8.7698116130075
10.3564969655276
11.6246910645987
12.4378512110027
13.3259808300493
15.1301985846736
18.2759198636377
22.4957635668022
27.2544252767367
32.2770916242384
37.5217675044212
42.7098456062839
47.1245775932395
50.0442064609643
51.3497279142059
51.5977428069301
51.4829185508993
51.3186777947466
51.070119645856
50.7502945123883
50.5835896426451
50.7318942693479
51.0054223458648
51.0074449191898
50.5785956939549
50.0011100884383
49.7263693095974
49.9858847675163
50.7501117275657
51.9981804382362
53.8461821503433
56.310759029329
59.0371415790843
61.430276690773
63.1175618671933
64.2080959543532
65.0300652245138
65.6731823417774
65.9055711095742
65.5464796001666
64.7792486067389
63.9614589135353
63.1514615551112
61.9702724330527
60.0231692889054
57.4007956785972
54.6590979403524
52.3036041539325
50.3951924823531
48.7170131120634
47.2348523967008
46.242761330834
46.0226588585964
46.479472803174
47.2327794530295
48.0485362154571
49.0628355023925
50.5287772908765
52.4254125772462
54.415761240496
56.1633956203902
57.5636198554039
58.6066080158496
59.1225489479342
58.8274101234098
57.658819550551
55.951202609892
54.1666945827992
52.4780173942596
50.7178872407702
48.746400731387
46.7352381702843
44.9719597488046
43.444796361393
41.813878133946
39.9067382051372
38.1573957494506
37.3869198408738
38.0937347408514
40.041932509523
42.5979443646324
45.3570717631213
48.2603641084248
51.0811679563423
53.0145287558022
53.0303614863043
50.7037920784991
46.5909601976056
41.7094825584447
36.7275788072838
31.7738615751157
26.9720515825539
22.8997471622373
20.3030212708342
19.3868352947452
19.5797408593209
20.1013721030594
20.6679398412069
21.5142317774681
22.7789736282605
24.0808071134514
24.8228700313019
24.8047360943661
24.3381076379771
23.7347571168041
22.8652798577785
21.3855202369345
19.3335640883819
17.293784854611
15.8761991662707
15.1489494350102
14.7213003285324
14.3246754305934
14.0989864282322
14.2078176049627
14.3303216686043
13.7779957398801
12.1733687998914
9.86159341266907
7.5276933174984
5.49219531775986
3.55640309071629
1.53828475477786
-0.265675231451514
-1.34472867394581
-1.62938203028519
-1.65030340824474
-1.94312011709157
-2.43788698895362
-2.61149648881154
-2.19228913140085
-1.48815442637503
-0.92252682467914
-0.434467569598885
0.407571709260036
1.69744675268518
2.85235119823398
3.16340058367029
2.56774621342195
1.62657851007684
0.706791188857244
-0.563174219666147
-2.81049525888739
-6.00769046805437
-9.34958896671476
-12.1398337684343
-14.5582066582331
-17.2685297810045
-20.3183331767089
-22.7611236930946
-23.5689447523714
-22.7467748887095
-21.2549063520972
-19.8401733453059
-18.2731324640232
-15.9609692932871
-13.104560582453
-10.8290544592148
-10.0344002114077
-10.3993093799295
-10.8218362235277
-10.7548670075367
-10.7564634534806
-11.6129520961096
-13.2537102066443
-14.9154078182931
-16.3127124791383
-18.1891022004413
-21.4176821298778
-25.7707738374773
-29.9804912424583
-33.0524293965429
-35.1440208477139
-36.8951543883975
-38.1779752008477
-38.041342722492
-36.0229259632996
-33.0829468645825
-30.7906068604664
-29.6738552468048
-28.8273881427399
-27.3033250162218
-25.4685371756088
-24.5150818607809
-24.7483036639715
-24.9662974604335
-23.8720552054929
-21.740780284942
-20.1097874197939
-19.7928212218296
-19.7773135967421
-18.4980557575447
-15.8759237385521
-13.4404925292146
-12.3346989379934
-11.8383153712348
-10.4393820161948
-8.10193266115982
-6.66735889514927
-7.68180993997675
-10.3861928182645
-12.5460014180969
-13.1392869490305
-13.4104860042361
-14.866769435053
-16.8697447660284
-17.153300335917
-14.7855354430689
-11.7055249163547
-10.6148730623767
-11.7601888810053
-12.7789151031734
-11.9201060882565
-10.4723333573423
-11.1052505960674
-14.1681436142196
-16.8660688494928
-16.6617322343097
-14.6667663203315
-14.5461407098577
-18.1507605238428
-23.4247100235274
-27.303385134384
-29.8168571499044
-33.9461201912222
-41.3076095953838
-49.2925495080328
-53.4455489847593
-51.9576848433112
-46.4409482389341
-38.4497635485344
-27.3363122815095
-13.1925457959277
-0.806648258192581
2.2979593539873
-6.65009521475164
-21.6701289654205
-34.0519500737704
-42.5687731941158
-55.2110304084632
-78.971997243934
-109.749728608783
-136.360283347794
-156.102599083172
-183.19163983131
-236.818704436252
-318.732709115255
-404.206131879738
-457.006385110302
-452.864291466385
-387.999689028109
-269.273541908095
-105.301423552153
86.4254589604762
268.440364232986
394.089184992652
443.311042896017
449.834632669901
482.174748799269
583.606333737254
724.213712712985
815.861898281814
783.417872864443
629.119566246477
431.063301443331
278.898059795862
207.139467777381
182.830544064354
148.270897440289
71.3739523697094
-39.1846215734418
-154.032251823469
-247.605219320156
-305.154422449782
-318.425099381619
-286.788409416085
-225.289552193094
-164.903865735338
-136.366748246383
-149.493268690147
-188.144310194259
-225.75986213285
-245.464890467611
-246.197988781174
-233.52889784888
-209.632331421962
-174.055306139165
-131.543742982772
-94.7932430025856
-77.2248706614811
-83.1177930836441
-104.916534814885
-129.115783807871
-144.153977258748
-144.499519979033
-130.885194102225
-109.135145491353
-87.8641564146525
-74.1660945102346
-69.2272914279393
-68.1501866084949
-65.1201536637275
-59.0409923127846
-53.6388029586021
-52.1481389413686
-53.0165399820106
-51.7052405634668
-46.1441230822864
-39.0326753785714
-34.3286953648379
-32.5453404169909
-30.692383505202
-26.5625753699074
-21.6183841394732
-18.8456203709349
-18.5945594266422
-17.9203212142286
-14.2184252015865
-8.36645107018865
-3.372817506423
-0.468309172117095
2.19560929469888
6.65958061705818
12.0336146742843
15.3188683141762
15.1064493731771
13.3289977848003
12.83417966602
13.9788015593888
14.595648526927
13.1855853275359
11.034004663047
10.5234436719793
11.9910451618591
13.3334113134961
12.8515125360391
11.5477972231041
11.8611613857959
14.5360268299549
17.7207046022904
19.3879873127459
19.8165479108462
20.8985334626371
23.3121203963288
25.4070944278999
25.317075339379
23.4914368708247
22.2673910678547
23.002629566633
24.4853082634575
24.6356852873683
23.2020717006453
21.9199333503249
22.0187126267984
22.4700402005018
21.351706641115
18.5426055856808
16.173116836986
16.1796131768194
18.0847610183732
19.8031773741095
20.3236082313397
20.7455893184683
22.4147008526814
24.754212537313
25.7511937074323
24.4999144145623
22.4597465796245
21.7539595650562
22.6896987429412
23.6511419431132
23.3809695246624
22.5857018640185
22.7984244664013
24.1162796177914
24.9059148875877
23.9217826064649
22.0517327516042
21.3654156044193
22.6665364186231
24.6870029160106
25.8873435797781
26.4399581702282
27.8181058069238
30.6369324304183
33.7009126999531
35.5757035791195
36.6237849583392
38.7982868674332
43.4132672976897
49.7349748592702
56.131427249431
62.1787209495526
68.9556005189157
77.2451767343289
86.1586281981828
94.0987833927984
100.821105773684
107.842669517456
116.596234972601
126.680791232894
136.421596392824
144.923588398232
152.89191066816
161.202324559142
169.234250442212
175.301442993053
178.706529385734
180.734448428354
183.226214047931
186.506582507926
189.265262577852
190.438716580242
190.57056631561
190.897529112912
191.45922170269
190.823628908166
187.865250292892
183.292590774693
178.911944214784
175.545922792619
172.245502109408
167.712596715513
161.983498836367
156.171568757624
150.70453606328
144.495681135864
136.222323055565
126.05848846488
115.575585907461
105.913623533498
96.5722918733293
86.3259135420699
74.9761450128999
63.6123150228984
53.0947059379586
42.8608212648883
31.7100612999359
19.5569936397717
7.81192056937448
-2.17504585261406
-10.632633782884
-18.9286148823365
-27.8117675016536
-36.6575830768585
-44.6404535605382
-52.1607659099178
-60.5195357985792
-70.1956569909411
-79.9946358495596
-88.2489842554943
-94.5840841985206
-100.035203848779
-105.466476691454
-110.43800745754
-114.004262850688
-116.30799185159
-118.746918059613
-122.385045404964
-126.647420496284
-130.028714141311
-131.943356331822
-133.364215939949
-135.484890651951
-138.208708245531
-140.445436432532
-141.770563123119
-143.184848628237
-145.901607134848
-149.712910026824
-153.081297837624
-154.880475615313
-155.58035543691
-156.416468160219
-157.702736981542
-158.503428171477
-158.024904380384
-156.802738725762
-156.057387912207
-156.049925064212
-155.621581650461
-153.563547682938
-150.073649858774
-146.458555885006
-143.538156264832
-140.859484716579
-137.679121523569
-134.28958103912
-131.822246307623
-130.729683716632
-129.963839087305
-128.00128666212
-124.459402008546
-120.279374615631
-116.33184629853
-112.337292173386
-107.503882839287
-101.946608570257
-96.8870255723307
-93.2636559611504
-90.5407636933251
-87.3083176791435
-82.9505125651228
-78.2704541451165
-74.3283926627323
-71.075050039153
-67.5804749529224
-63.5002986004249
-59.7554091754797
-57.4408872968174
-56.3525323673266
-55.0791628729579
-52.5970725552019
-49.3551425697423
-46.5118567207414
-44.3882872015663
-42.1761371710416
-39.226030077857
-36.1250350411743
-34.0565649972777
-33.2374660456526
-32.4925508648989
-30.5716921487231
-27.5486838145184
-24.5444755641241
-22.2089743950763
-19.9846974349031
-17.0826052714913
-13.7948065009614
-11.3138141996577
-10.2266978561269
-9.65320925263616
-8.20285721216288
-5.56643478115908
-2.73339401124651
-0.620191761113835
1.05438377269997
3.191332030702
5.86361390331499
7.99377190659665
8.65463284693345
8.31612012387974
8.38778436317163
9.6092619605416
11.3285983645862
12.5361149611187
13.2426636563311
14.3963544583372
16.5096062264365
18.8834090215035
20.5044393655327
21.4437413418803
22.8882869719521
25.7159680807188
29.4318976892914
32.8073380909381
35.3415816861256
37.6334115488725
40.2461822905529
42.6713308163699
43.8533032332566
43.6290776329714
43.1672526887478
43.7616881797827
45.4772322398397
47.3356499856598
48.7199128467598
50.1161221258754
52.247588473775
54.8246499301587
56.6528620937037
57.0259595965855
56.5941909690802
56.5539899686056
57.1939158436595
57.6645558487519
57.221314797512
56.264709779215
55.8129522924389
56.1555037552463
56.531267108233
56.2900742399518
55.9778312527171
56.8377906406828
59.3019288174648
62.4056145991421
64.8772056347268
66.4753527955027
67.8510696325958
69.1979455071217
69.5893021471769
67.996411100073
64.71001681912
61.2630438027487
58.8478961196346
57.1794056531535
55.1968312751923
52.6309953209193
50.374104606994
49.2030358336425
48.6003037104136
47.3020788799166
44.9218253853283
42.5472283891569
41.5048673422644
41.8474575992217
42.4610980464848
42.5766043135526
42.6730652939646
43.6217852797578
45.2745384235599
46.4355344767833
46.3083294616606
45.5278549743086
45.3986764934521
46.2984074267899
47.2929458148838
47.4174702649842
46.9047229910726
46.7488096646226
47.2247328566734
47.3816639080144
46.237144272688
44.1232542854484
42.3899241966079
41.7993436263004
41.6576041899556
40.7722393557207
38.9528863682986
37.099751337974
35.8219150410223
34.4807833643337
31.9833637493926
28.3127954032655
24.7721322698473
22.5762523454854
21.5769375625601
20.7198607718541
19.5621207917038
18.8194721695325
19.2435797305695
20.3719387744942
20.8698000040978
20.062929873243
18.6604465236646
17.7188768776431
17.215621523502
16.1114141845587
13.8053440001257
11.0421935122385
9.06929190167459
8.17821906073721
7.58649326041433
6.80808637987841
6.63047220071067
8.29366415645623
11.8609781199226
15.9051320148391
18.9567214582844
20.8571947223683
22.2905558769092
23.2030921369337
22.3396145889322
18.6641945516152
12.8724594590659
6.94878352982478
2.19907683532946
-1.80707774646153
-6.08925348557794
-10.4630031690235
-13.5052695678125
-14.3680673278474
-14.0519518949365
-14.3816542018583
-15.9028332345234
-17.3716485608023
-17.4978960162265
-16.6990706815017
-16.6047258338447
-17.9690444377324
-19.7206322315029
-20.3966640001484
-20.0930873265625
-20.3781094191011
-22.2672828022675
-24.8903148311257
-26.5812258004353
-26.9632823992503
-27.3094835093828
-28.7257490306005
-30.5542413277796
-31.0905079541499
-29.657837995606
-27.3066577819098
-25.2466990195767
-23.1397895070672
-19.5737959315581
-14.1285793424693
-8.28525548018862
-3.91555033596701
-1.2872654781749
0.814277818030575
3.05017558119184
4.35319407264012
3.27352570320349
0.106054949841905
-3.10318748333555
-4.85269903949165
-5.87587566815125
-7.99539766028232
-11.5890150415962
-14.990358074258
-16.660470319978
-17.2850592452882
-18.9471273531281
-22.3311311497408
-25.597637617289
-26.5136735941408
-25.1884175310551
-23.8813396634211
-24.092707664901
-24.7073572227706
-23.6374207372733
-20.8258144909919
-18.6124282497846
-18.8640878837422
-20.5596281965111
-21.0342532072815
-19.3422602398433
-17.3840155073213
-17.3448062369195
-18.8740754454966
-19.8093216015233
-19.4946368533565
-20.1369490686223
-24.1439231839718
-30.8470038565909
-37.0656527945
-40.8870523545232
-43.4745630660224
-46.1376265691165
-46.5795292208139
-40.1896820281321
-26.0210072710574
-10.2168771312718
-1.58704361026061
-3.48824804588639
-11.5267748830417
-20.2540335103966
-30.9085476260031
-50.2788864533413
-81.3557005042084
-117.156381627801
-146.286175292192
-164.951775202387
-181.841390420118
-210.009136384714
-254.544553124935
-308.507105931376
-358.244611147161
-388.097245745152
-378.780131342441
-307.745646929731
-162.718428688329
37.2445340267022
236.87519484287
372.795537085888
419.308010903289
411.532765878551
418.91979075126
486.781932263591
596.214032795246
678.601347952684
671.606305725872
566.98058443294
411.440801259797
266.575306379068
167.007891959654
108.914946099836
67.6980585552311
20.8179392650632
-42.2206127481892
-120.962129129317
-205.878470729487
-278.843501326592
-318.658924537275
-313.611005312999
-271.689171044213
-217.345043990246
-175.889924468689
-159.100484518299
-163.680751594623
-180.381607567691
-201.974857906657
-222.994369841194
-235.806728945532
-231.530325438366
-206.748032833917
-168.383124527407
-130.380405953386
-104.904542015141
-96.2801445205105
-101.799596105255
-115.861265029461
-132.145303040479
-143.550956490256
-143.591785043712
-130.364732703633
-109.041727086897
-88.7899130317083
-75.9861004017851
-70.2104065579303
-66.723545501309
-62.0823772552528
-56.6565044495124
-52.228345271957
-48.7581145407137
-44.5811711349965
-39.1877548583451
-34.3029233338013
-31.5541332617199
-29.8642391873437
-26.2703069511031
-19.3949521084813
-11.2102220499945
-4.7835506774228
-0.768624744777753
3.02798141460641
8.59484288664154
15.1251555837965
20.1064547311348
22.5553503259371
24.2144848975778
27.2657603757365
31.579426206836
34.9877337366348
36.0979863769436
35.9636750313989
36.5530683630505
38.1376039212255
39.02098121586
37.8861505236677
35.6456515198339
34.4111551648839
34.9753433273531
36.0615609062054
36.2079265635224
35.7316717522137
36.2165490899363
38.2768974267574
40.5853135822061
41.436158708016
40.7846986796054
40.1243538207097
40.4283105443759
40.8833534653026
40.0396351263254
37.811221013288
35.6876705441402
34.9083604481855
35.0141904791745
34.6448714682771
33.473336272159
32.7001289878383
33.4634089627853
35.2661585741856
36.4746322293014
36.2110834535028
35.1695146843284
34.357681482573
33.5197710840764
31.3839666138333
27.4245062281571
22.7975203080806
19.1830819561503
17.0106864556254
15.3374782289896
13.4586476382702
12.060260885319
12.3647561707749
14.4070390031746
16.7567289068588
18.1130132588726
18.732346535649
19.8551626571709
21.9081431612341
23.8469072046872
24.4918818725271
24.0906102163225
24.0493062624889
25.1842478006965
26.7813605025555
27.6828544558795
27.9580658329741
28.9551754929482
31.6567766613584
35.4773158861429
39.0488807227521
41.9406128244441
45.0647147316303
49.2828399955532
54.1029317424845
58.2228636458693
61.2256920487753
64.1983389995581
68.4455171892309
73.9575178307111
79.5989618117366
84.7224167487537
90.055732445456
96.6928416775632
104.530253198034
112.229512803895
118.786599306408
124.68222785594
131.130644747366
138.415359908988
145.464013551039
151.171862871346
155.70942800405
160.113246675137
164.736857939138
168.621257400268
170.607179395478
170.719143695501
170.021572283815
169.178455365983
167.635761293172
164.481219854157
159.802189273074
154.726852885718
150.110854699939
145.632117974601
140.487535337103
134.723691594682
129.374410379609
125.171656841411
121.519474454412
117.103280916421
111.3573250905
104.88438631244
98.3217178454915
91.2233474516371
82.5150751464678
71.972222621205
60.7589577289779
50.2472650078423
40.578874672099
30.7884388898027
20.2838338672214
9.7243669363524
0.155398866557704
-8.42620621843412
-17.1375537173139
-26.7683638491895
-36.695155205598
-45.5775729007577
-52.9537241549065
-59.6918001013095
-66.7594046596564
-73.9588115947137
-80.2809510209801
-85.3686087659019
-90.1111413804681
-95.550014323967
-101.520338518704
-106.820696055757
-110.707116948099
-113.77720483563
-117.119902912024
-120.880098709319
-124.130234136631
-126.189088139269
-127.60740295451
-129.487627648872
-132.022038822919
-134.186095899213
-135.019855651497
-134.8508246653
-134.891116827455
-135.765073975605
-136.891952902198
-137.477803715187
-137.731432447336
-138.641868490501
-140.589192473866
-142.63252476285
-143.44787219899
-142.732819072702
-141.302548831889
-139.837736332755
-137.996742683955
-135.062374833354
-131.206559780145
-127.616948335383
-125.251999476654
-123.836546665645
-122.409886012095
-120.68683543214
-119.42167072441
-119.304725618488
-119.887051914398
-119.994138356613
-119.093745390203
-117.791269250497
-116.782031484805
-115.670167005676
-113.283133780209
-109.137966011054
-104.152187066029
-99.6387115133557
-95.8654414574662
-92.0368542576888
-87.6783724553556
-83.5373750307395
-80.7415377043723
-79.2804948302456
-77.8351893384927
-75.268475055847
-71.9208412734835
-69.0750095262284
-67.3018783160289
-65.8232938946127
-63.6685887485575
-61.0426956779713
-59.0541754976863
-58.1223547426726
-57.1464491400668
-54.5635783985348
-49.9947535085292
-44.4414331373745
-38.8870563826444
-33.1862792334217
-26.6580072960309
-19.5015988015683
-13.0721604165128
-8.58175953749021
-5.88416374959105
-3.89021427973825
-2.02323765285664
-0.799110026187794
-0.830490498666393
-1.66009628104164
-2.02414098666663
-1.20593265296363
0.323476871043944
1.81401955401311
3.44337110444271
6.16625282410997
10.3763476617545
15.1638042698466
19.186556012839
22.0423655253468
24.374481758369
26.6444729876068
28.2896121890832
28.4552440593914
27.3460290356326
26.3473371803569
26.6524947420651
28.1095251879015
29.7356675337136
31.1683097675283
33.1104177570613
36.1991532274876
39.8588498134227
42.7457644454033
44.270552630854
45.2135874520046
46.6081012666289
48.3445899754108
49.3250475823321
48.9512331028522
47.9676054506003
47.5421791841234
47.8196279838058
47.8901550660941
47.2234405724554
46.6308359378138
47.4046333386463
49.6975057762855
52.2492348032492
53.8283885079357
54.5139684553917
55.1723962597201
55.900203441367
55.5975153113981
53.3329872441564
49.7299391210445
46.4896553469626
44.5746544641628
43.3471460278808
41.7328715315451
39.8398650233302
38.8817192828019
39.5163446259528
40.8362766272222
41.411999363225
41.0725787516342
41.0945127746376
42.5252600850782
44.8078536444204
46.4827769798272
47.0247101382359
47.3995859503288
48.6389469551749
50.3591770668686
51.2211125473177
50.7376730604592
50.0219662954116
50.4428633441599
51.9153580133246
53.048358268664
52.9379285953613
52.2423877092127
52.1513159699004
52.66748927907
52.532441571654
50.926801131653
48.6842783992739
47.3625723712154
47.335466885734
47.3756804112041
46.2491251265297
44.2110309378314
42.4637926263737
41.3720463231315
39.887539564457
37.0032482532181
33.3079692303615
30.5269706675784
29.5855156612124
29.7000453364343
29.6500291791547
29.493311242305
30.4130456985043
32.9101190082909
35.8144119609354
37.5322011379088
37.9434383025373
38.4256166535269
39.9207531712008
41.576167534872
41.7760683762685
40.226805175174
38.3339679277978
37.3475796742209
36.7253619645751
34.9134374750636
31.5469801195881
28.1463304587659
26.321649547947
25.7894474754271
24.7952892212701
22.400534734873
19.643790774415
18.0753799249696
17.6394805436391
16.7419942832566
14.4292195760321
11.7666285826863
10.5333701820046
10.9078320524339
11.1904585071453
9.9403523210211
7.71168499332569
6.11326256067856
5.4898139626992
4.37708700489507
1.50965612286112
-2.30283792860527
-5.01776353089917
-5.90637233797094
-6.46202920664658
-8.43042190532904
-11.5323777623271
-13.8908249785949
-14.5890691134042
-14.9120930466172
-16.536779361606
-19.0376564888601
-20.0976004511962
-18.2956109405498
-14.8851348136771
-12.213258861838
-10.8250966854407
-9.05283612233376
-5.61259410504215
-1.70888946239535
0.254068150915373
-0.258054924950443
-1.13056461002512
-0.239131624940057
1.89474643564961
2.9254418913321
1.9086489049238
0.643800495206941
1.3105544010888
3.52590982630949
4.7920790527798
3.82022211301498
2.31302556409912
2.74132426202851
4.98225887651006
6.30730374779745
4.83159588793842
1.89072043395642
0.149072348327252
-0.0727200438099516
-1.2871672200835
-5.36413374426554
-10.7022601775205
-13.9843776516461
-14.3829329120622
-14.6363204798605
-17.3928250632457
-21.558168284097
-23.6024926804677
-22.3010289883515
-20.652581163495
-22.214568769901
-26.4853206521868
-29.4779560455315
-28.95876218374
-27.5498257976489
-29.4299034290765
-34.6723632868784
-38.4954313050504
-36.454474989332
-28.9797032140406
-19.7479742389015
-10.7324715438253
-1.09021443736447
8.67555858407336
13.8004395051044
8.93202047608793
-5.67475803779695
-24.1920615703916
-42.5878888757444
-63.7909568196223
-92.6173747163667
-126.127123442628
-153.44895477561
-168.927311263884
-184.065778395748
-220.871878138531
-288.923531682646
-369.183681220927
-423.248958942486
-419.8591887471
-351.977835981948
-230.235623130749
-67.2499537130116
123.643198175165
314.817792752329
461.621242893491
528.698432464414
526.067516422229
512.596608725807
550.102428094676
644.271413194369
730.762700244266
726.156422849767
599.863287949548
400.812159496571
216.022881272722
102.485973959361
53.9980210980622
24.4903012014166
-24.7812392485044
-100.153847620638
-185.583510993646
-264.230966809584
-326.075769446014
-361.896369617014
-361.484848506942
-323.755903617559
-265.972988002484
-216.909520036104
-197.361094074465
-207.052148049105
-230.206440745375
-251.60556464653
-265.456792698039
-270.736915924897
-263.430588488318
-237.944710167383
-196.336469103852
-152.838698537022
-126.015318840414
-125.121798067427
-143.759313918415
-165.990265509791
-177.896877015545
-174.417926224749
-158.373732539375
-136.029274286378
-113.839125253259
-96.8005405048755
-86.978315314928
-82.6981099200939
-80.1175891967487
-76.5689960003809
-72.387947196381
-69.2290546848065
-67.0436145117868
-63.5807850391795
-57.0700869960119
-48.652314956557
-41.4014455323971
-37.0560398447065
-34.3794304746099
-30.930533949401
-25.8432651393707
-20.2854804207431
-15.4818070277991
-11.1685836788839
-6.38524802227296
-1.21276137235186
3.07855083490042
5.67519819612551
7.37738051543192
9.67908316758483
12.9999147862765
16.3921077029883
19.0174733466686
21.3391977250625
24.4357974430751
28.4146509374927
32.0987138358915
34.4278512968151
35.7292961014139
37.212757648312
39.4036293735817
41.5761553729013
42.8495093525983
43.3996254352519
44.1572980524887
45.4424657355321
46.4036720233506
46.0286614082431
44.39510267501
42.5374748175516
41.1531544243909
39.8630908667456
37.932830428662
35.3984836838253
33.0588645829349
31.3760608900804
29.8041859145677
27.473209039108
24.3296880104275
21.2348549594947
18.915625390911
17.1625025558862
15.2881976250237
13.1601010064615
11.3899113759733
10.4451229248276
9.9154400414391
8.95480197169025
7.33954069946197
5.76260443981302
4.99890409584578
5.04765736588112
5.33439285291551
5.61563418574295
6.32225787004429
7.88836344571615
10.0084348393878
11.8625811810201
13.0421672314461
13.9708637390191
15.2954776388545
17.0815539903976
18.8662006884271
20.43534080484
22.2246061612181
24.7862068088924
28.0569274079763
31.444246522112
34.6415563061169
38.090043558481
42.4655075752485
47.8614938056283
53.7295184715423
59.611399111823
65.647657303471
72.1799343802302
79.0204216504401
85.4345879096377
90.9304088287592
95.8474086608596
100.973587538416
106.681288693072
112.68205728834
118.651689642289
124.815468073471
131.663899860149
139.172860882501
146.604019000409
153.211679915469
158.977561172459
164.444041043846
169.88996046082
174.933488659805
179.048444397259
182.25713207931
185.048012105205
187.632050125113
189.557010219234
190.228345836209
189.670881240323
188.53312885083
187.328731453174
185.901531199572
183.776625158986
180.86848367655
177.559826828625
174.046309971167
169.866149673244
164.313655802806
157.255940572557
149.310657264047
141.159150692178
132.886266535366
124.175446492865
115.035766062519
106.033990026281
97.6840348676464
89.7966190648003
81.6736036824776
72.9286179830359
63.8888973213951
55.0777443935194
46.4717124917319
37.4984900519817
27.749428999159
17.4508380027979
7.0910818811129
-3.25851140772393
-13.9898423185726
-25.2925946298224
-36.6599701569431
-47.2333593609486
-56.5623373032394
-64.8418363153425
-72.4094178819908
-79.2508451152929
-85.1852301642833
-90.421812839797
-95.647300322772
-101.437617283613
-107.720108516282
-113.970909320887
-119.8704914878
-125.558403852
-131.207067025902
-136.577024695868
-141.231045774108
-145.146773821088
-148.86388980433
-152.88486203063
-157.058374713516
-160.741128881852
-163.531905221826
-165.623439963353
-167.333782102906
-168.485966789695
-168.520206427979
-167.237661083207
-165.193435771033
-163.172896145039
-161.377752276301
-159.345345514322
-156.685653781681
-153.668889382488
-150.912863415939
-148.613963162785
-146.358188022178
-143.760296876441
-141.063789728633
-138.878120138728
-137.375864062501
-135.998834498643
-134.063628216987
-131.487348420176
-128.720115654903
-126.036583540234
-123.175598461353
-119.814739013973
-116.210916852516
-113.088600425125
-110.856486543359
-109.147150847699
-107.274344037267
-105.012474145775
-102.702274590615
-100.603097214159
-98.4160179791589
-95.6507480087765
-92.3451627116684
-89.1389921383245
-86.5467612205281
-84.3501166643745
-81.8945198171451
-78.8975232348841
-75.7180582471233
-72.7719396578992
-69.921868022859
-66.6894305702047
-63.0065157432339
-59.465348295399
-56.6728214631871
-54.5164877795693
-52.2973984208956
-49.5631778852463
-46.5648321939856
-43.7737644980672
-41.1500088288405
-38.1743221840551
-34.6126358552978
-30.9682127899487
-27.9626135371504
-25.6752614422756
-23.448845835831
-20.6840384682661
-17.4948616442596
-14.4006213769434
-11.5172171352467
-8.36523748864094
-4.5632033715691
-0.460214702391497
3.18383810497137
6.09808326838715
8.81684624702353
11.9968736704938
15.6250092697623
19.13406127299
22.2257706847542
25.2614138936082
28.679527689443
32.2361951811891
35.1377912079667
36.9594621594836
38.1739039914506
39.5927912642295
41.4351563804325
43.2153875600041
44.5485946706472
45.7555979137243
47.4339381489638
49.5691409068534
51.4086818496825
52.327803071394
52.5906723250829
53.0213168580649
54.0145581537477
55.1665709683321
55.9627424050833
56.5522496111599
57.544390876385
59.104452032211
60.6004066417465
61.3342096552415
61.4282610939381
61.693493754818
62.6318843362041
63.8667501956157
64.7191283695625
65.1145446005264
65.5670110688802
66.2504316115493
66.446711029971
65.2128988217016
62.4889681245701
59.227370525744
56.357901071652
53.9089573427522
51.3883445092211
48.8488247771682
47.1440622141676
46.9603488040305
47.8763309863107
48.7318798510343
48.8982682854453
48.8463584620083
49.3046267114612
50.1331473930096
50.4024163539408
49.5685770536125
48.1805146525931
47.1692362371075
46.65379525312
45.8572862007135
44.2704950586152
42.5382395393709
41.8759992949317
42.7324978327859
44.3937429157284
45.9867404772429
47.5189148698647
49.5835749500759
52.1692204932684
54.2277534174411
54.6638377386524
53.5165812837994
51.8221720865942
50.3506940430247
48.8506342793059
46.7162269689206
44.0888117970465
41.8523701741773
40.5075306572964
39.4546770050518
37.7019410334249
35.114080140401
32.5752735767542
30.8620933542111
29.724423001261
28.3770832311506
26.7005708037251
25.4873004131966
25.3570656669016
25.7913015420434
25.6351605734338
24.479918297692
23.1341142877727
22.5558863654334
22.6403494957975
22.4492575746032
21.5538434050257
20.6709748178226
20.7077470614867
21.4706264716417
21.78845435996
20.9515935536756
19.6105005036877
18.9554189977852
19.2465417279912
19.6117301942123
19.3413516347206
18.9182776718296
19.3795667906157
20.8517716226015
22.2415509046
22.5518055077237
22.1197248584143
22.1418102499113
23.1039906234987
24.1884215702356
24.4295015715089
24.0488732045249
24.144229769466
25.1136479521074
25.9355376914381
25.3380248903046
23.3757529422426
21.3348848829094
20.0569848831994
18.8693732457399
16.5330713036902
12.9544861103095
9.37668144875193
6.77080965917195
4.55985363188747
1.40994151545696
-2.90163144484445
-6.99362976389056
-9.4452467546439
-10.4035250655895
-11.1628136903438
-12.3227150000239
-13.0036119817957
-12.170130949468
-10.2689625636583
-8.92534045960605
-9.01479561011757
-9.62699956439414
-9.30667588685003
-7.9528296468892
-6.87429803451401
-6.95013810680718
-7.38944210678088
-6.80675972894886
-5.21367870448557
-4.22674771290534
-5.10756074620454
-7.15959865400862
-8.61405088402483
-8.88480068050103
-9.24351076490063
-11.0297289405588
-13.782515791126
-15.808761635257
-16.4631856284169
-17.0864715395517
-19.273409691196
-22.6947660660489
-25.3543627209207
-25.9866037172205
-25.4636183339753
-25.3811266152255
-25.7515799798924
-24.9470792408091
-22.0245141201747
-18.3059388319004
-15.9820490806626
-15.4635573798639
-14.9659034131809
-12.9308832305746
-10.1094179218058
-8.51902674548613
-8.64343477144742
-8.66556750805172
-6.88705905829883
-4.18255235685747
-3.13062417295035
-4.79466671718974
-7.33083367557369
-8.32056815830455
-7.8242179695096
-8.11395535099874
-10.3886355832054
-12.8460594350013
-12.8094071926344
-10.2317351213544
-7.92535576123289
-8.06095109139726
-9.445599443805
-9.19607299242445
-6.67319521089383
-4.47189107436627
-5.0608581584855
-7.4570719635039
-8.40500629938144
-6.62476345341951
-4.54427568165584
-5.1633286451351
-8.1775457295295
-10.5744670533437
-10.9681352278763
-11.8069318726507
-16.303979104382
-24.096406455052
-31.5676234336996
-36.4984214644591
-40.5022629097323
-45.3596428111175
-48.0295833902952
-42.134090870193
-25.9474514107978
-7.58616118001645
0.228932434523577
-8.54900577946799
-28.3182515302288
-48.9215080218961
-66.7460235014297
-87.4545501679493
-118.455514318276
-161.331756349304
-213.05537534147
-272.230800773161
-339.689948201238
-410.895109963446
-469.996385489499
-494.968121643445
-469.690243346992
-390.053714058068
-259.730115071896
-86.1601754958758
113.066644310086
301.500977294727
433.002533729414
483.471477260887
478.793459103332
483.868145676905
550.197939142435
665.070320550209
753.402095140456
737.855122238373
605.739327335037
421.369446654223
272.637019655096
201.508178756357
179.862826841966
145.76797960351
60.0930890665567
-67.4453277670312
-196.655866223456
-291.989058019102
-340.71777010802
-347.05163092204
-319.642802202922
-268.543066659277
-209.517633315076
-163.63409013992
-147.863593972376
-164.988314824547
-202.500200390049
-240.682662341669
-262.398337330286
-258.799953107851
-231.000039324917
-189.382909757135
-149.841809563382
-126.249641034334
-122.846838633821
-132.835846433906
-144.940606861963
-151.924148500883
-153.212276204361
-150.52890256289
-143.054511779767
-128.203398899419
-106.572770845896
-84.3158986750712
-69.3391567891599
-65.0814174703556
-68.2821243592235
-72.4474824939618
-72.8289575123647
-68.3229106704785
-60.1073251174891
-49.9849014942878
-40.0543505570495
-32.5141536409583
-28.4012221491699
-26.4618546779975
-24.1150411909836
-20.0256901978856
-15.4146320178854
-12.4389689290926
-11.537576919073
-10.9655350984233
-9.00430747966315
-5.99361983853629
-3.66670074124008
-2.7902761458068
-2.22222871989132
-0.528025687333539
2.08446879364195
4.10995951207273
4.91127281925311
5.83860822690039
8.8066789381967
14.129810663431
20.3260610107594
26.0139805653582
31.377431271127
37.3726053883804
43.8697717935014
49.2732203698535
52.1576778121763
52.8126141404884
52.745497183041
52.8541825782877
52.613759725086
51.1786680339584
48.7886695391088
46.5875801496451
45.1660238970529
43.8287743279046
41.5670188992905
38.4302245247448
35.4957591331619
33.5235503301819
32.0953969384064
30.3274650098621
28.127984904391
26.2911564397802
25.3325910364674
24.6758424500263
23.3184373313946
21.1125135663989
18.9633789474018
17.6761133892016
16.9583644455727
15.8693057318552
14.1023822051002
12.4180846156875
11.6812734382192
11.7714402374991
11.7550592099175
11.0448516519157
10.0479539830676
9.57767343706418
9.94745615088515
10.9660346180466
12.6819449180972
15.6247373842589
20.0014002734368
24.8729400730166
28.5837481950154
30.1944514076403
30.314146626166
30.3463711190526
31.0407857970812
32.030663308995
32.7620849755855
33.5138576084222
35.189463754043
38.1706524970703
41.6836550119179
44.4510326206118
45.8551817430412
46.3678692092867
47.0233632793832
48.7663150901607
52.305820148167
58.1756219005938
66.4623673968131
76.4071248301787
86.6133915795678
95.9851267442775
104.499465523414
112.927352468963
121.79739960435
130.800098599065
139.269574182297
147.037140973398
154.528168899382
161.997534567947
168.934133438322
174.449306827991
178.195472889135
180.68611528987
182.656742845122
184.300216664205
185.30197454979
185.527618381473
185.400963151051
185.478385657918
185.803319284814
185.890721988256
185.342415219417
184.283297079048
183.08072755904
181.754470358321
179.845295653676
176.861285273823
172.674702439369
167.379574061782
160.896697513115
152.948518214806
143.484703339145
132.985995005494
122.205436348547
111.636914378169
101.340183244894
91.2555123684831
81.4983348565511
72.2031137480573
63.1587131263363
53.810534073365
43.7329175658347
33.0318014032725
22.1932421443351
11.5826675430394
1.21318753664185
-8.99313575090314
-18.883318422809
-28.1651516046926
-36.78338652452
-45.0369707509306
-53.2321164147889
-61.294915097276
-68.836174131482
-75.5798457264559
-81.615592060245
-87.2061249225327
-92.4829519158
-97.4761804727184
-102.408354531716
-107.766285347146
-113.93846649444
-120.809228494244
-127.808701946838
-134.363451401557
-140.206359310536
-145.232365274451
-149.21557558449
-151.877696006528
-153.277329810804
-153.983690944743
-154.714846855521
-155.801480103849
-157.083479850104
-158.315654817845
-159.533974838085
-160.92871563583
-162.451263263179
-163.740351338027
-164.514368580368
-164.925958818796
-165.386260163193
-166.039140435978
-166.52435747322
-166.313242528122
-165.193474764944
-163.330840762722
-160.912523972614
-157.904007820235
-154.249469541431
-150.21205214539
-146.341262193423
-143.041230123631
-140.241590267141
-137.549294292625
-134.664173043727
-131.559395111775
-128.297738619983
-124.842427753407
-121.170884342886
-117.514446691085
-114.32124651468
-111.895053585468
-110.113346312992
-108.551818297393
-106.836592433876
-104.790783689006
-102.272403754982
-99.0472550166982
-94.9775700612615
-90.3165340461836
-85.6683145836098
-81.5554758848216
-78.0462013952887
-74.8461358146551
-71.6947977793959
-68.5573849389211
-65.4232667958108
-62.076353883334
-58.2411485930867
-53.9739638319713
-49.7805994695486
-46.2388180365016
-43.5184764394764
-41.3261524777875
-39.2787316780627
-37.2093840859913
-35.0659382695896
-32.6395877770819
-29.5822526951991
-25.7516207766728
-21.4413264974876
-17.1634653088823
-13.2102636626306
-9.49400707694664
-5.80195876054909
-2.09676112695294
1.50055200730657
4.93694843619622
8.27958770690983
11.4932549340389
14.2714724033028
16.2185674770718
17.2227008847166
17.5974041314426
17.8552948869425
18.4199061586225
19.5880764131195
21.6472982965287
24.822723583039
29.0079605172481
33.6230816859735
37.8674376320548
41.1584450497752
43.3103839131059
44.3462363159011
44.2993993516387
43.3143230319746
41.8603721307454
40.6340297238972
40.1161925621511
40.2669389915055
40.7478007551186
41.421065269948
42.5159730475355
44.2774743063367
46.5906239654859
49.1010708195392
51.669828575434
54.5131794269276
57.7692567263924
61.021241632493
63.4416978658994
64.4743862225341
64.2807199808613
63.4525801539069
62.3970084196723
61.1668743551417
59.8708470255205
58.9976626150136
59.0993261339576
60.1616840541585
61.4756966371212
62.2420096655391
62.2306976998564
61.7612057512513
61.1370556720945
60.3260866325176
59.2715492997735
58.3166411803916
58.0480387889542
58.6597859498836
59.6405941740214
60.234255581196
60.1528875669257
59.7076255847948
59.2785713232718
58.8761903546436
58.3581672427994
57.9290688407314
58.1372558199025
59.2636900550473
60.8633569572797
62.09334303354
62.4777098214401
62.2071500283235
61.6820861393872
60.9726859771412
59.9118964407479
58.6198780101792
57.6339264402095
57.3476195205393
57.4431332905274
57.0943981855209
55.7590643654077
53.6198824646748
51.1934935161023
48.698358997552
46.0362599564965
43.3481482912676
41.2706004345097
40.3956301266046
40.5449334629672
40.8119608383636
40.3944452768712
39.2364946559725
37.7557130722614
36.1214900207357
34.097996285071
31.6404303223827
29.350108548798
28.0353146099427
27.8367130589981
28.0358867823302
27.8443108166163
27.2140297692801
26.6857926845834
26.5517130406384
26.4912776613999
26.1589180702233
25.8640338678373
26.3063850892287
27.598151446837
28.8403977024939
28.8954470190572
27.4721101013295
25.2212081929673
22.8106649005169
20.2547643678818
17.3751906288999
14.686167188587
13.3496825266091
14.0556113825646
16.177494677163
18.3196961832201
19.6394028559325
20.3438324134367
20.8447183591173
20.8038658662898
19.4146907708832
16.5685279860498
13.2966042146214
10.769371910902
9.04814348484829
7.18848759035962
4.59646290659115
1.92128587618527
0.358816617390715
0.292697071513913
1.03425381693421
1.94053483954724
3.34498131335556
5.97729063820555
9.58207670259037
12.58765519441
13.3868810057284
11.7291085069492
8.5821599870427
4.78837831231485
0.328252126336949
-4.92186856412334
-10.1294946093354
-13.7750231250132
-15.0853225913651
-14.8334872017319
-14.4434193535877
-14.502656405838
-14.5172530974473
-14.0684039723717
-13.6851843323637
-14.1981753625156
-15.4739627246792
-16.3549758709017
-16.046623542067
-15.1940657315273
-15.1920398926116
-16.5509889357073
-18.3954418704831
-19.6942046281188
-20.5416406017042
-21.7673990750407
-23.4370880864951
-24.3702683265472
-23.4983599463386
-21.3883582555132
-19.9068590138192
-20.343289876041
-22.3020493576621
-24.6634752663045
-27.2081720497137
-30.6795444891783
-35.2264891772012
-39.4299743735281
-41.4116445648845
-40.7382360519724
-38.6907042518876
-36.5517135691613
-34.1506576871413
-30.5334157549189
-25.7575127445336
-21.2889536804456
-18.3816209058134
-16.6200683633065
-14.6804172459611
-12.3807597772681
-11.2442737618326
-12.6798879105904
-16.0896970054626
-19.4198279824659
-21.4725706633509
-22.91448762425
-24.6323133657989
-25.725457802542
-24.070037627498
-18.9909344724103
-12.573176262373
-7.6818971515158
-5.02665263619331
-2.97639243711707
-0.310930426351478
1.79855542589953
1.32301781493977
-1.55785369731355
-4.08331608972351
-4.05235207039903
-2.56047830039425
-2.6939938276769
-5.71868554538432
-9.65001328874811
-12.0506923491714
-13.3109304764052
-15.9572065448753
-20.8447394560736
-25.4426484095794
-26.8231948192564
-25.6057128788586
-25.4926403192101
-28.682262411421
-33.076869197803
-35.1060608686195
-34.5201144851984
-34.5699671268264
-36.9695257354382
-38.3867792490231
-33.859983313705
-23.4914271029955
-13.7102675015876
-10.6752199713573
-13.6393458734447
-16.8690521867775
-18.0628921794845
-22.3643063333443
-36.0053631833445
-57.0341805557376
-75.4245638385391
-83.9455392703783
-87.3812760410913
-98.6747589554971
-126.082074866668
-166.522348862778
-212.681929642577
-264.027879778956
-326.509212092289
-399.680151882843
-466.261947021607
-497.423445166771
-469.37487258959
-375.217845958169
-224.120244591459
-35.6092826662114
161.618019370995
330.980830620309
441.57781322836
491.550339344597
517.413559725656
568.773112567348
661.685225438258
754.06432305762
774.112619362407
682.557376884422
511.829895639062
343.097410219067
240.937733168169
205.868190611526
185.556586108188
127.838204570377
22.7044828870624
-100.403882558886
-205.712376204248
-276.083996364349
-310.801437021279
-311.070553963175
-276.86563011053
-217.549136292046
-157.972080140182
-126.900738213778
-136.945400001122
-176.203119317155
-219.205730331
-245.04278070595
-246.403556546429
-226.420302081287
-192.48300910204
-154.242243396922
-123.257783524248
-108.973034741071
-112.721497457032
-126.899752170203
-141.543956635855
-151.477507127827
-156.40119273246
-155.366027968311
-144.268497391723
-120.724582246148
-90.2648173682962
-64.8500166653624
-53.5148379230177
-54.7752465546888
-59.0264465298025
-58.0777270778055
-51.496645909654
-44.0400901497952
-38.8417946473711
-34.6714959371731
-29.1908064810555
-22.6859877573541
-17.3400705204609
-13.7907034225378
-10.194756343433
-5.1145270701673
-0.0803632219759578
1.88408633872636
-0.025992281223381
-3.29537613309124
-5.01371664066815
-5.00806651430706
-5.24525994476333
-6.55918606955135
-7.17727109691744
-4.96269528105339
-0.305955126603774
4.20795668968521
6.93011886997897
9.00742551412056
12.6467034659623
18.1527587113593
23.5684455014462
27.2059521462035
29.6154590430275
32.460060413223
35.9560020966392
38.3831242979037
38.3289777861321
36.6812489097909
35.7455648264569
36.6544589069023
38.3929317068444
39.5310264826745
40.199899998079
41.6765230750109
44.257921821138
46.4148123633653
46.4730304377188
44.6672824850772
42.8888174700563
42.4608187235233
42.8020711761694
42.5786270877539
41.644828436877
41.1279499694227
41.6013311679363
41.9033087816753
40.3110475889857
36.6285228758991
32.4972645903789
29.5344238753325
27.6945489430082
25.8739409463367
23.7855168487204
22.5084412601604
22.9703262355638
24.4376701856308
25.1173474341398
24.1845588994376
22.6504084595912
21.973236524781
22.2276494064977
22.1591146391869
20.9413345984029
19.2536969012989
18.2750219513601
17.9975485509248
17.1722994763707
15.0266196450239
12.5318251418551
11.5512285428131
12.9215404427004
15.8463724136161
19.2226800622158
23.0366354599687
27.9977842599193
34.009202123283
39.6466487488145
43.480900322082
45.6269408700297
47.5721799578078
50.5293828901665
54.3873236233475
58.4476525718773
62.7799593695779
68.3091891448881
75.5410337925656
83.6907346986162
91.4485515759299
98.4421757661888
105.538817854791
113.650315906366
122.618738806716
131.560702109113
140.072265955306
148.603392783243
157.515688137397
166.167237126474
173.352512044224
178.598472336532
182.641040029931
186.45748784036
190.108304029449
192.853814335755
194.295607616594
194.950086585494
195.472405251654
195.609565947115
194.368232491163
191.275709525254
187.122676033292
183.194414511078
179.929428963647
176.658972055191
172.651998001053
168.009896832961
163.227325176122
158.071917168556
151.388312544689
142.232543228226
130.969625053303
118.95575380483
107.198686999715
95.6402646790855
83.8330337151918
71.9676126163097
60.824290330932
50.7258695516984
40.9388570787698
30.4016248219009
18.9192611370128
7.34626053537955
-3.42845044845389
-13.385493802675
-23.0928697390073
-32.7534852746417
-41.9259903826548
-50.2776359314922
-58.2959765536482
-66.9258417537838
-76.5349913571141
-86.518124346155
-96.0268700768934
-104.867746105838
-113.448882035987
-121.956430089733
-129.947505797412
-136.930677313302
-143.123333112219
-149.297945089705
-155.83563288826
-162.185417667098
-167.434993023926
-171.276011848697
-174.166230437144
-176.570495618017
-178.359032936279
-179.176430899674
-179.244118728646
-179.438177939649
-180.428952423244
-181.929331625064
-183.001549056203
-183.036970546276
-182.197882522078
-180.860420788969
-178.911827727519
-175.897979703191
-171.823557839279
-167.48329946863
-163.786786646617
-160.864673274888
-158.060150837717
-154.793928765684
-151.200836625051
-147.782983122912
-144.627626518258
-141.27831039042
-137.435880840011
-133.529859026331
-130.347143247421
-128.137180059956
-126.308066463685
-124.081261936803
-121.26892189459
-118.236748601665
-115.209120564266
-111.903164795368
-107.976401047345
-103.645999443863
-99.5954232903619
-96.2337454912732
-93.2405189845866
-89.9687393329452
-86.1792441463381
-82.1915120271271
-78.3424169601431
-74.5490503158809
-70.5779783209959
-66.6201562144544
-63.3221552221923
-61.1385075273594
-59.7939001801978
-58.5412213642479
-56.8979854342015
-54.9564506141932
-52.9527330406262
-50.7533517765662
-47.9879562347722
-44.6486973898996
-41.3116867565182
-38.6062347137189
-36.5464136230159
-34.5430926287116
-32.0633465514382
-29.1093917543905
-25.9734466725044
-22.6872815228568
-18.951792952635
-14.6412724932588
-10.1705933105458
-6.17161603492984
-2.83771680175887
0.248382601631992
3.59377951736527
7.24527737688759
10.8764562559013
14.3238897915507
17.8071039401562
21.5205431140636
25.1581473052499
28.0599574465841
29.8738996764553
30.9389373257873
31.9147683528852
33.1041778213886
34.265787328484
35.0712684729414
35.5661204817835
36.0497414683334
36.5833569095656
36.8219752959972
36.4411801590944
35.6652153991799
35.2712424156767
36.0733779708054
38.4596991698752
42.391588907349
47.6712927647568
54.0371609251951
61.0030568992357
67.7672379349574
73.4283227528294
77.3311119428376
79.2111147906798
79.0925040412689
77.1841956188579
73.9132485864108
69.9297307597307
65.8965870548975
62.1985793000071
58.8971622037581
55.9971283178492
53.6890735412537
52.2448354596471
51.6960554680126
51.7336606341996
51.9987211463222
52.4178065212191
53.150953891147
54.2068954055785
55.2232878743401
55.7253363518593
55.580078795925
55.1093064797137
54.7367735771179
54.6025843567572
54.5816366379176
54.6107804055989
54.8534606751886
55.4781298599586
56.3525768349331
57.0739170271559
57.3257217243217
57.1449326365531
56.8080950077188
56.5203932641045
56.2957504030976
56.1183866015312
56.0996730493861
56.3828745519905
56.9218907108818
57.4510486812902
57.7188837492025
57.7136524183763
57.6197267233508
57.5865744903518
57.6087764836863
57.6340362394992
57.6980704417232
57.8606622029293
58.0105114636238
57.8161942018912
56.9399939169341
55.3048377014543
53.1319313155707
50.7365087266401
48.3360306188516
46.0645612527292
44.1007508277831
42.6789080452336
41.9246240581188
41.7023649495848
41.6707949666279
41.5124130723433
41.1207884605228
40.5929435247592
40.0833617830495
39.6853153513563
39.4250608196963
39.3140999542167
39.3617749495103
39.5209108229526
39.6255155392705
39.3996196038334
38.5636008454433
36.9817069225562
34.7428811136476
32.1015784275052
29.3216272554371
26.5631808741762
23.9117469009332
21.4874285641281
19.4714552829283
17.9871117857492
16.9719689251885
16.2215507936767
15.5846904515709
15.0813962301389
14.7797397682822
14.5620143748152
14.071224498787
12.930875271701
11.0008413415314
8.38864612648119
5.24755147046028
1.66403048341617
-2.19396980335183
-5.87177029683363
-8.69446182653755
-10.1222998486257
-10.049257795489
-8.7541760095888
-6.6229663547941
-3.99890759917538
-1.28728239984714
0.937756236963551
2.08878921908035
1.87866522037342
0.44063050512041
-1.87803735913172
-4.78628716814733
-8.07803644137461
-11.4730204389109
-14.5825060298137
-17.1119286713577
-19.0396266139875
-20.5072347803826
-21.5517868048962
-22.0517006729277
-21.9801370549647
-21.6194650704279
-21.4124687101318
-21.616780603482
-22.2196178301163
-23.2221010343848
-24.8624214823735
-27.3849272591323
-30.5921970547461
-33.7969045391481
-36.3367875685526
-38.0681097933883
-39.2286722402523
-39.8706239080111
-39.6595623019813
-38.3681530384351
-36.4137984413351
-34.6243615993977
-33.3867902327976
-32.2154174572032
-30.3421052283164
-27.6408204871557
-24.7246926382247
-22.0952259700572
-19.4823521101972
-16.3053685643155
-12.6959814090302
-9.69222443922557
-8.21514929891737
-8.05092314719805
-8.1470618789745
-7.88053447881327
-7.67926675824559
-8.20157618626474
-9.19137628049682
-9.60306759360986
-8.9176655818783
-7.91498280047385
-7.78498991054038
-8.64575704310628
-9.40449154500448
-9.1940857948272
-8.5107854461557
-8.51038444723673
-9.36906212273743
-9.94921130395365
-9.33313931983758
-8.21872895147811
-8.19980169418782
-9.73193208247567
-11.4783908484648
-12.0475662927405
-11.9067227878861
-12.8219178287409
-15.3766890564592
-17.8569973460592
-18.2262368721625
-16.7985602134664
-15.983730283359
-17.1200557105601
-18.4305369133691
-17.065431093882
-12.9661606908095
-9.56916295594488
-10.0658544790417
-13.670850492757
-16.650145632339
-16.9296831691223
-16.4146518139176
-18.0348109584681
-21.5776503201598
-24.2809300985472
-25.8923832020804
-31.3840608768744
-46.805183873012
-72.7611107189117
-104.076035197051
-137.007925241364
-175.221172531313
-226.001190439157
-289.908497695096
-355.933438295437
-408.083192363069
-434.874219837789
-429.267856499757
-380.178020344299
-271.43406025452
-98.5916325831216
109.835116766155
294.581118273876
401.652188531688
425.931433693985
419.776978034875
451.160796326802
544.084381960862
654.720918874681
706.273541323091
651.965972992583
510.992380779302
349.367530616359
227.757615403754
163.007370134537
130.196896393214
93.1125696111404
31.7442041924032
-51.807512401484
-143.347814919627
-226.900266406664
-288.284768231556
-316.364499305957
-307.055986368257
-267.875860962626
-217.033543605451
-175.598583423287
-157.866443043401
-166.16127131743
-191.983099061998
-221.204301655582
-240.230417563653
-241.030297389239
-223.457136489317
-193.917214101802
-161.430671168793
-133.983568246699
-117.139190733324
-113.800250938374
-122.881105241202
-137.487116040115
-146.292032213318
-139.95379286448
-118.395543829801
-91.7583840900958
-72.792253524876
-67.053503752175
-69.9269097402569
-72.6536816609203
-70.5262593519512
-65.1279613637354
-59.8898641571938
-55.370108689325
-49.5869592666954
-41.7475959887179
-33.8248440390687
-27.9840625201416
-23.6121088579335
-18.0982374926941
-10.3813113844802
-2.58163037103002
2.423245528435
4.32805662689087
5.39897018807069
7.32324565721146
9.13376305452199
8.87672313412921
6.71361369998127
5.30475415574348
6.92595587192628
11.0099844078253
15.1730942243783
18.2398167336228
21.3146728062364
25.6826009419504
30.5223147450882
33.564091324362
33.8423241287514
32.909532093707
32.9198910897669
34.0824840106973
34.7314267514886
33.7668288443775
32.1607173939996
31.5860618142927
32.1042552557686
32.0651149057025
30.3736078418009
28.0997468896787
27.2691800511746
28.3948428318692
29.950521062529
30.407220336929
30.1046890909373
30.5298909633211
32.0657164000265
33.2941941143211
32.8299405842735
31.257618619065
30.5758212725317
31.8222446654692
33.9299739267856
35.2227157889108
35.5061729853382
36.0166421275949
37.4115289829099
38.5981867900952
38.0312549212369
35.7597669639156
33.467939920126
32.415454373509
31.9821157936611
30.7087223998293
28.3796055421116
26.2962789381272
25.347596256486
24.5284451754298
22.0752577564708
17.9087346935796
14.1812208213126
13.0219164707331
14.1762357961574
15.4638032730565
15.4649730539056
15.0720878020712
16.0557410508518
18.6200805940739
21.1331376641783
22.3241680599695
23.0473686522223
25.3293952678586
29.9545746608984
35.6671034120372
40.8883376576452
45.6050938291599
51.0064423723289
57.5125181669267
63.9331138116241
68.8970703350716
72.6149767654174
76.5934373306961
81.6601196944619
86.9027516028344
90.8965851240258
93.5612704998541
96.1955104362924
99.7132832954043
103.516506916507
106.559311230526
109.170130402077
113.107670471678
119.623383983832
127.959215297223
136.193888132147
143.321190848783
149.888601010863
156.487585189032
162.258642023809
165.544725927134
165.930771161472
164.984471079168
164.633022402533
165.16625139742
165.336651445638
164.301011215493
162.795774313389
162.030308056754
161.846235461929
160.670826924319
157.403042941754
152.780517132751
148.413937198945
144.710043043328
140.34873001783
133.946644464168
125.711799143835
116.972295405179
108.301489506506
98.7958910886175
87.4882476258543
75.0064257619977
63.2251841558988
53.2780001499581
44.4410524346198
35.2599044004491
25.38898821174
15.770131683122
7.05108287364699
-1.5159122563518
-11.1455631376985
-21.7771014637536
-31.8756040455985
-40.1284421525311
-46.8954024555681
-53.5913088346382
-60.8788039857033
-68.0524857604339
-74.3387205812828
-80.252669980974
-87.0909626144649
-95.1704827139523
-103.165258893192
-109.505102289653
-114.101905993927
-118.230610774494
-122.795637181621
-127.286133841111
-130.740133699666
-133.328513235967
-136.344109855653
-140.534788851917
-144.980576960684
-148.060592012625
-149.328141676229
-149.912811096155
-150.986716336673
-152.339126482022
-152.897745406477
-152.410679768565
-151.954170887906
-152.515568912762
-153.511487893156
-153.25818263989
-150.879369998244
-147.246785746462
-143.796295977346
-140.807338197636
-137.368367615106
-132.966070697152
-128.476737949587
-125.163369219986
-122.981717257462
-120.475063945467
-116.480332617873
-111.490972425833
-106.966368610391
-103.552476168302
-100.549670242196
-97.2395076686227
-94.179393688143
-92.6319152164865
-92.8342110286861
-93.4377655441183
-92.9655298313057
-91.4787318859931
-90.3371482732219
-90.4046379848521
-91.0514582366509
-91.20163217948
-90.9355200924733
-91.419956955125
-93.1882414584982
-95.0494156426675
-95.1586740502728
-92.9796124023649
-89.6913808732243
-86.5947433773139
-83.6277398970278
-79.8695213073921
-75.2293810100055
-70.9482522776356
-68.152034865552
-66.3383799001757
-63.8345218773328
-59.7099879981731
-54.7297702744439
-50.1923630710978
-46.2460967698222
-41.8935953655025
-36.5921791443215
-31.215452220845
-27.0081380382109
-23.8835841388988
-20.3547347551897
-15.2783477209913
-9.20645899143048
-3.63638222269059
0.817076513826571
4.93797630239249
9.51607167747374
14.0035961463962
17.1053706097254
18.5755170962265
19.8217117051216
22.4255328477353
26.4068387383097
30.4062571109695
33.4714970323148
36.0851665035572
39.147185655264
42.3742661012107
44.3502868874761
44.2394949782292
42.9189227219232
42.001861254277
41.9755342480007
41.828937866984
40.5834134855838
38.6623111983063
37.3128794130608
36.9247994036652
36.5582860503019
35.3484436645825
33.8990826036094
33.741580182847
35.4858649905865
38.0450482442279
39.9289183300143
40.9014750364937
41.8636283536928
43.2243267169223
44.0534728729903
43.2479575342393
41.1928740137011
39.6445686281785
39.8544199568586
41.2813049098435
42.5057364846113
43.1007288123582
44.0011156768402
45.950923774496
48.1934719959005
49.2562429718503
48.8672821772861
48.4609996100664
49.5210035998923
51.837106148933
53.8866912439308
54.791013165812
55.2717986988538
56.4076173921522
57.9335711726536
58.432440612769
57.2230414579099
55.4395870518929
54.8044186081975
55.6173457000435
56.5258029472583
56.3141243665678
55.3279925651443
54.6974917586336
54.4981017022219
53.4210503310737
50.4906596513432
46.5708149967903
43.5958302955147
42.4341930354869
42.1156508531583
41.3783986110849
40.4454155109749
40.6596888979107
42.4873748756046
44.6151878038839
45.4447330986429
45.0739048326803
45.1285127720858
46.5914082341107
48.430304139395
48.8211643857161
47.379822566536
45.4987111587678
44.3912087347267
43.4797340490973
41.3063230716366
37.7758067857445
34.7133900219543
33.8837071729546
34.9585642441189
36.0306328782691
35.9773596638496
35.601268194058
36.1364265212915
37.214319082344
37.0893539415967
34.8934219628683
31.935444956317
30.255047804556
30.2328375088171
30.3124612842895
29.133961453346
27.2422728815115
26.1551170492847
26.1162965832554
25.6153460672392
23.3843674683898
20.236368014497
18.2546558428284
18.321370974828
19.1799373262034
19.2148123022092
18.5526612898395
18.695511445471
20.221588233098
21.7040815768903
21.388745032298
19.451076888373
17.7974029863467
17.5886348768732
17.716027849372
16.2547245810384
12.9957248520953
9.70722520380154
7.77467166194419
6.37524573175059
3.67390774448855
-0.494883714209323
-4.05079815133877
-5.08098793849486
-4.16893377238248
-3.59972803372985
-4.45705031905442
-5.38871847473863
-4.6186840138971
-2.49196622889585
-1.12878820260998
-1.60884546530799
-2.43385963436956
-1.38578115421842
1.58414575346471
4.20676860992678
4.68452225270654
3.75976849066952
3.38006504850788
3.818041258173
3.17352072419996
-0.00666074263290639
-4.49052920785325
-7.60090284489728
-8.43620582438048
-8.87250467521071
-11.0025343349167
-14.3724446390004
-16.6730272887475
-16.9541119937939
-17.0177059048421
-19.0139682820069
-22.3624191545406
-24.1607597620479
-22.7153671665731
-19.6475588386246
-17.7965115367647
-17.6377649936296
-16.9199850517285
-13.9842909815987
-10.3115701495985
-8.8036958113066
-9.97717689784387
-11.1348336831532
-9.74624872770873
-6.68243624173966
-5.04360981106461
-6.09418875377887
-7.68090915769873
-7.25706773076804
-5.47980294257912
-5.48643076307242
-8.67559665388967
-12.5919964424686
-13.8792729722918
-12.5450040940039
-11.8938859355912
-14.1211678863425
-17.372320790249
-18.2525608195765
-16.5260041436703
-15.667757355689
-18.3213691873777
-22.6008546721101
-24.3096403148903
-22.3789815224984
-20.3552638029846
-21.7669677788585
-25.3487562386977
-26.557795055708
-23.6330035354365
-20.2469723244978
-21.0025279177824
-25.450424022022
-28.5454512452948
-27.2053838288758
-24.4802298859372
-25.6642458850018
-31.1441009173881
-35.2400203470795
-32.6744657896012
-24.4160143868089
-15.5739880620881
-8.65816575103316
-1.65011246339666
6.51269592815541
11.1732773264669
5.70919934668597
-10.1807473282241
-29.0599909048015
-44.4884428106881
-59.1808202033027
-81.138287528606
-111.747986478657
-142.000844572636
-164.235295564333
-186.02444542156
-226.720901426246
-296.409728066318
-379.740922132925
-444.079104269706
-463.763965262893
-433.258336486473
-356.566491848779
-231.705583954734
-56.5459721027199
147.179783444968
326.188589782424
428.31369291197
451.919278658785
457.993373994568
520.15166889153
652.788599984484
787.992232342517
829.059908613524
733.028996212051
545.269631522815
356.996527411954
230.873153325489
164.226485227608
113.976393422599
46.0591067428105
-41.3559477305983
-132.210782692288
-215.013805210257
-285.540325635868
-334.884660682865
-347.261469138319
-315.754019589442
-257.051395649587
-204.251091824548
-182.268214580726
-191.07814480611
-212.810894279783
-231.79906193721
-244.617664435356
-252.527354664962
-250.666824798303
-230.128351937789
-190.564200137556
-146.549608185145
-118.069809057269
-114.374298721497
-127.888422388826
-143.077037711087
-149.391291122277
-145.702665261918
-135.438404947004
-121.207017122138
-104.808267833553
-89.6012454205915
-79.685479265658
-76.2305459710783
-76.1930555267602
-75.6352989678234
-73.492397441054
-70.9948209268447
-67.9589412050785
-61.5331826845743
-49.6760774555315
-35.0038460515036
-23.5893599791855
-19.4302722331675
-20.8164003898528
-22.6729392929716
-21.8911958171343
-19.503063043797
-17.8999634486123
-17.2922818459241
-15.8251747459891
-12.558203823829
-8.94960178583371
-6.90871371039522
-6.22402815896452
-4.87385413404266
-1.72766178328804
2.0177770930415
4.51543614842667
5.72818970255585
7.396434197353
10.6423156045781
14.450718764609
17.0054844693729
18.0405233460769
19.0945435718822
21.4125302986294
24.327301389245
26.220131521796
26.6995504000483
27.0881067501995
28.6368011390477
30.9026467439192
32.4346419093087
32.7990576420314
33.2218892752407
35.0095328706083
37.8537726755975
40.2305346704625
41.301523900247
41.7828910826369
42.6913594733683
43.7231847430676
43.4778689506972
41.2529594848094
38.0440237705767
35.4360824139992
33.8318065079067
32.2804221071871
30.0266959956931
27.6711449623732
26.4324895348319
26.5582976350271
27.0254582036268
26.9036152543352
26.527919116856
26.9047810181067
28.1533866396884
29.0866946875516
28.5401191182118
26.7545937179039
25.0455668489449
24.2179291145538
23.7819220389244
22.9244965418283
21.8831949646213
21.8828269743305
23.7169430771277
26.8251938057908
30.0353743990338
32.9568347754864
36.2098061575131
40.2591993906302
44.4620480591202
47.6281377850711
49.3923672927322
50.6512107080621
52.5488648217033
55.334040349345
58.4551343620676
61.5604257016164
64.9467686013058
68.9139542255237
73.1062015621192
76.9820711599141
80.9194838548774
86.3571089631394
94.4105694380304
104.375494571605
113.902620826675
120.812413239772
124.674175861298
126.62044272147
127.912438571963
129.012211594806
129.988916097908
131.34877134766
134.026507862105
138.564628052625
144.613378168689
151.399578223541
158.503185191807
165.927858913486
173.462072829857
180.287905464233
185.434234498792
188.525382524483
189.892813960223
189.968235716654
188.78695045862
186.20565704275
182.440940712908
178.128414623139
173.797442953671
169.465727744816
164.880798337255
160.041991334946
155.262897178281
150.684357833667
145.922303852394
140.370634457191
133.797677425854
126.473191587182
118.688425608154
110.340308823656
101.149276858343
91.2038899434896
81.0587933950749
71.195410689677
61.5162309617933
51.5283659187374
40.9864841284638
30.1759792397324
19.5025967349421
8.97043728703413
-1.73580206433933
-12.6699906087566
-23.3355952157943
-33.1162316705347
-41.915520775325
-50.2129466870846
-58.4832666817257
-66.7240387247359
-74.6612444780137
-82.3059706800179
-90.0931114236971
-98.4038324243632
-107.08841062234
-115.602672051869
-123.577664302371
-131.105178503231
-138.418477062926
-145.426808329627
-151.70890700862
-156.937252590578
-161.156890803647
-164.581597182613
-167.229846335576
-168.90840928254
-169.545623755291
-169.394104041852
-168.814297820568
-167.931764585667
-166.628299266141
-164.859932326002
-162.84495925724
-160.854074687539
-158.902253504966
-156.801450256927
-154.547176272085
-152.528560591643
-151.238441799776
-150.798003653228
-150.866327725978
-151.031761339434
-151.184557506392
-151.418841292515
-151.636539014105
-151.413242142505
-150.340929595615
-148.43999259167
-146.132060304943
-143.79929052921
-141.436503149486
-138.746534560706
-135.482035085529
-131.602416919053
-127.13477017877
-122.025982063178
-116.235612617459
-109.953609368798
-103.653052631766
-97.9105320812438
-93.2014565742386
-89.8364149755662
-87.9610558701979
-87.482390684037
-87.9855825356752
-88.82913556863
-89.4174410425521
-89.3926998302805
-88.5567124635584
-86.681453116566
-83.5244677460475
-79.0800607668675
-73.7306662539079
-68.0337271222374
-62.3412657055959
-56.6995929615337
-51.1467893909272
-46.0109242533995
-41.7895355235599
-38.7205672209597
-36.5634394993003
-34.8551002642234
-33.3068296554133
-31.8446432782587
-30.2893024025197
-28.1733062098523
-25.0285818780034
-20.8484336654197
-16.1580084339602
-11.5897854099402
-7.46643081628292
-3.8556478322958
-0.929789679451471
0.932801324072855
1.5043418158106
1.0766833862336
0.328596436006499
-0.206965619984487
-0.464696165538058
-0.607423374296104
-0.572838523113887
0.00481628393515621
1.42016470801249
3.57804725511275
6.14796109345514
8.9815195755632
12.2493505308827
16.1342400406253
20.4922307176017
24.9131436500693
29.0802535762383
32.9640340681465
36.6469256380151
40.075313533157
43.091613904274
45.6672396930737
47.9599099429103
50.0743149219791
51.849502405643
52.9936057955092
53.4194803508815
53.3444483954336
53.023136380531
52.4849471826742
51.6520518412664
50.6852101046775
50.0509665264031
50.134634080062
50.8369370727108
51.6725682614574
52.2901720910414
52.806462560722
53.5773215420792
54.7308942621898
56.0626566110179
57.3930791719261
58.8718583252336
60.7816336074292
63.0533369383915
65.0959659731237
66.1678438587146
65.8709499439006
64.2543732193812
61.5438702302922
57.9464757032747
53.7719570573741
49.6057606835561
46.1756431654239
43.9855674802543
43.1273407349423
43.4520410706288
44.8163245966758
47.0699824031448
49.8804260505475
52.7702218262102
55.4466860094601
58.0276317471956
60.8130229736992
63.8247927468076
66.681014910678
68.9769316096331
70.688487831747
72.0692461625021
73.1768290827103
73.6773484749019
73.2318564871048
71.9876629211807
70.5121140149477
69.1990451589546
67.867804548271
66.0499578524823
63.5900057235702
60.799347549065
58.0050184752616
55.1336087839219
51.9078889939764
48.3902765841466
45.1106724412365
42.5462312917565
40.5897548391843
38.6920930246253
36.5055780770954
34.2133614313212
32.1567887690932
30.3086401086756
28.3380985836504
26.2002469620492
24.4397096739425
23.7332308441791
24.1907913284313
25.2766344030869
26.4322204005618
27.5965627367934
28.9898462213058
30.5213244181235
31.6751907843716
32.0627201743838
31.9018871199068
31.7518028941149
31.8153350218234
31.7106518149208
31.0009737314127
29.7684986324111
28.4708826695318
27.2993754691035
25.9442500787496
24.1196834910202
22.136483517818
20.6908399869787
20.0709643608706
19.8043591466068
19.2399328930501
18.3351417910723
17.6258884030223
17.4261770080199
17.3402803554533
16.7717043111292
15.7681438788522
15.0371629876083
15.0259904193801
15.223052100611
14.6184646680338
12.788371762789
10.2536739821874
7.69885088953121
5.11904641299205
2.04091233497324
-1.48760778998047
-4.51205039146269
-6.01091926893566
-5.96311260250742
-5.2979950798067
-4.79493795651069
-4.33852958847728
-3.43863483194907
-2.23939384082562
-1.59798046041074
-2.07590955162338
-3.18106555021483
-3.91838838832978
-3.98851488753275
-4.0900596234418
-4.93374823190283
-6.26658074606838
-7.18934184623836
-7.33107014633954
-7.29802566448909
-7.78474711021489
-8.5470925439878
-8.66217123977724
-7.79662072858729
-6.82220067942151
-6.92641963388999
-8.33391985000299
-10.2718686344661
-12.165329134292
-14.4148524329115
-17.685410668876
-21.6786590018198
-25.1242752162819
-27.1310267262975
-28.177921927234
-29.4220205140654
-31.1969823693191
-32.6654698408053
-33.0661981599847
-32.8459945763828
-33.0851118605306
-33.9254224500252
-34.1409175436324
-32.5584798613617
-29.5598943308873
-26.6845936167599
-24.7922421471553
-23.1598182576534
-20.6910869187551
-17.6139558351708
-15.349875482025
-14.6567370780109
-14.5131922305023
-13.3256992395785
-10.9721532778221
-9.00299504391498
-8.68102984160507
-9.40812280663725
-9.62446180465637
-8.99055022290305
-8.89984313276902
-10.5545243956884
-13.1508686276034
-14.7055299893733
-14.5819791035288
-14.4045530863302
-16.0473675180066
-19.2543155809228
-22.0381106143482
-23.3760117356685
-24.5931885937425
-27.4620680694099
-31.4524480555548
-33.8933049765691
-33.0822910303126
-30.377502076246
-28.4359473733487
-27.7852027919067
-26.2647599678945
-22.2365880586989
-17.4129190719178
-15.4030025457405
-17.5876461133813
-21.5916213694561
-24.4504272114976
-26.451457200887
-30.5608836875157
-37.9592029589261
-45.3566537916078
-47.6795846952435
-42.9763861941281
-33.7063507692846
-23.3925539547233
-13.4864878226548
-4.40986638627119
1.50766393392699
0.295726249764044
-9.81974718333497
-26.3437566166485
-45.695967760551
-67.6060588578189
-94.1163014622567
-123.893783751343
-150.591019214955
-170.535040625351
-192.115390141181
-233.240606186435
-304.582273936034
-393.858348249012
-468.514210178662
-495.782912892503
-460.642867511915
-366.10617011474
-222.324799087693
-43.3408857939444
144.055363492794
298.11993540214
384.370830255851
409.376558599894
427.999609204356
502.760878947217
643.534327655453
785.549319054207
834.787702054302
745.322028587528
558.663094674582
369.088458251594
248.49953537268
199.336764983157
171.456638976841
116.286382480182
23.6804800668284
-84.2952333393362
-181.781898619721
-255.127381405356
-297.656851078785
-302.13904666546
-266.943612400906
-207.632451263414
-154.526624460676
-133.124774455953
-146.338753839881
-176.887221451592
-205.634910852386
-225.008083468836
-235.311226831481
-233.588616820471
-212.345014025073
-170.688967179
-122.959076577938
-91.6614142917924
-90.0041864180427
-111.738149424434
-137.99159840486
-152.770786207615
-151.76905545844
-139.18427871798
-120.363521128394
-99.2164110664127
-80.1275722541288
-68.1512809444992
-65.4732608993891
-68.977204304303
-73.0703206879995
-74.8142174227023
-75.0589703549609
-74.5682555658072
-70.9394601205211
-61.1014043110958
-46.4467761246189
-33.4927829799372
-28.168689998759
-29.959210258216
-32.7484748430343
-31.3569283437704
-26.1953619035203
-21.1765230803372
-18.2932966409116
-15.7216912937661
-11.1385382923808
-5.27130744445851
-0.959496275991718
0.722346515935207
1.93960272010787
5.25865009355723
10.3571454868062
14.6055905333334
16.6109152457706
17.9637155816923
20.9546545642523
25.3963189917105
28.7740951811668
29.4620723167692
28.7251477356814
28.9332828548142
30.4419035864005
31.2622540974267
29.8609505733576
27.3012083571529
25.8997248114707
26.2383388695596
26.5153272068756
25.0676659529244
22.6903646512727
21.6810223395493
22.8866541647005
24.6492225228379
25.013695083299
24.267232159023
24.4781857594917
26.6782649527162
29.4238393344429
30.6418762607851
30.347532533949
30.662352499917
33.0381529550562
36.1665985040972
37.1613323407485
34.5049778845456
29.2391788903807
23.3298718557448
17.6505177457238
12.0729320091541
7.00249766082741
3.76661821009529
3.09377403036861
3.83980807520981
4.00990400576858
3.04698083995888
2.47898126966464
3.98830767713279
7.29246168992319
10.5202372062045
12.5762458397161
14.4372809014037
17.7311108613338
22.4689832179116
26.8621497128138
29.421650896741
30.6211555661426
32.0641887792188
34.37677973618
36.6114259651581
37.8257556759863
38.5955895962473
40.3893394380461
43.6703130389962
47.3291371209608
50.2595177379608
52.9871472730849
57.1453669156417
63.4435060168575
70.803704502326
77.8231421323892
84.6291906787344
92.6274015796791
102.392981400091
112.44145907101
120.557201232216
126.096402971458
130.433736943103
135.093016030651
140.009316941216
144.079325246642
147.121432099506
150.569739814639
155.955290584266
163.148323586148
170.619815961294
177.318641517551
183.68831079513
190.555312735217
197.458892166842
202.709534275766
205.156362674304
205.38662272841
204.831528476432
203.982253751019
202.027529863777
198.297825698174
193.523969327444
189.210502442025
185.944298617963
182.851813036813
178.875028470823
174.142174980008
169.631255918553
165.62309443541
161.042967961521
154.59085920692
146.185315161069
136.850211786788
127.252761868222
116.870550122428
104.885644687525
91.57311669058
78.2819967665546
65.981126154637
54.2582549318309
42.0714624220356
29.2441744929999
16.7299580019877
5.32116031349966
-5.45708616575206
-16.7764361015864
-28.9938920960455
-41.1840478797139
-52.3239570481797
-62.5654923904828
-72.9270134690473
-83.825008691061
-94.3818022129207
-103.404062112606
-110.730612994377
-117.199408679322
-123.343354206764
-128.602568867877
-132.121310925949
-134.06571535386
-135.698208978325
-138.091725092584
-141.153572104964
-144.183313602122
-147.128917121133
-150.792824858226
-155.686337644674
-161.08706846829
-165.621999302595
-168.675257127371
-170.808299991783
-172.680584717158
-173.951181350218
-173.664774556146
-171.629101149969
-168.927921523572
-166.821161614886
-165.419698724138
-163.850526462169
-161.682138418255
-159.712674154826
-159.050282743591
-159.671526752437
-160.361001145949
-160.149657055967
-159.409976312245
-159.206753161185
-159.774160877189
-160.119706699158
-159.266701543911
-157.49578926742
-155.951072046392
-155.12034724325
-154.165028059513
-151.953214293844
-148.430674666756
-144.559408130753
-140.963705682313
-137.110866018127
-132.106440085835
-126.021415366022
-119.964263141277
-114.783455174946
-110.103636947727
-104.952199925073
-99.1261151998407
-93.4822694636725
-88.7844273825307
-84.670622088738
-80.1452733327267
-74.9602161043477
-70.0415475223517
-66.3605891212876
-63.7049982886288
-60.9546370790372
-57.4980975014312
-53.9332190820534
-51.1488050306149
-49.0258104488287
-46.4967594914782
-42.9013223356609
-38.8534406696159
-35.4676616922258
-32.9466259060286
-30.3674085880138
-26.9241611685582
-22.9777940312647
-19.5415480315381
-16.9125826663344
-14.2843498642492
-10.8593746962987
-6.97813862668539
-3.74764543822297
-1.63836483708892
0.108594689343718
2.4827527481817
5.42773303307208
7.96037506116964
9.50771950164969
10.671967016858
12.3954655498885
14.6280459723261
16.2779670294216
16.5493703609748
15.9420686443839
15.6229270478851
16.0024952208857
16.3709392363302
16.0307501545903
15.3899507264642
15.550414258658
16.9323993473745
18.756698139289
20.0718586864738
20.9758319272204
22.4360680328952
24.9723761234298
27.9596910654186
30.461431855521
32.4578513181761
34.8142684184941
38.0284468327083
41.4413337534061
43.9908310322492
45.5301971679098
46.9625281418218
49.000780621607
51.1904774270677
52.4953408354502
52.6753865829232
52.6261122729163
53.2180384275117
54.1745577761438
54.4960414934127
53.8953131317156
53.3466336934814
53.9863832451079
55.7632389169611
57.5754484268248
58.6931915993796
59.5910754956987
61.1131751930012
63.1111136173005
64.4065595406834
64.1870010127785
63.0384150181057
62.2643743968095
62.3608377437361
62.5976744638877
62.1891082919716
61.4577429153105
61.4415948873481
62.4823894162266
63.6949594966095
64.0546305622964
63.6972505180508
63.7393492732383
64.8674621665212
66.5444082991713
67.8315341138195
68.674015681042
69.9042539890886
71.9625721182135
74.0777573427187
75.0563200821061
74.679823987457
73.8723585029105
73.4111101613912
72.8851374399527
71.2837312894081
68.4255143576703
65.3022476886191
62.8407281772434
60.7077443277197
57.7712040265844
53.6613073249883
49.3972836415527
46.2324014521178
44.1934130879476
42.2010412168519
39.5999232015036
37.0894311637253
35.8410987366681
35.9715498414679
36.3816877828036
36.17133620259
35.7672636505025
36.2831709302493
37.9521415837376
39.6770803832733
40.2630434577064
39.7013604125234
38.859638591637
38.0807550014508
36.6326217560758
33.773071694276
29.9906142938251
26.708144224008
24.769001106559
23.652768983775
22.4097068992176
21.0264618119195
20.3831747353656
20.88389509481
21.6696550949802
21.5813877292472
20.6769516877031
20.2787733688067
21.3996271580918
23.5319375080865
25.3450176337439
26.3491940833623
27.3206498364935
28.9315657164709
30.4420774738683
30.2830177440771
27.881276779733
24.395870723544
21.3876062238836
19.1013395816185
16.5256400173586
13.0654901717037
9.56948369348515
7.33939799493987
6.4417118421683
5.58299625172745
3.75576541935453
1.51865032092593
0.240624046711901
0.304755409718993
0.618558805051407
0.0383761409648287
-1.20656160685888
-1.97183036625965
-1.88830845446915
-1.98287550287783
-3.35764270974602
-5.66997335973353
-7.46079677461667
-7.94488389830215
-7.93006006952422
-8.67431701414429
-10.2178175054023
-11.4092550263137
-11.5606923042025
-11.458457116782
-12.3029351541237
-13.953796383869
-14.8681070765224
-13.9268782468414
-11.8224188306568
-10.2043766666168
-9.7174829254943
-9.52663640388103
-8.93081587470817
-8.83058335462758
-10.9383304836646
-15.6206593612522
-21.1836412329296
-25.63464839667
-28.7370807845194
-31.7582862638484
-35.3115485600858
-38.1981845723602
-38.8359799171169
-37.4069516562379
-35.8299017082087
-35.4801662425606
-35.5735008119101
-34.3285046742154
-31.4120490031229
-28.4810757147579
-27.1189955731187
-26.8876693522435
-26.0611152030404
-24.0514133677782
-22.2716700514718
-22.2355175887326
-23.3864867313001
-23.5803901447068
-21.6799566827105
-18.9103644485541
-17.2147258701441
-16.7863305528725
-16.0342916793546
-13.9938382573537
-11.9037005054567
-11.7432146587354
-13.5914487998005
-15.3355015126814
-15.2246076513193
-13.9932482455696
-13.7903383655498
-15.3479985259361
-17.1583510059165
-17.7449611110362
-17.9319821555514
-19.9377764532313
-24.3570927356786
-29.0354794629423
-31.4598820481741
-31.6303429974669
-31.652999079369
-32.6042894213109
-32.8980764858655
-30.4434649864965
-25.7598888573013
-21.7648460364369
-20.2987516612697
-19.9294539347717
-18.07959934128
-14.7832598334025
-13.0043012413096
-14.8592038344107
-18.6516396413394
-20.8250054206324
-20.479058923249
-20.4342955870624
-23.1493330429232
-26.764999763064
-26.8523103000529
-22.1434994100565
-16.9148518256742
-16.4746560642702
-21.0443050174029
-25.7963685921258
-27.2125113707059
-27.6686173578816
-32.1261644460443
-41.0166060789153
-48.8358598097629
-51.1098998649959
-51.4745540784482
-59.7048554922116
-82.4484207260734
-117.692482471105
-159.603950026267
-207.364608928904
-266.244291706732
-338.409534606207
-413.483096832474
-469.251299986017
-481.353757941688
-432.465445770227
-316.248082682946
-140.505098500953
67.5162496490392
262.040224857508
397.187484428553
457.513091224932
474.373444619008
504.941751272576
583.462729968553
686.245761831822
745.998471113794
707.108133238558
573.419108053864
405.638218772853
272.521572152255
201.422595382899
169.426475121565
134.416300158595
70.999998984265
-18.8295774164842
-118.732485862192
-212.362882659353
-285.399550487772
-322.726086156212
-313.733286064612
-264.224256239016
-200.080616952614
-153.918790444609
-144.410596612425
-166.546024382078
-200.046256144603
-225.701497167927
-234.734996706216
-227.015439191266
-205.559586942938
-174.79217874412
-141.794374686438
-115.397279419775
-102.053577602291
-102.72810123745
-113.901541108162
-130.407154876586
-146.270243981647
-154.08692331829
-146.994236789754
-124.060532301222
-93.7184627095374
-69.5829663435098
-60.6150761909119
-64.5714275727503
-71.1860169498643
-71.7051044065703
-65.2363564383872
-56.6344118219725
-49.9413312647037
-45.0448042345431
-39.9842143654033
-34.4970019051946
-30.072277555172
-27.2250199629409
-24.3119372202418
-19.6531965462492
-13.9966319098161
-9.88706930693711
-8.67708609381157
-9.01729451304107
-8.66179476993898
-7.12386053889902
-5.78318259824097
-5.52780637764814
-5.20425932581523
-2.9382049305766
1.45597207310676
6.14253581763274
9.41039434700285
11.5261339133348
14.0363368198646
17.6199974238298
21.3380293543456
24.1116126628831
26.2999583695608
29.2321285956683
33.349384803418
37.4450046270247
39.9932978418486
40.8224115869675
41.0225386746061
41.361103992895
41.376038366579
40.2820248858332
38.3471223855355
36.8077817476973
36.4071911319432
36.5113775575738
35.9923950755706
34.7272047135647
33.7662937250092
33.9965904864311
35.0788222448522
36.010449577182
36.4776610744895
37.1400262878764
38.4637515350761
39.6934182097237
39.4039698901501
37.0122506773991
33.372311413587
29.7583888438218
26.5799446227651
23.4182276447013
20.168751055028
17.63449807306
16.7077618588359
17.2026612074197
17.9006161398419
17.8122528488156
17.1082098127506
16.6361108768146
16.7608165849539
17.0484842039737
17.1013065830525
17.3083102328351
18.440139053888
20.6088002713693
22.9887942420668
24.7062409116454
25.7832262018177
26.9781020377067
28.8122577834027
31.0835383438458
33.4328653912689
36.0809787680553
39.6345114559752
44.1501722674562
48.7073324761227
52.1475181808987
54.1582856075157
55.4375678082927
56.8308879709201
58.5734344548055
60.5150997536251
62.8599077114809
66.3046714015577
71.3257838247777
77.5461541678685
84.0444207742474
90.2599483144362
96.4010051803692
102.93302389368
109.892191960735
116.909251565815
123.814890667924
130.919089349986
138.535258515578
146.378859948187
153.677152676546
159.909450270771
165.278284985387
170.363140896613
175.444897707659
180.346841594946
184.888215041616
189.226014940988
193.558632433637
197.581321019805
200.467854504346
201.489133299088
200.556844143117
198.084117394447
194.426476890707
189.64338327548
183.802705604178
177.277171403087
170.509209398306
163.496978122173
155.706809187575
146.610039715524
136.236631168048
125.105811257486
113.68252680492
102.078976741452
90.3336311308678
78.7934790144057
67.98522155328
58.0721434102029
48.5984721962941
38.9037136275779
28.7533504809164
18.4686428392406
8.47863121231977
-1.0865671156842
-10.2829298825939
-18.9873082500992
-26.8800967577164
-33.8638782783016
-40.3616261868921
-47.0454728995824
-54.2727834366049
-61.8846499734215
-69.5520884044298
-77.1664047476724
-84.7729559213148
-92.2166391040339
-99.084871333774
-105.126648003385
-110.638911989057
-116.279730740156
-122.464690524439
-129.029390807658
-135.508984904283
-141.625508910764
-147.366240427792
-152.627343953612
-156.989203035989
-160.004436179435
-161.675485777579
-162.513262201804
-163.076996446496
-163.531833725279
-163.70825556537
-163.502491077002
-163.070386238769
-162.610034064426
-162.099873548525
-161.390131003472
-160.525574653937
-159.834785280438
-159.621636071973
-159.824478920409
-160.052839755467
-159.922438903868
-159.253689171711
-157.941744255979
-155.788192083927
-152.628887098919
-148.638376203492
-144.376824667385
-140.428971292731
-137.006936154529
-133.948456337149
-131.047804573338
-128.260511175406
-125.54692569502
-122.649641700439
-119.207430005073
-115.137635757756
-110.80647417167
-106.727711471778
-103.115457672797
