Value(bpm)
91.7014925373134
91.584664853743
91.4696265928352
91.3578538771628
91.2508088300916
91.1499409038787
91.0566886619958
90.972482007501
90.8987448519882
90.8368982229047
90.7883638108581
90.7545679629335
90.7369461330412
90.7369478059548
90.7560419180414
90.7957228048067
90.8575167133893
90.9429889271817
91.0537515599839
91.1914720887445
91.3578827072536
91.5547905984532
91.784038787305
92.0447398173939
92.3317543401859
92.6394996299826
92.9622687080278
93.2942066483525
93.6292937416493
93.96133600496
94.2839636027335
94.5906377830048
94.8746829931526
95.132026097136
95.3643606672014
95.5742043491285
95.7641586509702
95.9368973806031
96.0951563045434
96.2417241614006
96.3794351417899
96.5111629275279
96.6397712922332
96.764064239731
96.8755206080096
96.9647908731945
97.0224809516721
97.0392039486296
97.0056500080271
96.9126736252135
96.7513971573306
96.5133285283344
96.1906611166806
95.7881038546518
95.3299257663704
94.8415486811708
94.347500601706
93.8713347407996
93.4356713236532
93.0623499561485
92.7726825434099
92.5878009231209
92.5290993178229
92.612553966164
92.8252820715754
93.1461587376967
93.5543102514338
94.0286606389457
94.5475683781613
95.0885549291946
95.6281311263467
96.1417320402095
96.6037735849057
96.9936571259837
97.3138336220806
97.5730486599521
97.7805120894507
97.9457906519957
98.0787157046588
98.1893083825727
98.2877238770875
98.3842159672415
98.4890921387861
98.6090611745965
98.7437219569788
98.8918535289836
99.0522310025284
99.2236222353377
99.4047847986908
99.5944632362367
99.7913866172162
99.9942663902355
100.201812147652
100.412926249159
100.626635021
100.841950786778
101.057868842488
101.27336714395
101.487406196407
101.69892915548
101.906862148813
102.110126333996
102.309025048847
102.506593207556
102.706227951395
102.911379720174
103.125555064575
103.352321860867
103.595317038829
103.858256953434
104.144950487853
104.456753529344
104.785692407486
105.121457149817
105.453475427735
105.770907462636
106.062662880541
106.317440860904
106.523794689094
106.670221499562
106.750069096704
106.774343706409
106.758245021301
106.717073313269
106.666135773779
106.620696617962
106.595971002866
106.607162473669
106.669543694511
106.793350058618
106.969981377721
107.186526419574
107.429971238424
107.687116334664
107.944525231125
108.188505653545
108.405124878849
108.580289882973
108.707083794277
108.795489201839
108.858027869553
108.907331635507
108.956097122133
109.017069764383
109.103057551155
109.226974865769
109.401629302679
109.62927941531
109.89845634196
110.196660043123
110.511172293517
110.829002167198
111.136860944885
111.421168148127
111.668090516574
111.865676395608
112.016595765752
112.130036235542
112.215377093255
112.282109184755
112.339795452968
112.398047451365
112.466518159824
112.554841435734
112.666386838732
112.793243210544
112.92627108462
113.056249627276
113.17387387461
113.269767196426
113.334509298043
113.35867993124
113.3347168058
113.267936566868
113.169246829936
113.049570077739
112.919770832517
112.790626040677
112.672816274002
112.576937311377
112.51344241857
112.484704882581
112.478749473646
112.482156997603
112.481517351671
112.463423183929
112.414495509995
112.321441116177
112.171141164775
111.95279241079
111.675455737529
111.359085462287
111.023432797164
110.687824230739
110.371131148801
110.091805177716
109.867975472685
109.717605143226
109.653432910223
109.665329103497
109.737131849214
109.852830951576
109.996415811897
110.151770041997
110.302612752797
110.432487333343
110.524872676096
110.569875435305
110.569586443681
110.527441585198
110.446966683831
110.331752130879
110.185429459668
110.011650078328
109.814066312374
109.596387809101
109.363742240775
109.122518246672
108.87905036227
108.639563015435
108.410172098927
108.196893479505
108.005658146078
107.842333756992
107.712563857468
107.61943598443
107.564245560152
107.548319731593
107.573067954589
107.639992547561
107.750700168239
107.906914354622
108.110489292676
108.362260280607
108.653006518712
108.968120261421
109.292651033984
109.611299657804
109.908410911256
110.168010301445
110.373887332782
110.509728315045
110.566006028876
110.555738952757
110.496819043494
110.40722769587
110.304907089117
110.207689953883
110.133287432252
110.099334143727
110.123287157841
110.211472547542
110.35336813387
110.5371007469
110.750751430772
110.982276782885
111.219455813685
111.449862992158
111.660868516546
111.840627618063
111.985569545216
112.096474754653
112.174230613751
112.219790342132
112.234167274762
112.218429037475
112.173691688706
112.101113548532
112.001807406954
111.876728065055
111.726832409094
111.553102180642
111.356539947707
111.138165181344
110.899010458698
110.64011781095
110.362533714199
110.067272597955
109.755314700249
109.427637084904
109.085212599703
108.729007483837
108.359979153199
107.979074164928
107.587226361109
107.185447002942
106.776317040813
106.363686601641
105.951334628392
105.542925301579
105.142010584746
104.752035166052
104.376343604876
104.018189512027
103.680745830681
103.36706371087
103.080053743127
102.822584597125
102.597508221365
102.407678116579
102.255969184355
102.145299272993
102.078652593402
102.059105234907
102.087664224588
102.153841431177
102.243344968633
102.341828770112
102.434849435698
102.507861093215
102.546251380483
102.535419052863
102.460893042434
102.309025768733
102.077250168886
101.773135355004
101.404776462482
100.980323590583
100.507890988998
99.9954793569799
99.4509115976567
98.8817819090415
98.2954177252986
97.6979709397566
97.0877406867536
96.4592817925888
95.8074390395488
95.1273980064069
94.4147066172319
93.6652994032363
92.8755233384573
92.042164072311
91.1624713614421
90.2341895562865
89.2605707168767
88.2584396503462
87.2456636323219
86.2386457717406
85.2523552762207
84.3004129524203
83.3952194169374
82.5481155199235
81.7695668146206
81.0693663429278
80.4568524375809
79.9411323667685
79.5254098356183
79.1971143919525
78.9418764917827
78.7461122087857
78.5967974403181
78.481293458583
78.387217860919
78.3023571370357
78.2146185579591
78.1120200012071
77.9827167153242
77.8150639273226
77.5992998082746
77.3384124987798
77.0412863150111
76.7167060079098
76.3732530640333
76.0192575689837
75.6627695740875
75.311548584449
74.9730696329753
74.6545444108801
74.362956065405
74.1051065271158
73.8876755738888
73.7162079519882
73.5878147267021
73.4958035871894
73.4336438699675
73.3949318802274
73.3733445125466
73.3626043151915
73.3564555520132
73.3486510301893
73.3329495958179
73.3031242556388
73.252980863181
73.1763872122729
73.0678298672291
72.9281635795616
72.7624254376859
72.5757024259182
72.3730249478624
72.1593422190524
71.9395047676972
71.7182537828001
71.5002169719821
71.2899105538029
71.0917470076185
70.9100482341874
70.7490638387211
70.6129942296234
70.5055180242266
70.4286717754844
70.3842055291511
70.3739456314264
70.3998123387844
70.4638391142176
70.5681939123798
70.7152028168841
70.9073764660745
71.1474397921645
71.4383657068628
71.783413499778
72.186172880876
72.6494582350942
73.1672438876866
73.7289175528698
74.3232789848854
74.9384293654058
75.5616670974552
76.1794210163924
76.7772283690994
77.3397658046953
77.8509417842778
78.2940580103596
78.6520454620134
78.9086269750895
79.060949670469
79.1172134007913
79.0866892855004
78.9792335914141
78.8050853514192
78.5746837241244
78.2985096471912
77.9869545594596
77.6502173994611
77.2982298050891
76.9406084756539
76.5866326280734
76.243360724632
75.9114003743611
75.5900669727627
75.2787015139947
74.9766688205494
74.6833559238135
74.3981705835431
74.120539935506
73.8499092576196
73.5857408458684
73.3275129921316
73.0747190567981
72.8268666297138
72.5836521117673
72.3457972855991
72.1143713611339
71.8904178696937
71.6749564585395
71.4689854558983
71.2734846787141
71.089418473346
70.9177389829946
70.7593896393804
70.6153088801377
70.4864340975423
70.3737058285973
70.2780699795955
70.2001102993886
70.1396388437677
70.0963939041299
70.0701402985129
70.0606682990468
70.0677926658275
70.0913517799058
70.1312068688902
70.1872413193943
70.2593600712171
70.3474890887538
70.4515749056819
70.5715842394813
70.7073870522745
70.8572809205458
71.0183996167386
71.1878097079827
71.3625271834044
71.5395113658492
71.7156613108759
71.8878148208742
72.0527502116635
72.2071909687412
72.3478134194834
72.4712575251818
72.574140862063
72.6531106736117
72.7061379315885
72.7329085585434
72.7332734437891
72.7071408186891
72.654476921974
72.5753063494991
72.4697120840286
72.3378352038949
72.179874272676
71.9960844152966
71.7867760891423
71.5523135618312
71.2931131101544
71.0102494335355
70.707735944687
70.3903702748843
70.0628145552775
69.7295806637297
69.395021940831
69.0633307018978
68.7385410332557
68.4245363708312
68.1250613938341
67.8437378215805
67.5840837734438
67.3495364375454
67.1434778911303
66.9690331430008
66.8262157329542
66.7128797509687
66.6269363241329
66.5663864402179
66.5293054430044
66.5138291081043
66.5181411186851
66.540461795326
66.5790379640757
66.6321338725409
66.6980230861839
66.7749813164867
66.8612801496301
66.9551881707218
67.055551358402
67.1622634174079
67.2753295424698
67.3947580230601
67.5205602256664
67.6527505798323
67.791346567902
67.9363687184101
68.0878406030676
68.245788837305
68.4102430843389
68.581236062738
68.7588035574716
68.9429733260582
69.133153429944
69.3277967967431
69.5252435850535
69.7237960402011
69.9217172613274
70.1172308078055
70.3085211962956
70.4937353401939
70.6709849816718
70.8383501627338
70.9938837755549
71.135617223615
71.2615672137157
71.3700239552148
71.4609235585736
71.5348238574712
71.5923138762283
71.63401015892
71.660553918747
71.6726082155117
71.6708551820935
71.6559933190847
71.6287348749174
71.5898033269198
71.5399309768112
71.4798566722307
71.4103408197878
71.332684834305
71.2488181326559
71.1606925604934
71.070243056494
70.979385924597
70.8900181572332
70.8040177832267
70.7232452138013
70.6495455621368
70.5847519160804
70.5306895498541
70.4891810688315
70.4620524916916
70.4508690028023
70.4552873636351
70.4741510374835
70.5063164299936
70.5506516949655
70.6060326062803
70.6713388108406
70.7454504478498
70.8272451245981
70.9155952432383
71.0093656768614
71.1074117965486
71.2085778539862
71.3117016911023
71.4159413582116
71.5209491856708
71.6264152738353
71.7320260462359
71.837464209539
71.94240874118
72.0465349055319
72.1495142994774
72.2510149282454
72.350701312354
72.4482346264718
72.5432728709661
72.6354708457429
72.7243126557633
72.808813251481
72.8879001400242
72.9604938525215
73.0255096685439
73.0818596684001
73.1284551133734
73.1642091512416
73.1880398412589
73.1988734892473
73.1956482795491
73.1773181864032
73.1428571428571
73.0915968532623
73.0242266309921
72.9417849972102
72.8453211637109
72.7358909745145
72.6145531301759
72.4823657092706
72.3403829972426
72.1896526288295
72.0312130466744
71.8660912755077
71.6953010084505
71.5198409995708
71.3407257579683
71.1595069640975
70.9781753367205
70.7986964708919
70.6229964360375
70.4529635592267
70.2904512060113
70.137281510324
69.9952500126225
69.8661311750103
69.75168475334
69.6536630192517
69.5738188397291
69.5139146381545
69.4754613302909
69.4576434941753
69.4584712968403
69.4759769465426
69.5082147223518
69.5532521418252
69.6091622550748
69.6740170270427
69.7458817866725
69.8228107359152
69.9028435232612
69.984002895813
70.0642934507751
70.1417015845033
70.2145550987629
70.2823619602756
70.3448760466689
70.4018519705095
70.4530454426999
70.4982136514973
70.5371156564515
70.5695127964517
70.5951691109671
70.613851773453
70.6253315357881
70.6293831824962
70.6257859934011
70.6143647095045
70.5960326194395
70.5728800173728
70.5470532383444
70.5206934155368
70.4959355120438
70.4749086492057
70.4597377223571
70.4525462973204
70.4554607866935
70.4706159139534
70.5001614856415
70.5462705075464
70.6111487000444
70.6965372505563
70.8012505395599
70.9230396197022
71.059648546903
71.2088053763364
71.368213074568
71.5355418333696
71.7084228155708
71.8844433827715
72.0611438705427
72.23601598865
72.4065029314764
72.5700012867831
72.7239570579956
72.8668987281466
72.9980867442244
73.1167967395532
73.2223085938105
73.3139088218434
73.3908930828438
73.4525687988144
73.4982578693697
73.5272994680353
73.5390529033508
73.5329005263006
73.5082506639053
73.4646078994375
73.4025394368035
73.3234424920051
73.2287492238969
73.1198989202118
72.9983323164218
72.8654864739607
72.7227902315622
72.5716602356049
72.4134975484424
72.2496848277489
72.0815840649679
71.9105348669787
71.7378530726826
71.5647984132169
71.3925396601315
71.2222147215956
71.0549398794744
70.8918107043952
70.7339033009152
70.5822758673116
70.4379705564619
70.302015626566
70.175427873068
70.0592153360465
69.9543802805461
69.8619224508272
69.7827844653532
69.7163612243188
69.6603837909722
69.6125241007275
69.5704735780216
69.5319385079403
69.4946369488302
69.4562971591815
69.4146575185773
69.3674679248298
69.3124926476686
69.247514613618
69.1703410871211
69.0788106997199
68.9709672926916
68.8477768287872
68.7126470918762
68.5690262433048
68.4203147861351
68.2698591530399
68.1209486714135
67.9768157677896
67.8406392689814
67.7155506654965
67.6046432226894
67.5109838559035
67.4376277269213
67.3876355701237
67.3640591411503
67.3675681603076
67.3949095961318
67.4425052797408
67.5067978745711
67.584231226417
67.6712344763736
67.7642098983722
67.8595244854927
67.9535053553744
68.0424390746441
68.1225750147029
68.1901328455936
68.2413142500661
68.2723351628577
68.2813985199133
68.2705679757511
68.2423806846952
68.1993946814101
68.144176892082
68.0792930372951
68.0072994662511
67.9307369332766
67.8521263049502
67.7739661697415
67.698732311739
67.628879005678
67.5668420918286
67.5150437887091
67.4756328786587
67.4497906268064
67.4384894196909
67.4427182882822
67.4634873380009
67.5018325484899
67.5588209796276
67.6355564273158
67.7331855805711
67.8529047405976
67.9959671730209
68.1636911766141
68.3574689659583
68.578776461065
68.8284275354306
69.1045398198059
69.4045830958259
69.7259774635499
70.0660743433677
70.4221390928401
70.7913353246353
71.1707110688769
71.5571869769513
71.9475468134561
72.3384305273401
72.7263302307623
73.1075894427173
73.4787486570033
73.8380592244022
74.184337667408
74.5163807304078
74.8329687461367
75.1328697973516
75.4148442955416
75.6776499684176
75.9200472417895
76.1408049948526
76.3387066609579
76.5125566387435
76.6612113810727
76.7846714205874
76.8845333329493
76.962571919974
77.0206169639149
77.060543158626
77.0842607539852
77.0937070024698
77.0908384791691
77.0776243300437
77.0560404882424
77.0280648850441
76.9956736707098
76.9606068483229
76.9233711134635
76.8840663332304
76.8427920744054
76.7996478090983
76.7547328663692
76.7081463864683
76.6599872777009
76.6103541759174
76.5593454066263
76.5070589497223
76.4535924068178
76.3990318148443
76.3428419539922
76.2835563918786
76.2196411525044
76.1495739892612
76.0718465232822
75.9849669669822
75.8874634128204
75.7778876624734
75.654819565958
75.5168718339248
75.3626952794648
75.190984438497
75.0005785601584
74.7920184335418
74.5672554589796
74.3282661123899
74.0769995265456
73.8153711216413
73.545257314432
73.2684912720201
72.9868596666439
72.7021003805298
72.415901104843
72.1298987738089
71.845679773976
71.5647832590883
71.2896518098256
71.0250384667316
70.7759273844013
70.5471744220303
70.3435334224103
70.1696885699336
70.0302926817961
69.930011488898
69.873574197508
69.8658308946184
69.9118176779288
70.0168307690924
70.1865113257456
70.4265773781024
70.7348008099181
71.1006710176679
71.513136196965
71.9607917752246
72.4317373980664
72.913468223944
73.3928047363108
73.8558666817907
74.2880976048563
74.674346609039
74.9990132408761
75.2462595822872
75.4019504409005
75.4668164384581
75.4497102929268
75.3601051687244
75.2078406570317
75.002949224785
74.7555062410863
74.4755062096606
74.1727663411121
73.8568573823042
73.5370607143965
73.2223501373156
72.9213964564934
72.6422921183046
72.3876967509869
72.1558352798803
71.9448743165457
71.7530540449943
71.5786786742202
71.4201079642747
71.2757497225383
71.1440531838682
71.0235032027572
70.912615197906
70.8099307999986
70.7140141622107
70.623448900284
70.536840667977
70.452832257795
70.3700860623912
70.2872772033908
70.2030932676436
70.1162345376909
70.0254147038123
69.9293620445198
69.8268210609751
69.7165545487406
69.5973460875767
69.4680029267349
69.3273592394268
69.1742800718796
69.0082259270784
68.8303732838872
68.6422066564805
68.4451912205664
68.2407690308352
68.0303558947882
67.8153388827047
67.5970744488357
67.3768871354384
67.1560688289099
66.9358785359457
66.7175426472539
66.5022556567846
66.2911813056047
66.0855950228465
65.8888900156976
65.7060545094026
65.5420216137723
65.4016495082207
65.2897540200387
65.2111481198447
65.1706884977869
65.1733296548162
65.2241862658244
65.3286049579968
65.4922471171265
65.7211849140141
66.0220134708501
66.4019765740426
66.8643927367922
67.3999646379563
67.9968589020049
68.6426193816338
69.3239298684565
70.0264158903297
70.7344940528455
71.4312807768893
72.098575002237
72.7169310390685
73.2658376950694
73.7240174599402
74.0698748779592
74.2903316797711
74.394275060516
74.3951417612543
74.3073092929107
74.1457267108133
73.9255924304041
73.6620889298118
73.3701793765689
73.0644672618267
72.7591172207396
72.4678334060795
72.2038910029505
71.9802166092621
71.8079088467513
71.686670232913
71.6115108554808
71.5776500008518
71.5804782920476
71.6155076710262
71.6783281218949
71.7645704731916
71.8698748356473
71.9898644128763
72.1201245719423
72.2561871821117
72.3935203248498
72.5278048951984
72.6595805991441
72.7935925468686
72.9347904499598
73.0882034967355
73.2589540779156
73.4522788192544
73.6735573704751
73.928349554007
74.2224416870945
74.5619031671014
74.9531547669349
75.4030505461082
75.9167874531556
76.4857801820882
77.0953406332712
77.7298899795211
78.3728159901843
79.0063789909193
79.6116921080322
80.1687891644062
80.6567934801712
81.0541986899128
81.339268081469
81.4905531729925
81.495080168437
81.3663889384046
81.1243972868751
80.7896294100047
80.3827115135197
79.9239686353939
79.4331280760996
78.9291275546023
78.4300212259631
77.9529739528368
77.5143334482369
77.1297707441042
76.8135814481178
76.566144811831
76.3774770288915
76.2377883498771
76.1376371080301
76.0678207085448
76.0192913615346
75.9830946839253
75.9503300454756
75.9121320430746
75.8596727769438
75.7841846832976
75.6770035564661
75.5321719935802
75.3573472996367
75.1645475347277
74.9655942533507
74.7720732359476
74.5953347600173
74.4465287289215
74.3366730414341
74.2767542501939
74.2778606212925
74.3513491737546
74.5090501917867
74.7635139294664
75.1221799927092
75.5729615211206
76.0995151679984
76.6849938060639
77.3117167839277
77.9609086753726
78.6125159777103
79.2451160533491
79.8359359941966
80.3610004153215
80.7954256880923
81.1139412023539
81.3030081949579
81.3745848939095
81.3449457590928
81.2311607580131
81.0507089307777
80.821158345816
80.5599199941235
80.2840781487548
80.0102959895513
79.7547929572905
79.5333893110708
79.3616059988677
79.2493474385244
79.1914858370423
79.1805650451496
79.2093225923142
79.270610203422
79.357328345257
79.4623739315872
79.5786007670755
79.6987926582222
79.8156493712711
79.921785773641
80.0097491239781
80.075359614995
80.1236224041308
80.1611681346364
80.1946657577765
80.2308102842333
80.2763216508397
80.3379548231289
80.4225212861467
80.53692218827
80.6881935987945
80.8835646260834
81.1304636872473
81.4306639390383
81.7753760341685
82.1545265517143
82.5577465854096
82.9742917754637
83.3929878531262
83.8022042846601
84.1898591043513
84.5434582066442
84.8501721568531
85.0969529085873
85.2738387054667
85.3836520689632
85.4327380144024
85.4277517677361
85.3755688898829
85.2832039709831
85.1577394138681
85.0062653274952
84.8358311064239
84.6534088983461
84.4658688677726
84.2797438594261
84.0984507679024
83.9231938963932
83.7551116064407
83.5953264294287
83.4449472772945
83.3050719294584
83.1767897912591
83.0611849221579
82.9593393352073
82.8723365728085
82.8012655581514
82.7468852808493
82.7087345371573
82.6860920239613
82.6782559183442
82.6845413252159
82.704277886868
82.7368075410376
82.7814824158348
82.8376628515041
82.9047155404484
82.9820117782856
83.0689872579844
83.1667277243305
83.2781294610672
83.4062211508317
83.5540856789316
83.7248735925375
83.9218191301679
84.1482590329981
84.4076544085059
84.7036159886306
85.039933211574
85.4205751469211
85.8442120275276
86.2976890809154
86.7658155358504
87.2327451589901
87.6819429928749
88.0962126974281
88.4577910146858
88.7485149901894
88.9500654733998
89.0442869703729
89.0140288615339
88.8572429422638
88.589477122292
88.2277737057748
87.7893336677178
87.2912000578985
86.7500089774797
86.181808552043
85.6019429484221
85.0249962427789
84.4647897610467
83.9344262295082
83.4435420349418
82.9901701681516
82.5697159456347
82.1778206063275
81.8103287995885
81.4632614531993
81.1327934128636
80.8152353576613
80.5070195846367
80.204689324291
79.9048913003837
79.6043712846288
79.3015312762078
79.0022903238897
78.7146247201767
78.4462839973689
78.2048231732457
77.9976496405368
77.8320835793219
77.7154316757908
77.6550744694835
77.6585682980004
77.7337635840269
77.8889421507116
78.1319238590067
78.4568469556279
78.8476637970053
79.2877929473307
79.7600876030542
80.2466448528849
80.7286880052118
81.1865310955749
81.5996363726764
81.9467755499088
82.2063034984977
82.3565484961787
82.3819515773835
82.2926684924719
82.1065333183738
81.8418383711367
81.5169525668496
81.150019892456
80.7587411229682
80.3602373210003
79.970990443002
79.6068546939993
79.2831319538747
79.0147054341416
78.8142400024205
78.6803661461535
78.6059865199041
78.5843204170759
78.6088323594888
78.67314994912
78.770993814761
78.8961184901044
79.0422635103274
79.2031143815923
79.3722733737659
79.5432403168751
79.7101922849393
79.8741002687457
80.0395157086425
80.2110958076561
80.3935793307853
80.5917971003238
80.8106883922702
81.0553235926309
81.3309335766123
81.6429464161474
81.9970322084011
82.3991542494804
82.8511370902421
83.3412410882039
83.8546206248797
84.3757151906787
84.8881800105914
85.3748763882595
85.817929693638
86.1988626745088
86.4988102472093
86.6988189115064
86.7802295118365
86.7314546246365
86.5649874801491
86.2993466419172
85.9533876299298
85.5459237955778
85.0954290551027
84.6198243853509
84.1363454218401
83.6614854959942
83.2110069186707
82.8000130704883
82.4428278236184
82.1442396086431
81.897434258781
81.6951937211954
81.5305897851684
81.3969150432299
81.2876267738681
81.196302550582
81.1166067386031
81.0422673083934
80.967062585609
80.8848176780108
80.7897673169837
80.6833104277034
80.5733689261384
80.4680260999281
80.3752821904499
80.3030717442456
80.2592966082378
80.2518744333684
80.2888028899236
80.378240268042
80.5286037510636
80.7486874319961
81.0465272594936
81.4152457951399
81.8376506874109
82.2958590121764
82.7712699470363
83.2444322538389
83.6949972649154
84.1017679776923
84.442855037697
84.6959484095882
84.838709042104
84.8495631969175
84.723891470296
84.4821920020372
84.1475364454025
83.7430295259913
83.2913790215216
82.8145941741467
82.3338086338347
81.8692188017541
81.4401260249381
81.0650711012052
80.7620515396218
80.5483427181519
80.4265051318979
80.3822146337933
80.4007126733643
80.4675592648051
80.5684326854137
80.6889819503688
80.8147303665833
80.9310303054397
81.0230704029156
81.0759366878457
81.0747286198004
81.0056762765239
80.8698718833634
80.6799992958519
80.4490652346311
80.1899457414622
79.9152786579407
79.6373976689818
79.3683060458447
79.1196876434085
78.9029526360583
78.7293158574361
78.6099063888067
78.5557379989474
78.5703394744245
78.6468712230922
78.7779638333381
78.9563962415316
79.1750000469448
79.426577476197
79.7038322081141
79.999312858315
80.3053694138528
80.6141233077245
80.9174521278703
81.2071643401576
81.4783448192688
81.7292188606153
81.9581261773873
82.1634099519025
82.343425330879
82.4965485151142
82.6211863852476
82.7157865912019
82.778848018747
82.8089315327726
82.8046708836809
82.7656781492957
82.6959638291996
82.6008823462018
82.4857939271986
82.356035267058
82.2168974529127
82.0736108447107
81.931336773277
81.7951658552828
81.67012269923
81.5611767857765
81.4732552992683
81.4096483122609
81.369573295373
81.3516565687618
81.3545644724477
81.3769963510065
81.4176780925491
81.4753561715822
81.5487921542762
81.6367576326188
81.7380295610543
81.8513859756101
81.9756022993918
82.1094544600769
82.2517170367883
82.4011528816164
82.5565101954623
82.716520423029
82.8798965149697
83.045331569866
83.2114978708289
83.377046333169
83.5406063807262
83.7007862690453
83.8557719033552
84.0019521806556
84.1351826090465
84.2512769398292
84.3460218399363
84.4151958167431
84.4545923843057
84.460047358924
84.4274700676144
84.3528781344182
84.2324353798723
84.0628417281278
83.8470797760509
83.5933547874239
83.3099658408172
83.00507629921
82.686666232187
82.3625011331616
82.0401160674719
81.7268142117717
81.4296786922724
81.1555966837017
80.9112948772337
80.7029856278035
80.532532536815
80.3992495650458
80.3025212861287
80.2418358288069
80.2167808317971
80.2270401175621
80.2723910394147
80.3527024654588
80.467933371187
80.6181320202608
80.8034357202636
81.023266011046
81.2713616596416
81.5388619566599
81.8166917255346
82.0955358876881
82.3658244933208
82.6177395089829
82.8412448688074
83.0261411293242
83.1621456515448
83.2389985503365
83.2466640765186
83.1817758142014
83.0526649309228
82.8690497312254
82.6407250535129
82.3774480809247
82.088847368706
81.78435530117
81.473163421419
81.1641995435862
80.8661252508575
80.5873522828787
80.3359959255807
80.1155465711064
79.9227824865026
79.754046450289
79.6057857355015
79.4745323744646
79.3568868399149
79.2495049094127
79.1490875353301
79.0523735854254
78.9561353504137
78.8571767359395
78.7523389314957
78.6404447427194
78.5252334057348
78.4111618995299
78.3026359696554
78.2040140572844
78.1196160789789
78.0537369471438
78.0106647735215
77.9947037718572
78.0102019713091
78.0615839705567
78.1533891064854
78.2890916500993
78.4651723305244
78.6755633213091
78.9141569701274
79.1747588272231
79.4510462724591
79.7365365385724
80.0245646227774
80.3082717706267
80.5806053427577
80.8343309274938
81.0620575704269
81.2577693173732
81.4208669785365
81.5520721699
81.6521962917923
81.7221337377128
81.7628547985768
81.775398354531
81.7608644439487
81.7204067952748
81.6552254022569
81.5665592169853
81.4556871599708
81.3248937726494
81.1783653002013
81.0204686814415
80.8555172115512
80.687761104284
80.521382658385
80.3604958555506
80.2091502070701
80.0713386750515
79.9510095203879
79.8520819721488
79.7784561641162
79.732441633548
79.7129956484874
79.7186993859829
79.7481826576216
79.8001154754221
79.8732002561566
79.9661645960035
80.0777545589917
80.2067284329734
80.3518509160695
80.5118877048519
80.6856018061585
80.8718421209332
81.0696021753708
81.2778783836358
81.495652830008
81.7218905119172
81.9555368100281
82.1955151937925
82.4407251736268
82.6900405134278
82.9423077194668
83.1963448238091
83.4509398216234
83.7048455306756
83.9567819973596
84.2054390810892
84.4494770589111
84.6875276506678
84.9181955020825
85.140060147271
85.3516784700225
85.5515876802925
85.7383088186599
85.9105530365712
86.0701406056492
86.221378506257
86.3687082151694
86.5166351440119
86.6697271943773
86.8326180860205
87.0100156398632
87.2067152250073
87.4276186301059
87.6777586964882
87.9619155902795
88.2800140530887
88.6286707985188
89.0043870817689
89.4035827192252
89.8225733270976
90.2575500819212
90.7045621862115
91.1595022941747
91.6180952168767
92.075895308278
92.5291355828351
92.9757372983189
93.4137849475127
93.841301863244
94.2562534068894
94.656551104803
95.0400577839693
95.4045937503804
95.7479440436611
96.0678771137168
96.3638991738341
96.6392860122268
96.8979044021286
97.1437303320953
97.3808373129359
97.6133878276182
97.8456281488382
98.0818867269173
98.3265763404761
98.584096978628
98.8561691049859
99.1415285505661
99.4387366109295
99.7463254682486
100.062794500172
100.386606977632
100.716187174907
101.049917919569
101.386138613861
101.722960675294
102.057707672622
102.387447585907
102.709174905361
103.019813837623
103.316223397217
103.595204479291
103.853508995296
104.08785113316
104.295123922513
104.47381504608
104.62319869788
104.74259665164
104.831377285246
104.88895892352
104.914813029183
104.908467213917
104.869508042061
104.79801144689
104.699911058389
104.585312797759
104.464350674847
104.347072342614
104.243436734122
104.163330816743
104.116605098608
104.113127731934
104.162547290266
104.263046351794
104.398025646302
104.549832445734
104.700640331219
104.832421616868
104.926981278811
104.966053902655
104.931464215575
104.805431351853
104.580579785041
104.269140632832
103.885705565155
103.44480863075
102.960753455856
102.447482025506
101.918484037122
101.386744578773
100.864727128712
100.363083775728
99.8795495536486
99.4050077745328
98.9306091904962
98.4478386877549
97.9485182049223
97.4248232996507
96.8693117929787
96.2749628048336
95.6352243192722
94.9449562637487
94.2101132636942
93.4434174785059
92.6570715264735
91.8625772684187
91.0707163660739
90.2915585785468
89.5344934732718
88.8082815512392
88.1211212870769
87.4807292009686
86.8941273955694
86.3644428201334
85.892411104286
85.4788523448976
85.1247344088243
84.8311933794401
84.5995557324824
84.4313626891168
84.3283972612432
84.292714588115
84.3266762685114
84.4329412021695
84.6101642841129
84.8494555491128
85.1411928810817
85.4756913814322
85.8430896600715
86.2332572385844
86.6357237947572
87.0396318047705
87.4337147679546
87.8063035985373
88.1454832899956
88.4444919588711
88.7040998830724
88.9257807926523
89.1111494088778
89.2619470810778
89.3800272518389
89.4673409761709
89.52592270309
89.5578765080586
89.5653629427617
89.5507336148617
89.5181456878959
89.4729447781707
89.420490373873
89.3661228483024
89.3151580192715
89.2728880647408
89.2445887230074
89.2355327260895
89.2510094662941
89.2963509783046
89.3752667577546
89.4825312902532
89.6099364382733
89.7492132796273
89.8920040005894
90.0298471784064
90.1541787688975
90.2563492949797
90.3276576617672
90.359401820753
90.3430301602396
90.2777338954068
90.1763761371656
90.0532089707386
89.9223803231302
89.797888190477
89.6935790110604
89.6231890156431
89.600427648234
89.6391029583146
89.7532902150922
89.9563597137242
90.244067081974
90.5980781431509
90.9994155770262
91.4285889811926
91.8654242803663
92.2889766570488
92.6775350921293
93.0087275125728
93.2597345953859
93.4078277205568
93.4453657539389
93.3896087632438
93.2606025755891
93.078588949977
92.8637345215888
92.6359474851051
92.4147816481888
92.2194249789248
92.0687688324165
91.9815545705427
91.9727948951648
92.0356125686149
92.1553828800774
92.3175686820091
92.5075729683336
92.7106261761466
92.9117195289152
93.095585861856
93.2467299609511
93.3495103819959
93.3891650715939
93.3647646834199
93.2863153262246
93.1642530497699
93.0090503513467
92.8311309542581
92.6408082026701
92.4482469257382
92.2634481605017
92.0962558801898
91.9563785334784
91.8509186666554
91.7806126910655
91.7452820750027
91.7448285223113
91.7792333770021
91.8485574832546
91.9529414991329
92.0926066671838
92.267856049976
92.4790762436722
92.7265000817303
93.0085508081486
93.3227840094433
93.6667424778408
94.0379433726866
94.4338613009676
94.8519125158462
95.289440240678
95.7437011624037
96.2118531730635
96.6910808647305
97.1794335876976
97.6753071777816
98.1770309857248
98.6828629310844
99.1909867467082
99.6995098216233
100.206461715019
100.70979341841
101.207358719274
101.695607944708
102.168673042202
102.620283002219
103.043981008467
103.433152603649
103.781062754541
104.080902081501
104.325842296985
104.509107040381
104.62869997289
104.695734640319
104.723776520624
104.726531590161
104.717762234122
104.711238902867
104.720727913338
104.760015461335
104.842967975846
104.980042941572
105.166139905038
105.391869938515
105.647782476206
105.924301144215
106.211676133797
106.49995376748
106.778964094269
107.038327526132
107.269978002517
107.47577347407
107.660158795243
107.82767259864
107.982931273133
108.130616644335
108.275467547816
108.42227544915
108.575879838759
108.739404494428
108.911525354357
109.090205319944
109.273382744714
109.458969218829
109.644848126614
109.828874003996
110.008872724657
110.182670951483
110.348966736619
110.507504497578
110.658090435939
110.800532598412
110.934641127647
111.060228516923
111.177109868259
111.285103153427
111.38427644983
111.476459474726
111.564258808208
111.650302234564
111.73723429932
111.827716137736
111.924426566045
112.030064457439
112.147327856835
112.275963286076
112.40991980379
112.542423404421
112.666636566266
112.775664002439
112.862566849025
112.920385424412
112.942170598974
112.921040200765
112.850354170094
112.723699074203
112.534874921061
112.277960238178
111.94738192654
111.537987741231
111.045119614167
110.464686071991
109.794436337849
109.036696764246
108.195021982472
107.273305246448
106.27573386814
105.20674287116
104.070967765567
102.8731973103
101.618327070458
100.312193824697
98.9754809983735
97.6394470312865
96.332618225533
95.0805504824975
93.906153023537
92.8301114132077
91.8713816295967
91.0477373157712
90.3763627017012
89.8744939491993
89.554095738909
89.3936621304535
89.3611271884917
89.4257944545695
89.5575797914866
89.7264551983296
89.9020965815558
90.0537337537071
90.1502080681213
90.1602444284406
90.0530234862224
89.8128761033974
89.4551412370303
88.9994450683498
88.4654232068872
87.8723550260074
87.2388864307691
86.5828392692888
85.9211015269757
85.2695899935863
84.6432760749396
84.0562655700234
83.5209251121421
83.0413346376188
82.6179037188487
82.251169690475
81.9418342578856
81.6907793707846
81.4990849047186
81.3680485252841
81.299208168877
81.2943676475015
81.3556259768082
81.4854111405836
81.6839811877314
81.9417229421065
82.2464792304125
82.5859028260096
82.9473278834831
83.3176774703106
83.6834096528304
84.0305055991063
84.3445036610978
84.6105833010158
84.81370193129
84.940081048405
84.990144063748
84.973262729317
84.8992634537109
84.7781631822805
84.6200476451097
84.4349727117705
84.2328897660689
84.0235951581405
83.8167031749026
83.6216415948762
83.4476538555702
83.3001408398992
83.1759176805744
83.0706766818456
82.980182409788
82.9002544799576
82.8267547599718
82.7555788264749
82.6826515616511
82.6039268019562
82.515390961969
82.4130705498629
82.2932976521673
82.1575202592569
82.0118293508922
81.862414844979
81.715380568969
81.5767436221036
81.4524426761384
81.3483549088419
81.2703213437183
81.2241804992057
81.215810429945
81.2511794729678
81.3356860095125
81.4679476160362
81.6427961065268
81.8550710261482
82.0996102691528
82.371204137732
82.6645556798185
82.9742473089494
83.2947139097398
83.6202228024445
83.9448610779284
84.2625865273946
84.5711037034978
84.8745399667755
85.1777540391319
85.4857465886204
85.8036642234143
86.1368096569542
86.4906585350039
86.8708834926458
87.2833861268444
87.7343377351063
88.2300062907964
88.7685473764709
89.3371244559425
89.9215464106192
90.5068721190023
91.0773703729482
91.6165320494639
92.1071415499586
92.5314140366098
92.8712034899031
93.1082884427412
93.2318814160574
93.2535570266533
93.1897174271518
93.0572106109
92.8730538141378
92.6542161883201
92.4174636207
92.1792657536075
91.9557633744231
91.7627934186392
91.6148912573235
91.5119111251471
91.4433331411992
91.3985629502309
91.3670977802971
91.3384837511783
91.3022973450145
91.2481507500556
91.1657208525752
91.0448014888776
90.8753788150915
90.6508015252362
90.3748838100833
90.0536295943669
89.6930392258399
89.299056580318
88.8775243408424
88.4341474826507
87.9744647779163
87.5038279642404
87.0273880974836
86.5500885294868
86.0765348629863
85.6105731477947
85.1557308931474
84.7153861971271
84.292780262219
83.8910321151113
83.5131553063881
83.1620764161329
82.8406552494759
82.5517066670184
82.2980240589471
82.0823792017669
81.9052908276622
81.7633082468883
81.6527007989209
81.5698531003144
81.5112391511889
81.4734000252722
81.4529248553966
81.4464349034399
81.45057056708
81.4619812271176
81.4773178796691
81.493241650167
81.5067107443153
81.5149816209158
81.5153231172705
81.5050077279145
81.4813178212832
81.4415536536514
81.3830431369024
81.3031532921235
81.1993032921802
81.0689789638939
80.9097485850582
80.7194944669667
80.4991099305444
80.2516203225608
79.9800895530092
79.687555248118
79.3770129004103
79.0514024300654
78.7135971193502
78.3663948448923
78.0125115035601
77.6545765063342
77.2951302002554
76.9366230228047
76.5813973705774
76.2316620453672
75.8895378163194
75.5570696666914
75.2362324608861
74.9289375367862
74.6370401421982
74.3623476509349
74.1066285118223
73.8716219025993
73.6590480802607
73.4706194399608
73.3080521022034
73.1720314993609
73.0598205456646
72.9680470050887
72.893409082403
72.8326584920109
72.7825866593523
72.7400138994411
72.7017814637899
72.6647463820197
72.6257790486738
72.5817635196668
72.5296004867271
72.4662128923926
72.3889019942562
72.2974704618637
72.1928030572928
72.0757945854178
71.9473425739587
71.808344451135
71.659694944863
71.502283708883
71.336993178667
71.1646966576547
70.9862566323087
70.8025233126696
70.6143333935423
70.4225094755338
70.227969544476
70.0318676358712
69.8353688034341
69.6396125302172
69.4457129611641
69.2547594953586
69.0678177170601
68.8859306458567
68.710120287905
68.5413894722116
68.3807239582176
68.2290948035293
68.087460983491
67.9567722829316
67.8380973459307
67.7329139318585
67.642780611135
67.5692570023791
67.51391127744
67.4783284205667
67.4641192913717
67.472930558933
67.5064555943585
67.5664464319198
67.6547269350258
67.7732073336552
67.923900335357
68.1089390537854
68.3293498166225
68.5807637385762
68.857234932813
69.152675371616
69.4608130231457
69.7751602810474
70.0889935825987
70.3953452874548
70.68700902196
70.9565597250693
71.1963895422814
71.3987604850139
71.5558743892982
71.6603463175329
71.711665205034
71.7152816458093
71.677036365354
71.6029062110053
71.4989398021639
71.3712026842719
71.2257325827191
71.0685050041889
70.9054091540347
70.7422339334326
70.5846636491646
70.4382830087425
70.3085909792581
70.1999591115515
70.1111034837558
70.0389291287653
69.9803913940329
69.9324839736822
69.8922284884689
69.8566666914412
69.8228552287284
69.7878629083609
69.7487704442816
69.7026726480693
69.6466830375683
69.5779408198121
69.4936213221202
69.3927412621681
69.2797663484487
69.1601384807959
69.0392322795752
68.9223492219886
68.8147200381919
68.7215150835774
68.6478624459646
68.5988736378711
68.5796768626075
68.5954580286421
68.6515099221893
68.7532902394752
68.906480009535
69.1132258863794
69.3661744087448
69.6564119434266
69.9748456774155
70.3121127363976
70.6585121369388
71.003961381545
71.3379801830282
71.6497042045026
71.9279317658473
72.1612061299838
72.3379351794556
72.4465489805791
72.4781306481234
72.4371057197234
72.3325893482478
72.1739630512751
71.9707223174672
71.7323500675683
71.4682149982069
71.1874952971493
70.8991272540841
70.6117776115874
70.3338380980402
70.0734404342015
69.8384901768774
69.6367141725439
69.4729521930144
69.3444053789425
69.2471157882937
69.1772581843632
69.1311079656314
69.1050138182839
69.0953746875466
69.0986207809099
69.1111984110526
69.1295585616966
69.1501491175845
69.1694107413422
69.1837764056781
69.1896997782491
69.1866831723546
69.1801506734317
69.1762048556133
69.1809462526527
69.2004833030897
69.2409530956894
69.3085530642949
69.4095839774067
69.5505048510634
69.7380007937169
69.9790652853952
70.2810990266262
70.6520283044878
71.0992502714111
71.6178279536835
72.1947524052537
72.8162562263784
73.4676988303744
74.1333883660174
74.7964604285389
75.4388257294258
76.0412009519164
76.583237676494
77.0437629792147
77.401141544865
77.6339409554063
77.7338985704709
77.7145423415935
77.5924597410325
77.3849381901225
77.1095535613158
76.7838314071236
76.4249876938699
76.0497502462211
75.6742580317485
75.314032890584
74.9840172395202
74.698671463824
74.471837142329
74.3081838535199
74.2019633128943
74.1471603377693
74.1380234950305
74.1689903032766
74.2346228597473
74.3295526788883
74.4484339202645
74.5859045045654
74.7365548801977
74.8949044169746
75.0553855714235
75.2126818967774
75.3655809061479
75.5156445133492
75.6645114079487
75.8138468198576
75.9653424924187
76.1207174027642
76.2817192612176
76.4501268238828
76.6277530565132
76.8164491934341
77.0181097428498
77.2346668268501
77.4661247751461
77.7082740675418
77.956265238128
78.2051262965422
78.4497574597837
78.6849323712759
78.9053062375477
79.1054312916496
79.279779929712
79.4227757591159
79.5288326410715
79.5924060914187
79.6098434328337
79.5821810725042
79.511312820792
79.3992640921039
79.2481710760001
79.0602601239842
78.8378276474895
78.5832207862793
78.2988190674951
77.9870172354349
77.650209392175
77.2907745505381
76.9114577736095
76.5187220860211
76.1208981546985
75.7260119883371
75.3417629137402
74.9755414700602
74.6344617049887
74.3254064449104
74.0550844507403
73.8300987929404
73.6570262744623
73.5425082997827
73.4933542430159
73.5157992499203
73.6060787584111
73.7538481026106
73.9487720223509
74.1804981035602
74.4385356704295
74.7121630983619
74.9903642926456
75.2617960350099
75.5147885156501
75.7373815999571
75.9173991706747
76.0425632692313
76.1038598223101
76.1042113907235
76.0495025169285
75.9458405411683
75.7994730808207
75.6167141292124
75.4038799136596
75.1672351900635
74.912950247777
74.6470685656713
74.3754848038086
74.1039326349411
73.8379817783505
73.5818294583747
73.3351666133629
73.0967026097305
72.8651830035248
72.6393867803695
72.4181240604626
72.2002342380714
71.9845845281957
71.7700688956236
71.5556073435653
71.340145540469
71.1226547645693
70.9021321462356
70.6777112877548
70.4514776607328
70.2286216679019
70.0143609775852
69.8137891667836
69.6318930041676
69.4735766822968
69.3436927295556
69.2470794994938
69.1886053392894
69.1732197820882
69.2060123956961
69.292280262414
69.4376054769144
69.6471718923445
69.9172125919001
70.2378548125904
70.5989669251394
70.9901284614314
71.400517317129
71.8188263705434
72.2332126806751
72.6312833856364
73.0001229562083
73.3263664576184
73.5963228128003
73.7961506295163
73.9132704610438
73.9497666967753
73.9177543497298
73.8299055336877
73.6990679895349
73.5380949618968
73.3597195264322
73.1764739016782
73.0006527856756
72.8443189212091
72.7193488853998
72.6375174711776
72.6106199347581
72.6503173195029
72.7586898675142
72.9264437124062
73.1437513719607
73.4007704629117
73.6875190833977
73.9937769787429
74.3090131104249
74.6223412608095
74.9225060279817
75.1979019574662
75.4366285643048
75.6265835558582
75.7575604843782
75.8366022431
75.879883137958
75.9038646176592
75.9251034620116
75.9602038129527
76.0258415950117
76.1388621841534
76.3164533171806
76.5763977754298
76.9374144815046
77.4196026417399
78.0444814815746
78.8159248337955
79.712869027607
80.7113865031277
81.7854983585208
82.9064706309938
84.0422564318264
85.157136634046
86.2116294577235
87.1627506252468
87.9647059161247
88.5718700941636
88.9747634339943
89.1999352087919
89.278199751433
89.2422912806475
89.1259065999629
88.9629739066866
88.7871727428194
88.6317111737799
88.529355144415
88.5127019153413
88.6120059677942
88.829417767399
89.1501449368286
89.5594767673904
90.0427027573126
90.584827750502
91.1703326868891
91.7829818355621
92.4056805671016
93.020390339077
93.6083683797018
94.1597925094883
94.6771735780253
95.1640928753183
95.6243807117023
96.0620946529411
96.4814999940706
96.8870530694127
97.2833879445661
97.6753069907582
98.0674542707925
98.4596543067534
98.8478048922038
99.2275705234457
99.5944887369979
99.9439783493949
100.271352036245
100.571833482344
100.840579279334
101.072706118728
101.264032092198
101.412566411132
101.516811980324
101.575375781157
101.586980570945
101.550476147406
101.464850021825
101.329237344937
101.142929933322
100.905823263188
100.624670654593
100.311421282141
99.9779567354433
99.6358905533294
99.2965373092179
98.9709083579209
98.6697324853162
98.4034997995136
98.1825275170144
98.0142168758986
97.8859683808462
97.776777267387
97.66583700915
97.5325366209423
97.3565107242799
97.1177745644789
96.7969396752035
96.3755029181857
95.8361975210003
95.1665907045063
94.3808007416815
93.5046375443127
92.5629890051116
91.5793882986616
90.5757897751755
89.5724662602786
88.5880090107373
87.6394112357262
86.7422175571526
85.9107244286549
85.1574597235088
84.4812168987281
83.870173676028
83.3130341712255
82.7992321060168
82.3188051677965
81.8622991997951
81.420698167879
80.985376754188
80.5480730465598
80.1008791837
79.6362480224344
79.1473320631874
78.6360846561386
78.1134300383552
77.590210821211
77.0767115143362
76.5826795288616
76.1173710777767
75.6896186604991
75.3079174856074
74.980529013348
74.7156007556452
74.5213025466658
74.4059807071174
74.3776700299399
74.433376443851
74.5608068195681
74.7476490574248
74.9816633681193
75.2505029278923
75.5415741031419
75.8419365483761
76.1382451827919
76.4167372121106
76.6632679257215
76.863398873254
77.002544241212
77.0711380494259
77.0749501956553
77.0229321205913
76.9242572751933
76.7882000783442
76.6240359306318
76.4409634822389
76.2480494643022
76.0541957271465
75.868127692993
75.6984032180642
75.5534408540601
75.4414570143287
75.3656834453643
75.3225501970426
75.3080880252548
75.3184054753236
75.3496612848153
75.3980410155469
75.4597376974679
75.5309363595837
75.6078023975848
75.6864737855964
75.7630571809647
75.8336279962072
75.8949412370344
75.9505830368498
76.0080098733422
76.0747669966447
76.1584573024863
76.2667676979277
76.407511140975
76.5886851041681
76.8185476513932
77.1057129229214
77.4592686291491
77.8889192097854
78.4047799331793
79.0058063733636
79.6767759058849
80.4008365825318
81.1600033421677
81.934922264539
82.7047127344545
83.4469052509336
84.1374955747904
84.751136662766
85.2614875120298
85.6418032719533
85.8776986011138
85.9816873639009
85.9710108515507
85.8639118096261
85.6791886702484
85.4358195089433
85.152665983794
84.8482614718621
84.5406829686171
84.2475032282336
83.9858180787843
83.7706057053161
83.6030580852718
83.4780972001091
83.3908030266579
83.3364051941075
83.3102429431676
83.3077310823182
83.3243314716119
83.3555297145377
83.3968168596852
83.443676009739
83.4916055590132
83.5389619490238
83.5892325660515
83.64645389814
83.7146870133274
83.7980263114382
83.9006123216949
84.0266486810479
84.1804234906661
84.3663353301386
84.5889243131012
84.8529086978209
85.160336519169
85.5006240900406
85.8593793209642
86.2217504751161
86.572383064815
86.8954295109579
87.1746162139765
87.3933720613379
87.5350209165276
87.5830381233828
87.5213675213675
87.3400539423717
87.0511454612946
86.6724322345524
86.2217668734537
85.7167479848458
85.1744784154937
84.611397298073
84.0431816289559
83.4847110327399
82.9500884541469
82.4527095723352
82.0052735501307
81.6130249363167
81.2697710289338
80.9686296621312
80.7030403980499
80.4667020336619
80.253522005174
80.0575764395685
79.8730799124633
79.6943642028878
79.5158655007939
79.3321196306834
79.137778704706
78.931037999696
78.7180287579526
78.505863252391
78.3015029238009
78.1117669965316
77.9433529878435
77.8028685574643
77.6968743382445
77.6319376593552
77.6146974195562
77.6519407947881
77.7506929841194
77.9166149160961
78.1447412548538
78.4258864627883
78.7508124229433
79.1101191415859
79.4941454385677
79.8928909978078
80.2959612850472
80.6925375715315
81.0713748069635
81.4208303152074
81.7289277991694
81.9860311828833
82.1902890566982
82.3415121123054
82.4397237018418
82.4851576990363
82.4782543083585
82.4196539159948
82.3101891101241
82.150875027696
81.9428982099863
81.6876041690884
81.3865146401694
81.043419022331
80.6656113787181
80.2605629735504
79.8355395283068
79.3975628072017
78.9533857582876
78.509480157961
78.0720355923199
77.6469685851216
77.2399407336118
76.8563848254225
76.5015380690822
76.1802442383621
75.8951919229233
75.648018061507
75.4404014782497
75.2740913832502
75.1509282695753
75.072866370937
75.04199802864
75.0605803828829
75.1310648833715
75.2561302111782
75.438719322575
75.682081001102
75.9874867717708
76.3487142342219
76.7578964883197
77.2069856585521
77.6876512333365
78.1911935519977
78.7084737442432
79.2298622030045
79.7452083229594
80.2438347257997
80.7145594651447
81.1457724283529
81.5293789365135
81.8654467910095
82.1553116839067
82.4005347389209
82.6028832314258
82.7643102085232
82.8869334381528
82.9730140995236
83.0249356010727
83.0451828785754
83.0363224869278
83.0009602921538
82.9414645742819
82.8600478957413
82.7589397905324
82.6403791480639
82.5066043889577
82.3598448490583
82.2023133920611
82.0362002532219
81.8636681014715
81.6868482950045
81.507838295995
81.3289084190409
81.1535002537893
80.9854329694153
80.8284653998624
80.6863043655709
80.5626169413754
80.461045981074
80.3852288727974
80.3388195651404
80.3255139823067
80.3490790385068
80.4133855696589
80.5210073138025
80.6677107002997
80.8472108678499
81.053196981979
81.2792849542085
81.5189793555247
81.7656451599362
82.0124897546082
82.2525558157212
82.4787257430526
82.6837383631633
82.8602685160903
83.0037156265631
83.1137167311117
83.1903390402965
83.2337326406452
83.2441289314222
83.2218385812193
83.1672490310014
83.0808215748346
82.9630880535233
82.8146471997511
82.6361606760093
82.428739800288
82.1973020297413
81.9488056149424
81.6900985627829
81.427873679909
81.1686586219022
80.9188167451405
80.6845580772977
80.4719597693429
80.2869955009705
80.135573475872
80.0235828587844
79.9565118526336
79.9357244228124
79.9603681105278
80.0297191509736
80.1432002847478
80.30037368171
80.500935073979
80.7447089937593
81.031645030191
81.3618150356638
81.7354112264515
82.1527450701743
82.6118738383463
83.1021105427583
83.6102896687634
84.1226048887889
84.6245624725562
85.1009821484928
85.5360515409657
85.9134400184193
86.2164765930486
86.4283942762159
86.5326399473663
86.517848075882
86.3957469958576
86.1854358645661
85.9062785126467
85.5775574760009
85.218216295549
84.8466892792488
84.4808153418866
84.1378302482296
83.8344308249581
83.5869052818047
83.4109548066346
83.3106801973516
83.2768381783428
83.2997765714284
83.3700828788778
83.4784660916128
83.6156606334866
83.772351206574
83.9391181125886
84.1064032364527
84.2644972987647
84.4035498314148
84.5166556226657
84.6070360873534
84.6800904358292
84.7412824265306
84.796121568726
84.8501513303059
84.9089445111435
84.978105898149
85.0632823131432
85.1701802003248
85.3045909779011
85.4707881933541
85.6615017353624
85.8643043961115
86.0665299513445
86.2552749604184
86.4174186345067
86.5396825090317
86.608731130259
86.6113139433166
86.5344470133016
86.3656311603004
86.0947309794948
85.7299934331473
85.2906067310393
84.7956493768255
84.2636618236615
83.7124596253276
83.1590288196619
82.6194958708363
82.1091634989799
81.6426039652619
81.2338025925676
80.8963462588197
80.6418027789415
80.4687823456441
80.370742992645
80.3416179315026
80.3757317724893
80.4677075268783
80.6123847969152
80.804747253054
81.0398579765365
81.3128016423417
81.6186328539887
81.9523303272482
82.3089075824104
82.683694156538
83.071951219097
83.4687661849015
83.869037251472
84.2674636838997
84.6585424642462
85.0365719683884
85.3956633439976
85.7297602322017
86.0326673955866
86.2990200391344
86.5279385881308
86.7200008188217
86.8758992179961
86.9964339745144
87.082505678426
87.135107560704
87.1553173817933
87.1442890760524
87.1032442561696
87.0334636769884
86.9363942886761
86.8141354390833
86.6690118330059
86.5033577949374
86.3195058570413
86.1197767301387
85.9064705557703
85.6818594447534
85.4481812897406
85.2076348243992
84.9623758899301
84.7146389085185
84.468500238023
84.2294145651235
84.0027539969003
83.793781435754
83.6076703982375
83.4495310388199
83.3244422283107
83.2374896885269
83.193810366785
83.1986434488015
83.2573881924708
83.3733589739132
83.5424291876346
83.7590105363043
84.0175660656611
84.3125481969036
84.6383439886838
84.9892273572871
85.3593182759415
85.7425492309708
86.1326394350969
86.5230774844278
86.9067618646512
87.2747854411728
87.6175271636569
87.9251099849186
88.1874652439752
88.3944207520616
88.5358127920408
88.6016212799188
88.582126171181
88.468081858594
88.2509085153212
87.9286036974164
87.517137381222
87.0357446172197
86.5032918560465
85.9380320694606
85.3574437073703
84.7781474895128
84.2158930583788
83.6856068964379
83.2014933832603
82.7771821877209
82.4255129192199
82.1484308124766
81.9365840965376
81.7805505108714
81.671293655731
81.6000506625413
81.5582416546409
81.5373989665065
81.5291148313245
81.5250067964135
81.5167005070687
81.4958297244088
81.4549169347393
81.3958384468354
81.3261509046572
81.2534538603454
81.1852959829389
81.1291765685738
81.0925609503451
81.0829096417534
81.1077212205166
81.174589238895
81.2912738369857
81.4657892480335
81.7035962170276
81.9949811883335
82.3249859648635
82.6782858015925
83.0390710336809
83.3909824449963
83.7171085471778
84.0000503579356
84.2220588165774
84.3652482847683
84.4118865332813
84.3455830443262
84.1672731863172
83.8937934462949
83.5428474374706
83.1320865579957
82.6788331838817
82.1998798708219
81.7113621364236
81.2286996518073
80.7665992243606
80.33911263475
79.9597429995939
79.641247098383
79.3882375469559
79.1975802695466
79.0661417104796
78.9910941417707
78.9698762389773
79.0001583374416
79.0798115808009
79.2068803045834
79.3795571038392
79.5961601203078
79.8551121556727
80.1548064776543
80.4910368863394
80.8568562745825
81.2450009189269
81.6479534074194
82.0579040818566
82.4667261509701
82.8659659669216
83.2468501288809
83.6003111186969
83.917033057863
84.187520902865
84.4054155397674
84.5742311878129
84.6995830991631
84.7873056961116
84.8433961946368
84.8739653678871
84.8851962899625
84.8833116372803
84.8745499036137
84.8651507130073
84.8613492966219
84.8683686610093
84.8834955813518
84.9002647082337
84.9121799165559
84.9127389620223
84.8954458884036
84.8538333595963
84.7814947790953
84.6721258860137
84.5195752851556
84.3179030861103
84.0616393611587
83.7543276380321
83.4115548361793
83.0494160548073
82.6835164588972
82.3289332862677
82.0002348947713
81.7115519903062
81.4766969220669
81.3093283796682
81.2231608989246
81.2322212678039
81.3502462265006
81.575968223914
81.8952705573331
82.2938372828451
82.7572617897571
83.270776954972
83.8190326617435
84.3859228143107
84.9544671286038
85.5067554615856
86.023964094263
86.4867363974892
86.8840701093004
87.2155233658252
87.4816009489299
87.6831477536017
87.8213322333802
87.897626382917
87.9137827724983
87.8718091896256
87.7739414639371
87.6226150545577
87.4205468828033
87.1735442388293
86.8906262537303
86.5808550493355
86.2531109789206
85.9160493674422
85.5780756656434
85.2473378667702
84.9317349159372
84.6389398629883
84.3764366509056
84.1515692015109
83.9692828133009
83.8268714978516
83.7201922739873
83.6452395559109
83.5981132451753
83.5749911626466
83.572105442711
83.5857226152073
83.6121271857267
83.6476085944915
83.6884514896175
83.7311886134117
83.7763213665757
83.8274736493186
83.8883722784429
83.9627710420824
84.0544611204499
84.1672849940664
84.305153985605
84.4720696428108
84.6721492476837
84.9096558336434
85.1889352439842
85.5076334307077
85.8519920987565
86.2067894691554
86.5563075118353
86.8843177624566
87.1741267930283
87.4086858847302
87.5707682614379
87.6432149408801
87.6092468147347
87.4530661899364
87.1727808802312
86.7866452802684
86.3147434437666
85.776961215969
85.1926587554029
84.5804371519891
83.9579944971714
83.3420634114283
82.7484203875073
82.191957090481
81.6868046590058
81.245869948739
80.8707533375879
80.5540212317487
80.288411512786
80.0670387052604
79.8833136063113
79.7308766493681
79.6035433627612
79.4952607212747
79.4000735274432
79.3121002168146
79.2255176691204
79.1347240028478
79.0394837470162
78.9458068296984
78.8600042714412
78.7883352993742
78.7370249851118
78.7122916871896
78.7203843144721
78.7676296426541
78.8604902003228
79.0056336018586
79.2100146554595
79.4808459299876
79.8187389163058
80.2138316702184
80.6551994377849
81.1315747070583
81.6312227492567
82.141846909611
82.6505271203643
83.1436961763367
83.6071589775555
84.0261600873139
84.3855044438836
84.6724225416571
84.8860351546389
85.0291195695713
85.1048660016899
85.1168232783754
85.0688429857043
84.9650234133793
84.809654591094
84.6071655450557
84.3620747185342
84.0789443061428
83.7623684655383
83.4174883386172
83.0498897693356
82.6650430753147
82.2682589178576
81.8646719834172
81.4592316249041
81.0566989062706
80.6616494718798
80.2784816723709
79.9114294156582
79.5645792703993
79.2418903296907
78.9471856185891
78.6841750495722
78.4565248810139
78.2678936531126
78.1219690940009
78.0225086513614
77.9733841170582
77.9786309952932
78.0425034783054
78.1695361478577
78.3646138292511
78.633014117483
78.974180620376
79.3743177220809
79.8175803662483
80.2875434686876
80.7670452626089
81.2380977851967
81.6818729732743
82.0787739690941
82.4086008657109
82.6508179131258
82.784924890324
82.7923597297479
82.6749748574104
82.4496207294668
82.1340351912402
81.7461217868023
81.3036103743553
80.8237963791059
80.3233587073997
79.8182524529691
79.3236700914369
78.8540637549641
78.4232211997392
78.0442499096195
77.722197134203
77.4506267078013
77.2225175869202
77.0311573087871
76.8700729806475
76.7329752390402
76.613713878433
76.5062442144511
76.4046035213958
76.3028970799317
76.1952934974175
76.0760290261167
75.9401585736366
75.7899373557698
75.6315757323902
75.4712348224762
75.3149743968305
75.1687550578075
75.0384499162773
74.929865400028
74.8487709372813
74.8009374254497
74.7921846177261
74.8284378408897
74.9157948034932
75.0589179104802
75.2537807185189
75.493500362972
75.7711816461501
76.0798393991074
76.412331048065
76.7613013732074
77.1191400812257
77.4779532202802
77.8295497794357
78.1654450177359
78.4768821385498
78.7554297565414
78.9985360122154
79.2073931410938
79.383374480802
79.5279701371814
79.6427742514467
79.7294722299955
79.789828125371
79.8256723404529
79.8388898095034
79.8314087899649
79.8051903786003
79.7621662767462
79.7036490132753
79.630543021202
79.5437556057593
79.444201372372
79.3327992797516
79.2104698925577
79.0781328420576
78.9367045007168
78.7870958743413
78.6302107132718
78.4669438422284
78.2981969459083
78.1255030055475
77.9511887251608
77.7775936063355
77.6070158497611
77.4417136836253
77.2839080038324
77.1357862690874
76.9995076022595
76.8772090605773
76.771013050934
76.6830358828309
76.6153974702514
76.570083590353
76.5482395226934
76.5507355281502
76.5784869974015
76.6324608133999
76.7136817671214
76.8232395299651
76.9622962625064
77.1320949511316
77.3339685779043
77.569350245243
77.8397843961015
78.1465563775209
78.4843418025642
78.8419230070132
79.2075131372454
79.5688883016374
79.9133769124501
80.2278885100375
80.4989855424292
80.7130009351245
80.8562030011834
80.9150072697359
80.8762321710177
80.7289855634075
80.4804295136086
80.1486996055785
79.7521151575954
79.3087055846836
78.8359719691305
78.3507318020787
77.8690414512444
77.4061889172149
76.9767488508193
76.5946923692997
76.2735456871272
76.0265926939461
75.8618368475849
75.7701136158973
75.7391725824317
75.7571366330776
75.8123300117286
75.8931451544087
75.9879459558466
76.0850066242878
76.1724863016004
76.2384401868922
76.2708679964865
76.2578002036252
76.18782358895
76.0605529254537
75.8874455065956
75.6805303525325
75.4516984847907
75.2126178800731
74.9746859597695
74.7490178483142
74.5464682719176
74.3776850538994
74.253192645509
74.1835049730698
74.1792680662539
74.2508535028116
74.3975037159881
74.6081197008162
74.8713053268217
75.1755814153415
75.5092357731111
75.8602072968207
76.2160056963774
76.5636697293027
76.889767727144
77.1804445478949
77.4215188029155
77.5986473986078
77.7032371161097
77.7414486459558
77.7220788838313
77.6541910914177
77.5469917114376
77.4097272022577
77.2516023926828
77.0817209493027
76.9090478488737
76.742393269995
76.5904170597531
76.4616528805195
76.3641123216842
76.2990654410908
76.2625971819532
76.2507370965265
76.2595727057825
76.285226262416
76.3238356440772
76.3715392334073
76.4244647149815
76.4787217754298
76.5303987324611
76.5755631413721
76.6102667595489
76.6321546532361
76.6441915559959
76.6504563554858
76.655034885036
76.6620159497263
76.6754917097246
76.6995624319123
76.7383456323553
76.7959896634439
76.8766918509636
76.9847213588831
77.1244470549406
77.2997563682265
77.5063085383556
77.733667027506
77.9710550313828
78.2074428180362
78.4315330919124
78.6317783799824
78.7964323293772
78.913636400239
78.9715425887771
78.958471508186
78.8631034087715
78.6750160871982
78.3945488224564
78.0343117240932
77.6076972769529
77.127964416271
76.608049134722
76.0604219277609
75.4969902354545
74.9290424512153
74.3672291322258
73.8215766771904
73.3015288283524
72.8160117989709
72.3735061341009
71.978850505356
71.6292147622976
71.320949426517
71.0506476567261
70.8151093023203
70.6113095675345
70.4363716268955
70.2875426570152
70.1621728515457
70.0576970699351
69.9716188400011
69.901496491981
69.8449312497148
69.7996057026899
69.7647533590502
69.741416697827
69.7307490753376
69.7339154117635
69.752096632886
69.7864945547446
69.8383372436182
69.9088848915074
69.9994362561191
70.1113357244246
70.2459810703975
70.4048319908381
70.5894195185948
70.800746003034
71.0359364739458
71.29050621345
71.5598658094263
71.8393013128356
72.1239562237104
72.408819579543
72.6887206575023
72.958330859621
73.2121733685708
73.4446411344355
73.6500236734946
73.8225430227156
73.9572401371683
74.0546225609517
74.1174737124356
74.148705242711
74.151325424755
74.1284146013239
74.0831027077125
74.0185491317057
73.9379251009506
73.8443987222547
73.7411227396256
73.6312250293094
73.5178018112767
73.4038055621876
73.2913075735314
73.1819559227926
73.0773771354188
72.9791804020731
72.8889601170435
72.808299099652
72.7387724884645
72.6819523046773
72.6394126888085
72.6127358237949
72.6035185678539
72.6133798321392
72.6438983035097
72.6954615929752
72.7674487515703
72.8592352926003
72.970222674018
73.0998348689711
73.2475151168629
73.4127228318
73.5949306479431
73.793621583651
74.0082863084584
74.2384204988943
74.4835222709611
74.7427649519571
75.0117812474004
75.2839142481295
75.5522818521097
75.809805963821
76.0492244966586
76.2631173607704
76.4439471919924
76.5841153139629
76.6760330324357
76.7122078378859
76.6853434491855
76.5884616380554
76.4189077150063
76.1842539736856
75.8937678833765
75.5567324224902
75.182327448447
74.7795341895839
74.3570628040644
73.9233021252503
73.4862901314869
73.0537033260745
72.6328630639769
72.2307568835306
71.854073061272
71.5087500328748
71.19667950798
70.9179398202599
70.6726684273524
70.4610763437451
70.2834520162837
70.1401657128973
70.0316744908018
69.9585278197791
69.9213739471842
69.9209671044186
69.9581756701222
70.0339914237518
70.1495389586823
70.3043601419635
70.4928581417205
70.7084202121735
70.9443367503417
71.1937542339311
71.4496405611276
71.7047634858329
71.9516830837472
72.182759319946
72.3901758017868
72.5659806747365
72.7021453367353
72.7906411973299
72.8250307210468
72.807014591665
72.7411395847525
72.6321224846936
72.4847903890467
72.3040279065296
72.0947303435363
71.8617633619013
71.6099293505
71.343940547617
71.0683987837395
70.7877815866964
70.5064343018748
70.2285628135378
69.9576396710523
69.6958712029655
69.4452680602764
69.2077882855613
68.9853449411026
68.7798146803583
68.5930472284004
68.4268757584646
68.2831281749325
68.1636393380878
68.0702642931656
68.0048925960341
67.9694638609587
67.9659826451696
67.9950529147304
68.0532602751652
68.1365418327547
68.2408559892196
68.3621546514788
68.4963602223692
68.6393473255841
68.7869293221983
68.9348497571503
69.0787789315208
69.2143158290054
69.3369956306373
69.4423030283222
69.5257168408405
69.5844896671318
69.6188247057048
69.6292489566965
69.6163401874866
69.5807229805694
69.5230646499354
69.4440710678727
69.3444824428188
69.225069087106
69.0866272112123
68.9299747785247
68.7559474517286
68.565394658816
68.3591820801968
68.1387462305185
67.9065109333833
67.6649561537434
67.4165055875309
67.1635215216977
66.9083014760373
66.6530765185645
66.4000111403974
66.1512045751167
65.9086934508729
65.6744556704696
65.4504154247267
65.2384492571528
65.0403931129323
64.8580350456523
64.6927901165886
64.5457179813681
64.4178696302257
64.3103093402635
64.2241216630136
64.1604188597891
64.1203488459707
64.1051037179253
64.115928950463
64.1541333690177
64.2211000195594
64.3182980812128
64.4472959923885
64.6097759918397
64.8072236093522
65.0372895708165
65.294992537902
65.5752100015836
65.8726826485597
66.1819795891766
66.4974716172487
66.8133132266473
67.1234342822949
67.4215423561724
67.7011367793009
67.9555354138197
68.1779150004006
68.3613656722738
68.4993607537257
68.5908997633921
68.6391019481524
68.6473658147716
68.6192412201067
68.5583898907442
68.4685488259168
68.353497133523
68.2170266998623
68.0629169547589
67.894913869683
67.7167132203794
67.5319480591367
67.3441802757403
67.1568990469181
66.9736814725106
66.7982740344776
66.6343680651374
66.4855902591727
66.3555177882465
66.2476971425967
66.1656666610727
66.1129828053175
66.0932503448306
66.1101567496062
66.1675112395255
66.2692891200868
66.4196822500437
66.6231567486346
66.882549294765
67.1914395263012
67.5404561282668
67.9199684362948
68.3199776992519
68.7300337955704
69.1391807331987
69.5359346291224
69.908298454981
70.2438179750015
70.5296828795073
70.7528760225781
70.9003718242011
70.9596186398915
70.9274392794332
70.8126291643259
70.6252216166102
70.3755366076279
70.073990708734
69.7309358119462
69.356528822839
68.9606327710982
68.5527484084255
68.1419743883326
67.7369935298683
67.3460824154219
66.977141607478
66.6377440347072
66.3336394231562
66.0642523733675
65.8275754604231
65.6217409848629
65.4450042834455
65.2957288433406
65.1723729721314
65.0734778144308
64.9976565380901
64.9435845400697
64.9099905449759
64.8956484887998
64.8993700971237
64.9199980814968
64.9563978336772
65.0071057442263
65.069930923656
65.1425863270353
65.2227745169223
65.30818144132
65.3964718163101
65.485286141283
65.572239386226
65.6549213972273
65.7308990679566
65.7977203211395
65.8529199346758
65.8940272318719
65.9185756341347
65.9242836693998
65.9109456026598
65.8797456468379
65.8319182358567
65.7687172634821
65.6914100910385
65.6012719889503
65.4995810422538
65.3876135418498
65.2666398755288
65.1379209257914
65.0027049752825
64.8622251152897
64.7176971482527
64.5703179715753
64.4213673721683
64.2729071011469
64.1273395904632
63.9870263943389
63.8542891714944
63.7314145994416
63.6206608865896
63.5242658360101
63.444456436885
63.3834599861337
63.3435167735863
63.3268943996603
63.3359038353763
63.3729173816212
63.4403887390682
63.5406159626174
63.6728748539508
63.8344263639554
64.0225188776212
64.234399942999
64.4672931701077
64.7183773621784
64.9847678454122
65.2635000377712
65.5515153649127
65.8456496922984
66.142624496223
66.4390410418804
66.7313778719558
67.0160021443388
67.2898864370415
67.5511106201706
67.7978261291963
68.0281548325852
68.2401968185476
68.4320392930791
68.6017665768992
68.7474711674715
68.8672658085672
68.959296484213
69.0217562268743
69.0528996020475
69.051057703879
69.0147428684725
68.9459174981399
68.850885159175
68.73622851336
68.6084866953743
68.4741247400923
68.3395155009736
68.2109337032409
68.0945616835632
67.9965063699219
67.9228271448407
67.8795744067763
67.87283889537
67.9088121778145
67.9938087368164
68.1298215756312
68.3108854953956
68.5302420697712
68.7810926381016
69.0565257319694
69.3494574380983
69.6525850809911
69.9583550744936
70.2589461522461
70.5462694285609
70.81198684218
71.0475494696078
71.2442569353463
71.3943297993987
71.4970897797096
71.5551027985925
71.5711411118225
71.5481370342966
71.4891496501326
71.3973329839166
71.2759061414489
71.1281258270958
70.9572615447783
70.7665736945288
70.5592946894315
70.3386131407565
70.1076616414616
69.8699009313523
69.6297900179718
69.3918538812851
69.1604952170463
68.9400010079297
68.7345543749061
68.5482513730115
68.385122473298
68.2491585723748
68.1443414912269
68.0746790660715
68.0442450976934
68.0572246158
68.1179650823828
68.2290430933491
68.3859951909794
68.5827999143791
68.8134424221253
69.071846945547
69.3518194405244
69.6470004554561
69.9508286329113
70.2565155929352
70.557033201848
70.8451144004238
71.1132688337005
71.3538144725616
71.5592471799275
71.7269379659938
71.8582174510178
71.9546601703674
72.017965924366
72.0499431619666
72.052492460255
72.0275903531868
71.9772737349962
71.9036250332686
71.8087583149651
71.6948064568742
71.5639094810181
71.4182058715027
71.2605187771361
71.0953901243782
70.9275578977409
70.7616739480141
70.6023039788902
70.4539334897328
70.3209794006363
70.2078071352127
70.1187530142188
70.0581519177244
70.0303703048138
70.0398448392153
70.0911270601634
70.1887152088135
70.3314288241771
70.5118073898513
70.7220443628073
70.9542287207158
71.200284674181
71.4519287108787
71.7006449165176
71.9376798590336
72.1540584866489
72.3406224524314
72.4880920108277
72.5871521121588
72.6285996188132
72.6079231909041
72.5296149979744
72.399412576633
72.2232138077351
72.0069994884944
71.7567647648679
71.4784602719615
71.1779434008826
70.8609397441593
70.533014476735
70.1995532078965
69.8657516889051
69.5366136759494
69.2169159309092
68.9097653413337
68.6162673580308
68.3373743594916
68.0740173520034
67.827110893878
67.5975581948686
67.386256398918
67.194102064513
67.0219968632757
66.8708535240684
66.741602056966
66.6351962990827
66.5526208325921
66.4948983345607
66.4626525119424
66.4546074875937
66.4690065284152
66.5041378160961
66.5583232837576
66.6299084621719
66.7172532636878
66.8187236384223
66.9326840561408
67.0574907839916
67.191485945138
67.3329923565501
67.4803091558762
67.6317082374558
67.7853356333254
67.9385474079857
68.0882928480001
68.2314662153085
68.3649131227185
68.4854377590214
68.5898131523263
68.6747945311613
68.7371357967956
68.7736090616031
68.7810271376425
68.7562687781819
68.6963063846151
68.5982357948957
68.4601445949386
68.2868279564272
68.0861793041703
67.8660130079719
67.6339941622405
67.3976049919231
67.1641286122575
66.9406490934232
66.734066719626
66.5511274137463
66.3984655056199
66.2826593400661
66.2102996417774
66.1880710782195
66.2227944413928
66.3167192083395
66.4637016605215
66.6568526074171
66.8893256922594
67.1542257330579
67.4445307904552
67.753027783023
68.0722621056289
68.3945022338168
68.711720710888
69.0155931974847
69.2975173900342
69.5486535527479
69.76025962753
69.9297868284408
70.0610935125073
70.1585129203238
70.2265380671775
70.2697808560724
70.2929363255401
70.3007526046095
70.2980069695792
70.2894882473896
70.279985693164
70.2742843877238
70.2771671559453
70.293422999147
70.3272288319099
70.3787196401264
70.446438593545
70.5289370939517
70.6247722838489
70.7325011489196
70.8506752100292
70.9778357927606
71.1125098712105
71.2532064905434
71.398413779625
71.5465965709471
71.6961946499814
71.8457099022574
71.9959905001876
72.1504827834666
72.3128232478265
72.4867170264301
72.6759481414284
72.8843938250711
73.1160431861885
73.3750205747286
73.6656140979241
73.9923098709108
74.3598327480905
74.7731944872252
75.2368546142027
75.7446665023119
76.2828757649272
76.8368444643618
77.3910734424194
77.9291544765886
78.433788730939
78.8868812812596
79.2697206749105
79.5632500433715
79.7484319825111
79.806703184778
79.7219326870545
79.4987948125582
79.1570884830265
78.7174636223797
78.2005758735443
77.626655543036
77.0151871764846
76.3846968543466
75.7526388150985
75.1353699095859
74.5481993385508
74.0055016978789
73.5208831261204
73.1069039666005
72.7661739766642
72.4927216968665
72.2807717018776
72.1249868242039
72.0203846102869
71.9622652353973
71.9461489296115
71.9677214073426
72.0227861465209
72.1072226514582
72.2169500709718
72.3478957415332
72.495983156918
72.6584380343952
72.8348595363045
73.0251028776319
73.2290331180231
73.4465244028541
73.6774592280692
73.9217277251353
74.1792269626708
74.4498602614865
74.7335365199417
75.0301695466581
75.3396773977702
75.6618069406989
75.9932279591162
76.3278608434671
76.6593249376356
76.9810177095959
77.2861235682561
77.5676348142076
77.8183855817676
78.0310994337148
78.1984509648222
78.313141351294
78.3679872534508
78.3561107618933
78.2771795049396
78.1413626717464
77.9599083887851
77.744051818739
77.504902523871
77.2533645329608
77.0000884033965
76.7554538223829
76.5295809263283
76.3323685020029
76.1735575283492
76.0628190897704
76.0092342323638
76.0152398216641
76.0793771320155
76.2003895048016
76.3772616404909
76.6092024602862
76.8956306002305
77.2361622027958
77.6306007255372
78.0789285314807
78.5813000632657
79.1380364341063
79.7492525635506
80.4094475323531
81.108259560284
81.8345040524129
82.576176757275
83.3203695902058
84.053221921898
84.7599149265176
85.4247172111513
86.0310899025686
86.5618584270927
87.0001076971405
87.3419637141943
87.5962752393911
87.7731644568364
87.8833889497399
87.9381628953023
87.9490003461815
87.9275849015153
87.8856685760176
87.8350014204328
87.7872924958199
87.7535178824093
87.7341352303908
87.7214058865124
87.7073879369694
87.6841506984394
87.6437842068858
87.5784229656772
87.4802837308442
87.3417168805101
87.1552705859289
86.9137665849308
86.6108562181312
86.2499301338429
85.8430303977844
85.402272085062
84.939412804154
84.4657826833301
83.9922471125857
83.5291993411774
83.0865798419119
82.6739194770224
82.3004038766911
81.9749570182025
81.7055238536044
81.494239371357
81.3409230792971
81.2456228962006
81.208628355557
81.2304762439937
81.3119589413125
81.4541356559074
81.658346812991
81.9262319258852
82.2597513654454
82.6611931998644
83.1283312973661
83.6476528053881
84.2034964757049
84.779427827686
85.3581121848637
85.9212523652401
86.4496008931619
86.9230572817465
87.3208601434201
87.6218812798472
87.8051234197418
87.8621374749425
87.8087918845861
87.6644638240038
87.4489314563465
87.1820137017561
86.8832982576277
86.5719599380628
86.266667153815
85.9855718251121
85.7463771241367
85.5664778508593
85.4572885810137
85.4090103932988
85.4073053542625
85.4380259376309
85.4870839828203
85.540366816685
85.583699922984
85.6028563862138
85.5836135300893
85.5118567104726
85.3737291072365
85.1582544283126
84.8740168860024
84.5386329224223
84.1694771974572
83.7834620296103
83.3969424536867
83.0256885893992
82.6849196816219
82.3893943076641
82.1535522943743
81.9917057090605
81.9182776540883
81.9424495705553
82.0552899962122
82.244475641776
82.497925016163
82.8035857787872
83.1492579667551
83.522451542891
83.91027871632
84.299383088073
84.6759088649894
85.0255141145844
85.3347339035436
85.6001067800761
85.8231149459257
86.0054437826324
86.1489359343777
86.2555733261229
86.3274590641671
86.3667995132497
86.3758868179603
86.3570821062184
86.3127995802892
86.2455152737131
86.1580140849508
86.053278319854
85.9342887077425
85.8040102925222
85.665383810644
85.5213191430289
85.3746908044124
85.2283354179996
85.0850511136878
84.9475987841163
84.8186827500811
84.6997340866352
84.5903028519086
84.4897951635935
84.3976281464486
84.3132287580904
84.2360327081074
84.1654834656749
84.1010313514684
84.0421327102294
83.9882491608344
83.9388469211657
83.8937178705936
83.854361428323
83.8228364632809
83.8011996836308
83.7915096440725
83.7958321240644
83.8162465376281
83.8548534041567
83.9137829242653
83.9952047218956
84.1013388339367
84.2342200238155
84.3902296432011
84.5599861032052
84.7337247436806
84.9015238438283
85.0533062027995
85.1788644722068
85.2679110480272
85.3101529560118
85.2953915372313
85.2136458630003
85.0553337023237
84.8174448020545
84.5101921232549
84.1454976024551
83.735175749162
83.2907971666709
82.8235862247185
82.3443516454773
81.8634478188404
81.3907641082412
80.9357391984233
80.5073976156655
80.1143722885951
79.7609860884745
79.4437313477794
79.1584062122403
78.9009947098586
78.667636720787
78.4546026626376
78.2582724088121
78.0751180578839
77.9016902518765
77.7346078036718
77.570550441136
77.4062545096683
77.2391037934535
77.0703220499998
76.9026085431056
76.7386196511385
76.5809669921456
76.4322210992953
76.2949167958493
76.1715602100521
76.0646373881128
75.9766244854447
75.9099995424562
75.8672558815686
75.8509157402032
75.8631842250467
75.9054878407288
75.9792096594356
76.0858189339225
76.2268831828233
76.4040815168375
76.619219404588
76.8742451112906
77.1712680844265
77.5125796099419
77.9006761220209
78.3382856216456
78.8265285832153
79.3575729263654
79.920458679464
80.503635036062
81.0948716005628
81.6812019354188
82.2489055187981
82.7835343232246
83.269990323714
83.6926596293277
84.035607447951
84.2835382098149
84.4354829558218
84.5041173880222
84.5032400262726
84.4470420478548
84.3498981360228
84.2262035458492
84.0902598232295
83.9562096477182
83.838019993344
83.7495122241173
83.7044369371897
83.7121698859597
83.7675632952993
83.8625637183464
83.9891729555775
84.1393793273171
84.3051041948406
84.4781636436054
84.6502456140242
84.8129030165676
84.9575634941504
85.075556486964
85.159517355853
85.2127816999567
85.2438249639347
85.2612228518237
85.2735854812798
85.2895385356282
85.3177218147502
85.3668052800314
85.4455227509846
85.5627236242316
85.7274433548859
85.9481606313609
86.220854674638
86.531446270866
86.8652882850699
87.2073227780257
87.5420220027235
87.8533826437622
88.1249776358134
88.3400695981891
88.4817886778367
88.5333753167029
88.4806429209636
88.3288589715997
88.0934937586147
87.7903164326236
87.4350519501481
87.0431743208274
86.629757108834
86.2093795412596
85.7960848354207
85.4033864456375
85.0443177540022
84.7312416666746
84.4675192693791
84.2463324593415
84.0605489260829
83.9032550684164
83.7677035522087
83.6472728331782
83.5354378378691
83.4257512364035
83.3118349029621
83.1873812512838
83.0461641577154
82.883834287518
82.7064612190423
82.5237547048831
82.3452671680886
82.1803880263837
82.038364837654
81.9283452126469
81.8594389413728
81.840800272704
81.8817309670557
81.9918056234075
82.18099120696
82.452130830406
82.7906040691993
83.1791012719018
83.599852468674
84.0344407608331
84.4636908746558
84.8676405114659
85.2256035917847
85.5163342978931
85.7182986426083
85.8100558659218
85.7762656916229
85.624652819222
85.3693148653273
85.0248544729967
84.606062709633
84.127649306799
83.6040243282985
83.0491324166174
82.4763380667471
81.8983584630991
81.3272392562899
80.7743649448954
80.2482055694404
79.750521563221
79.2819439905313
78.8431013207451
78.4346270978187
78.0571676196494
77.7113896834189
77.3979884596017
77.1176955644713
76.8712874089292
76.6595939105623
76.4835076663143
76.3439417080158
76.2409885946649
76.1740747755216
76.1427076927328
76.1464961367626
76.1851468115677
76.2584616098271
76.3663355585542
76.5087554044989
76.6857988171455
76.897634194997
77.1445210683907
77.4268037527501
77.7419482279475
78.0798385322905
78.428855518548
78.776970145682
79.1117233207775
79.4202440607612
79.6893093684482
79.9054487349622
80.0550950765516
80.1247821400419
80.1013859719037
79.9724248058513
79.7342381254188
79.4038929378968
79.0016932345404
78.5476535077218
78.0612023886335
77.5609896623887
77.0647899682602
76.5894937070875
76.1511748450883
75.765226070438
75.4465537796458
75.2098283735456
75.0695825278666
75.0314299371589
75.0887608331978
75.2347295833249
75.4630437841373
75.7678144490355
76.1434226120416
76.5843985716241
77.0853109598457
77.6406636244837
78.2447990106291
78.8918073646645
79.5754598731298
80.2907893134967
81.0355115148498
81.8074809455482
82.6043689050028
83.4236401554059
84.2625298911565
85.1180213520392
85.9868244683815
86.8653560138316
87.7497218324373
88.6356735611185
89.5175436051828
90.3878263411717
91.2383840487135
92.0605485193961
92.8451534214606
93.5825860623747
94.2628604988923
94.8757134595715
95.4107238427546
95.8576497565463
96.2152633799179
96.4952230204456
96.7108305094608
96.875943438002
97.0048101363768
97.1119422247239
97.2120282338299
97.3198904964495
97.4504867065964
97.6183850835563
97.8269572879989
98.0691065338015
98.3372697008274
98.6237614344515
98.9207379002948
99.2201723704157
99.5138432987211
99.7933356740188
100.050056484232
100.277241724501
100.477633937017
100.656967663368
100.821095526887
100.975966800196
101.127613244894
101.282141950663
101.445735433113
101.624659233651
101.825011267342
102.046861046553
102.284129317483
102.530368826142
102.779013130379
103.023368566802
103.256614750446
103.47181403608
103.661930346021
103.81988031506
103.941292901922
104.027167207056
104.079198646975
104.099158456618
104.088882333589
104.05025940771
103.98522164281
103.895733763323
103.783783783784
103.65024481921
103.491505807649
103.302912967938
103.079929346647
102.818163180532
102.51339936621
102.161633486759
101.759107742831
101.302348037027
100.788481725553
100.221356740301
99.61117864623
98.9681197895002
98.3019676697942
97.6220782252299
96.9373490230394
96.2562103136543
95.5866318147182
94.9361431359836
94.3118962937378
93.7223484212578
93.1780541663171
92.6893492986971
92.2662606703131
91.9186496934167
91.6563751615266
91.4894769049431
91.4283833961174
91.484148324972
91.6687234814417
91.9905119965936
92.4312094154534
92.9624795087305
93.5552292363842
94.1791155808246
94.802216953123
95.3909045992862
95.9099425708289
96.3228458243085
96.5925195197673
96.6897020496498
96.6227920760993
96.4127359743184
96.0815251902892
95.6516074516299
95.145392604722
94.5848623373507
93.9912868685126
93.385045266822
92.7855417743345
92.2105888288497
91.6664604133501
91.1501941677474
90.6586993643076
90.1890339799095
89.7383892233094
89.3040763252507
88.8835153546754
88.474225859333
88.0738191576056
87.6799921313837
87.2905223881977
86.9032646751979
86.5161484385768
86.1271764301146
85.7344242681343
85.336040863642
84.9302496241588
84.5153503480267
84.0897217211122
83.651824326129
83.2002040725536
82.7334959525962
82.2504280262095
