Value(μV)
966.673767089844
1012.45153808594
978.404296875
866.725646972656
708.124755859375
541.703552246094
356.303588867188
149.731430053711
-11.7305517196655
-110.915702819824
-187.974945068359
-256.260101318359
-313.482299804688
-359.546173095703
-394.165618896484
-426.114685058594
-470.366516113281
-524.918334960938
-574.224792480469
-614.947937011719
-637.550720214844
-628.109069824219
-596.446105957031
-559.537780761719
-525.2998046875
-498.500762939453
-487.2470703125
-492.206329345703
-497.451690673828
-493.255401611328
-480.95263671875
-456.537811279297
-418.294311523438
-379.764678955078
-352.298034667969
-332.270263671875
-317.773986816406
-308.332305908203
-303.182312011719
-301.179534912109
-285.634155273438
-254.543441772461
-227.267517089844
-205.618453979492
-176.625869750977
-147.824020385742
-127.224029541016
-113.776817321777
-107.86385345459
-105.002746582031
-102.141632080078
-93.0814514160156
-76.4870147705078
-57.6036834716797
-31.4722118377686
-12.3981437683105
-8.10647869110107
1.71666610240936
15.1638841629028
22.125919342041
19.7416610717773
24.4148063659668
39.9601707458496
41.5814666748047
47.4944305419922
65.3286819458008
72.9583129882813
77.7268295288086
81.827751159668
83.0675659179688
88.3129348754883
92.7953414916992
91.8416366577148
88.3129348754883
88.6944122314453
92.8907089233398
96.9916381835938
103.286079406738
111.774040222168
120.452735900879
130.27587890625
138.477737426758
142.960144042969
140.957366943359
139.336059570313
140.385147094727
134.186065673828
133.518478393555
142.769393920898
142.864776611328
143.341613769531
150.494400024414
145.535140991211
134.186065673828
135.235137939453
141.338836669922
139.526809692383
133.899963378906
130.27587890625
133.518478393555
141.911071777344
145.630508422852
143.818466186523
141.338836669922
139.717544555664
130.085144042969
119.308296203613
122.169403076172
128.654586791992
129.989776611328
130.561996459961
137.619400024414
142.864776611328
134.853652954102
130.180511474609
131.801803588867
132.850875854492
141.148101806641
151.352722167969
153.260131835938
152.878662109375
159.554580688477
164.323089599609
161.748092651367
162.987915039063
157.837905883789
147.156433105469
148.110137939453
146.488845825195
146.393478393555
160.317535400391
169.949951171875
172.048095703125
171.094390869141
161.843460083008
152.783279418945
150.208282470703
144.962921142578
136.284210205078
132.278656005859
133.136993408203
142.197174072266
148.491622924805
132.56477355957
116.065704345703
109.389778137207
97.9453353881836
86.9777526855469
86.2147903442383
91.6508941650391
88.5990447998047
87.7407150268555
85.8333053588867
65.6147918701172
54.4564628601074
53.0259094238281
32.5212860107422
6.19907188415527
-0.47685170173645
1.14444410800934
-1.62129580974579
-5.05462789535522
-13.3518476486206
-23.9379558563232
-29.0879535675049
-35.1916542053223
-51.5953521728516
-61.99072265625
-63.8981285095215
-77.4407196044922
-84.5934906005859
-79.4434967041016
-76.7731246948242
-78.8712692260742
-91.4601593017578
-95.8471908569336
-96.9916381835938
-113.872184753418
-119.117553710938
-114.158294677734
-117.400886535645
-114.730522155762
-108.531448364258
-106.337928771973
-98.8036727905273
-98.1360778808594
-114.062927246094
-118.163848876953
-114.921257019043
-130.657363891602
-136.474960327148
-126.174957275391
-124.172180175781
-122.264778137207
-118.831443786621
-123.409217834473
-130.848098754883
-130.561996459961
-131.897186279297
-137.619400024414
-137.810134887695
-138.573104858398
-136.474960327148
-134.376815795898
-139.812911987305
-134.853652954102
-129.417556762695
-135.235137939453
-129.131439208984
-117.973114013672
-119.880516052246
-126.651809692383
-128.273101806641
-122.93236541748
-115.398109436035
-109.580520629883
-104.812004089355
-92.4138565063477
-86.5962677001953
-96.2286758422852
-94.8934860229492
-93.7490463256836
-103.667556762695
-106.910148620605
-109.866630554199
-108.722190856934
-101.187927246094
-98.9944152832031
-93.5583038330078
-88.1221923828125
-85.0703430175781
-82.0184936523438
-81.2555313110352
-72.5768280029297
-67.6175689697266
-69.5249786376953
-68.9527587890625
-74.198127746582
-75.1518249511719
-67.4268264770508
-67.3314590454102
-67.4268264770508
-60.274055480957
-55.0286865234375
-49.5925750732422
-48.8296127319336
-55.887020111084
-51.4999847412109
-33.9518394470215
-25.9407329559326
-29.4694347381592
-26.7990646362305
-21.5536975860596
-28.7064723968506
-40.1509132385254
-42.1536903381348
-31.3768424987793
-22.9842510223389
-23.4611034393311
-14.687032699585
-7.24814605712891
-12.3981437683105
-13.7333288192749
-6.86666440963745
-2.67036962509155
-9.15555286407471
-11.3490705490112
-0.858333051204681
-0.762962698936462
-10.6814785003662
-2.00277709960938
12.9703664779663
12.4935140609741
8.77407169342041
8.10647869110107
6.48518323898315
1.81203651428223
0.572222054004669
11.3490705490112
16.6898097991943
18.8833274841309
32.1398048400879
40.4370231628418
39.7694320678711
39.7694320678711
45.8731346130371
52.5490570068359
48.9249839782715
50.0694274902344
56.0777587890625
50.832389831543
50.4509086608887
51.2138710021973
38.148136138916
30.0416564941406
28.0388793945313
25.6546211242676
29.1833248138428
27.0851764678955
19.1694374084473
14.9731435775757
15.7361059188843
24.1286964416504
24.2240657806396
24.0333251953125
31.2814712524414
24.7009181976318
24.3194370269775
35.382396697998
40.3416519165039
42.9166526794434
39.9601707458496
39.6740608215332
38.9110984802246
27.3712882995605
19.9324016571045
17.2620315551758
15.9268465042114
21.0768451690674
26.9898052215576
34.3333206176758
46.6360969543457
48.066650390625
42.1536903381348
41.6768379211426
37.8620262145996
35.0009155273438
41.4860992431641
45.9685020446777
41.6768379211426
37.5759124755859
39.864803314209
44.0610961914063
51.0231323242188
56.6499824523926
55.0286865234375
54.2657241821289
51.7860946655273
44.0610961914063
36.0499877929688
33.5703582763672
33.5703582763672
25.0823993682861
27.943510055542
40.7231369018555
34.3333206176758
29.278694152832
35.9546165466309
45.1101722717285
61.1323890686035
80.5879364013672
145.630508422852
301.942504882813
502.983184814453
674.459045410156
795.674743652344
891.045104980469
972.491333007813
1016.17095947266
1008.25524902344
934.820068359375
781.273803710938
582.808166503906
377.666534423828
162.797164916992
-35.382396697998
-167.470321655273
-249.584182739258
-308.427673339844
-345.908233642578
-381.385986328125
-398.171173095703
-392.353576660156
-412.667449951172
-455.20263671875
-495.6396484375
-543.229431152344
-577.658142089844
-571.840576171875
-545.518371582031
-522.629455566406
-490.966522216797
-453.962829589844
-435.556335449219
-430.597076416016
-426.114685058594
-429.834106445313
-445.570220947266
-446.619293212891
-414.098022460938
-372.898040771484
-342.284149169922
-312.910095214844
-275.52490234375
-246.627700805664
-241.286956787109
-238.711959838867
-235.946228027344
-230.605484008789
-208.861038208008
-180.059204101563
-163.178649902344
-151.63883972168
-124.93514251709
-104.62126159668
-102.999969482422
-92.986083984375
-74.5796051025391
-66.4731292724609
-61.323127746582
-46.0638732910156
-33.761100769043
-24.7962875366211
-10.1092557907104
-0.9537034034729
9.72777462005615
29.5648059844971
42.630542755127
44.3472061157227
45.0148010253906
54.0749816894531
63.4212760925293
66.7592391967773
78.394416809082
85.7379379272461
84.7842330932617
96.0379333496094
105.288856506348
109.00830078125
115.970336914063
110.057373046875
104.049041748047
109.199035644531
109.00830078125
109.103668212891
121.501815795898
134.186065673828
133.709213256836
136.093475341797
148.110137939453
148.300872802734
137.237915039063
122.550888061523
113.395332336426
125.698104858398
129.989776611328
113.967559814453
114.34903717041
120.643478393555
116.256446838379
125.411994934082
135.616622924805
130.752731323242
128.36848449707
131.992553710938
133.899963378906
136.188842773438
151.543472290039
167.661056518555
170.045318603516
168.519393920898
157.361053466797
132.755508422852
109.675888061523
103.667556762695
113.967559814453
128.177734375
140.099029541016
144.772171020508
140.861999511719
127.605514526367
117.49626159668
114.635147094727
100.901817321777
90.220344543457
100.901817321777
109.96199798584
106.337928771973
119.499038696289
144.390701293945
148.300872802734
149.922180175781
150.208282470703
131.134216308594
120.83422088623
122.360145568848
114.730522155762
117.210144042969
132.946258544922
137.524032592773
136.474960327148
145.725875854492
152.592544555664
139.145324707031
118.831443786621
109.580520629883
102.999969482422
95.751823425293
90.3157119750977
87.8360824584961
92.6045989990234
87.7407150268555
69.4296035766602
51.6907234191895
38.6249885559082
39.6740608215332
44.251838684082
44.3472061157227
52.453685760498
56.1731300354004
49.2110939025879
45.3962821960449
41.2953567504883
21.9351787567139
2.38425850868225
-3.62407302856445
-16.2129573822021
-27.0851764678955
-25.0823993682861
-35.5731353759766
-53.6935005187988
-46.6360969543457
-36.2407302856445
-36.9083213806152
-36.1453590393066
-61.6092376708984
-84.9749755859375
-66.1870193481445
-48.4481315612793
-56.936092376709
-74.2934951782227
-85.0703430175781
-86.3101577758789
-86.5009002685547
-92.318489074707
-93.8444137573242
-90.7925643920898
-96.800895690918
-100.997192382813
-102.52311706543
-106.433296203613
-108.531448364258
-114.158294677734
-116.924034118652
-112.25089263916
-109.199035644531
-109.580520629883
-107.86385345459
-105.098114013672
-107.482376098633
-121.120330810547
-135.998107910156
-132.755508422852
-126.270332336426
-126.270332336426
-127.128662109375
-146.011993408203
-170.522171020508
-160.603652954102
-134.66291809082
-118.44995880127
-102.999969482422
-99.4712677001953
-91.3647842407227
-79.1573791503906
-82.9721984863281
-79.9203414916992
-70.3833084106445
-73.0536804199219
-83.7351608276367
-83.925895690918
-86.6916351318359
-100.329597473145
-93.0814514160156
-86.1194152832031
-90.4110794067383
-88.1221923828125
-76.8684921264648
-63.5166473388672
-71.1462707519531
-80.0157165527344
-83.3536758422852
-103.286079406738
-117.305519104004
-96.8962631225586
-62.1814613342285
-58.2712783813477
-63.9934997558594
-54.0749816894531
-59.5110931396484
-77.8221969604492
-81.0647888183594
-66.3777542114258
-65.0425720214844
-72.0046081542969
-63.6120147705078
-68.0944213867188
-69.8110885620117
-54.5518341064453
-55.0286865234375
-64.1842422485352
-68.0944213867188
-71.6231231689453
-65.4240493774414
-52.1675758361816
-40.1509132385254
-19.8370304107666
-4.1962947845459
-2.5749990940094
9.9185152053833
31.9490642547607
36.0499877929688
28.3249912261963
19.074068069458
18.5972156524658
33.5703582763672
40.913875579834
24.0333251953125
1.81203651428223
8.3925895690918
24.4148063659668
22.6981410980225
33.761100769043
45.6823921203613
36.7175827026367
29.0879535675049
22.0305480957031
18.787956237793
20.5999927520752
8.67870044708252
8.3925895690918
18.2157344818115
-5.91296100616455
-27.7527694702148
-17.5481433868408
-17.2620315551758
-33.2842483520508
-42.3444290161133
-40.8185043334961
-27.3712882995605
-19.9324016571045
-26.5129547119141
-26.7036952972412
-24.0333251953125
-20.0277709960938
-16.8805503845215
-24.6055469512939
-16.30832862854
13.7333288192749
17.9296245574951
10.2999963760376
20.8861045837402
22.5074005126953
26.3222141265869
42.4398002624512
43.1073951721191
32.2351760864258
20.7907333374023
10.5861072540283
3.43333220481873
-8.48795986175537
-6.29444265365601
13.5425882339478
14.3055505752563
18.9786968231201
40.5323944091797
43.1073951721191
39.1018409729004
40.0555419921875
52.8351669311523
63.9934997558594
30.8999900817871
2.38425850868225
1.52592539787292
-8.48795986175537
-1.9074068069458
7.15277528762817
0.190740674734116
5.53147983551025
16.8805503845215
34.5240631103516
47.3036880493164
48.2573928833008
70.6694183349609
96.0379333496094
116.35181427002
186.353637695313
348.769317626953
559.060913085938
735.686828613281
854.327514648438
931.768249511719
995.284851074219
1034.57739257813
1004.53576660156
877.597839355469
689.432189941406
486.197998046875
274.094360351563
60.8462753295898
-137.047180175781
-282.963806152344
-377.189697265625
-443.567443847656
-469.603546142578
-467.696136474609
-459.589660644531
-435.365600585938
-420.964691162109
-441.850769042969
-462.260040283203
-490.012817382813
-523.678527832031
-519.863708496094
-503.746124267578
-481.429473876953
-459.017456054688
-461.115600585938
-450.148010253906
-439.561889648438
-474.3720703125
-492.110961914063
-463.499847412109
-434.793365478516
-365.554504394531
-281.914733886719
-260.647125244141
-250.823989868164
-216.586044311523
-174.909210205078
-138.668472290039
-132.755508422852
-157.551803588867
-180.440689086914
-192.075866699219
-197.511978149414
-204.187896728516
-213.72492980957
-188.261047363281
-149.254577636719
-129.512924194336
-86.1194152832031
-43.3935050964355
-23.9379558563232
17.2620315551758
67.1407165527344
85.5471954345703
64.3749771118164
47.017578125
55.6009063720703
42.8212814331055
25.177770614624
31.4722118377686
21.2675857543945
-12.6842555999756
-40.913875579834
-25.2731399536133
47.4944305419922
115.588851928711
175.767532348633
247.486038208008
247.009185791016
192.45735168457
170.426803588867
155.739761352539
135.998107910156
122.741630554199
113.681442260742
150.589767456055
185.209197998047
146.965698242188
151.352722167969
201.708267211914
193.792526245117
209.719375610352
250.537887573242
256.35546875
235.946228027344
160.22216796875
90.0296020507813
56.2685012817383
60.1786842346191
117.59162902832
162.129577636719
229.174926757813
286.778625488281
243.480484008789
193.124938964844
204.950866699219
227.172149658203
206.572158813477
178.533279418945
164.799942016602
109.00830078125
29.7555465698242
14.4962921142578
53.4073905944824
87.7407150268555
120.452735900879
126.07958984375
70.0018310546875
-13.0657367706299
-71.2416458129883
-56.1731300354004
26.9898052215576
49.3064651489258
1.9074068069458
42.7259140014648
152.211059570313
194.078643798828
169.854568481445
172.238830566406
201.422164916992
220.210113525391
235.850845336914
204.760116577148
114.25366973877
42.0583190917969
57.0314636230469
90.4110794067383
82.3046035766602
116.637924194336
197.893447875977
234.324920654297
212.485122680664
166.516616821289
113.109222412109
83.6397857666016
60.3694267272949
9.15555286407471
9.537034034729
160.22216796875
292.023986816406
272.186950683594
272.949920654297
309.858245849609
309.095275878906
267.418426513672
201.422164916992
167.756423950195
148.014770507813
114.34903717041
30.2323970794678
-52.453685760498
-27.5620288848877
31.7583236694336
63.1351661682129
118.068481445313
153.83235168457
68.1897964477539
-19.4555492401123
-22.6981410980225
-95.6564483642578
-186.067535400391
-166.421249389648
-70.1925735473633
39.1018409729004
24.0333251953125
-47.9712791442871
-61.7046089172363
-105.86107635498
-133.136993408203
-121.311073303223
-182.729568481445
-297.555450439453
-334.368408203125
-251.491592407227
-181.108276367188
-165.658279418945
-149.826797485352
-156.407363891602
-203.901779174805
-214.869369506836
-151.63883972168
-162.224945068359
-193.697158813477
-119.68977355957
-38.5296173095703
37.099063873291
67.5222015380859
7.91573810577393
-29.0879535675049
-8.96481227874756
102.61848449707
236.423065185547
158.410140991211
-50.1647987365723
-235.373992919922
-413.525787353516
-528.256286621094
-550.000732421875
-408.757263183594
-171.857345581055
-100.901817321777
-126.270332336426
-40.7231369018555
58.3666496276855
-0.572222054004669
-111.1064453125
-148.014770507813
-138.76383972168
-57.7944259643555
-36.431468963623
-187.116607666016
-302.991577148438
-289.544342041016
-243.194366455078
-173.669387817383
-112.727745056152
-49.2110939025879
33.8564720153809
16.1175880432129
-38.0527648925781
-20.1231422424316
2.8611102104187
61.99072265625
100.711082458496
17.357400894165
-45.3962821960449
-85.4518280029297
-139.526809692383
-98.6129302978516
-67.4268264770508
-135.998107910156
-220.11474609375
-239.379547119141
-159.554580688477
-127.414772033691
-167.470321655273
-128.463851928711
-100.424964904785
-105.193481445313
-50.9277610778809
19.074068069458
105.288856506348
114.825889587402
46.6360969543457
38.3388748168945
16.6898097991943
-29.278694152832
-29.4694347381592
-7.6296272277832
42.1536903381348
103.381446838379
76.4870147705078
-48.4481315612793
-131.229583740234
-113.013854980469
-75.5333099365234
-52.0722045898438
-31.1861019134521
-97.5638580322266
-166.898101806641
-87.2638626098633
16.4990692138672
72.9583129882813
50.5462799072266
-63.8027572631836
-117.782371520996
-88.8851547241211
-77.4407196044922
-107.86385345459
-147.251800537109
-151.73420715332
-114.34903717041
-62.8490524291992
-66.7592391967773
-160.889770507813
-246.532333374023
-244.243438720703
-129.417556762695
69.9064559936523
168.90087890625
95.3703384399414
-2.00277709960938
-27.3712882995605
-27.8481388092041
-63.9934997558594
-68.4759063720703
-8.48795986175537
44.251838684082
88.8851547241211
150.971252441406
158.791610717773
76.4870147705078
-28.2296199798584
-103.76293182373
-75.247200012207
10.4907369613647
61.6092376708984
125.984222412109
171.285125732422
178.247161865234
141.243469238281
45.300910949707
29.6601753234863
74.8657150268555
24.891658782959
15.4499950408936
100.52033996582
73.1490478515625
5.24536848068237
30.5185089111328
42.7259140014648
10.6814785003662
-34.3333206176758
-78.7759017944336
-22.0305480957031
126.842552185059
204.378631591797
286.778625488281
475.993377685547
628.776672363281
734.351623535156
818.658996582031
872.161743164063
950.55615234375
1013.69134521484
1003.86822509766
917.748779296875
766.777526855469
579.374816894531
392.162841796875
203.615676879883
-18.6925868988037
-212.580490112305
-319.967498779297
-386.726715087891
-440.801696777344
-482.573913574219
-498.405395507813
-488.296142578125
-467.410034179688
-437.082275390625
-419.057281494141
-427.831329345703
-435.937835693359
-438.512817382813
-449.766510009766
-444.42578125
-417.626708984375
-384.056365966797
-352.011932373047
-332.079528808594
-323.019348144531
-325.022125244141
-329.504516601563
-309.66748046875
-269.802703857422
-243.957336425781
-241.096221923828
-226.50456237793
-179.3916015625
-174.623092651367
-221.545303344727
-217.82585144043
-191.789749145508
-212.389739990234
-214.964752197266
-168.90087890625
-142.197174072266
-135.711990356445
-97.6592254638672
-65.9009017944336
-68.1897964477539
-69.3342361450195
-61.99072265625
-26.1314735412598
28.7064723968506
49.4018363952637
39.2925796508789
34.4286918640137
33.9518394470215
35.6685066223145
55.0286865234375
76.3916397094727
87.6453399658203
102.713859558105
129.226806640625
154.786056518555
168.519393920898
168.80549621582
163.846237182617
179.58235168457
183.015686035156
158.886993408203
163.560134887695
191.885116577148
204.378631591797
216.204559326172
247.86750793457
265.701751708984
245.483261108398
197.798080444336
151.829574584961
138.85920715332
141.243469238281
154.118469238281
190.645309448242
211.436050415039
203.329559326172
179.105499267578
140.480514526367
122.741630554199
143.15087890625
186.639755249023
228.221221923828
244.052703857422
241.859176635742
226.027709960938
155.167541503906
56.5546112060547
24.1286964416504
26.1314735412598
-2.47962880134583
-35.9546165466309
-38.8157272338867
-24.1286964416504
0.0953703373670578
57.3175735473633
106.147186279297
108.817558288574
87.7407150268555
54.170352935791
22.6981410980225
18.8833274841309
25.7499923706055
30.2323970794678
63.2305335998535
111.678665161133
134.66291809082
126.461067199707
123.790702819824
120.166625976563
77.345344543457
36.3360977172852
11.1583299636841
-5.91296100616455
17.6435127258301
44.251838684082
44.1564674377441
53.5981292724609
79.4434967041016
99.6620025634766
98.9944152832031
89.9342269897461
75.5333099365234
39.3879508972168
5.34073925018311
5.7222204208374
25.9407329559326
43.7749862670898
55.6962776184082
45.300910949707
21.3629570007324
2.1935179233551
-2.8611102104187
13.5425882339478
23.6518440246582
13.1611070632935
5.34073925018311
22.2212886810303
22.9842510223389
-39.3879508972168
-118.640701293945
-167.661056518555
-192.171234130859
-179.296234130859
-158.1240234375
-172.620315551758
-171.285125732422
-112.537002563477
-45.6823921203613
-28.7064723968506
-50.6416511535645
-76.1055297851563
-82.876823425293
-71.1462707519531
-60.7509078979492
-73.3397903442383
-116.35181427002
-119.117553710938
-99.8527450561523
-109.389778137207
-81.0647888183594
-43.5842437744141
-9.44166374206543
49.0203552246094
59.6064605712891
7.0574049949646
-31.4722118377686
-28.8018417358398
-34.7148017883301
-70.3833084106445
-102.237007141113
-110.915702819824
-129.226806640625
-139.145324707031
-112.537002563477
-102.809226989746
-96.4194107055664
-78.2036819458008
-97.5638580322266
-118.926811218262
-110.248115539551
-105.956443786621
-91.3647842407227
-73.9120101928711
-69.9064559936523
-51.7860946655273
-33.9518394470215
-24.1286964416504
-6.86666440963745
7.24814605712891
39.197208404541
104.716636657715
127.510147094727
105.479598999023
126.461067199707
169.663833618164
225.741592407227
290.688781738281
280.579528808594
213.152709960938
149.826797485352
107.387001037598
107.196258544922
137.905517578125
184.827713012695
228.125854492188
242.431396484375
271.996215820313
313.100830078125
348.864715576172
408.661895751953
410.473937988281
332.079528808594
241.286956787109
121.787925720215
-15.0685138702393
-142.101806640625
-266.464721679688
-384.056365966797
-514.999816894531
-599.974792480469
-564.687805175781
-495.92578125
-394.547088623047
-253.208251953125
-182.348083496094
-164.036987304688
-176.149017333984
-224.31103515625
-267.036956787109
-318.536926269531
-368.510986328125
-353.251739501953
-313.768432617188
-317.678588867188
-276.955474853516
-194.36474609375
-157.837905883789
-96.13330078125
-16.30832862854
-6.29444265365601
-15.6407356262207
0.47685170173645
-3.24259161949158
-56.6499824523926
-124.839775085449
-152.878662109375
-149.63606262207
-151.066619873047
-140.289764404297
-123.409217834473
-129.703659057617
-114.25366973877
-74.9610900878906
-59.7972030639648
-67.6175689697266
-75.4379425048828
-78.394416809082
-127.510147094727
-156.502731323242
-67.8083114624023
-16.9759197235107
-68.6666412353516
-92.0323791503906
-63.8027572631836
-16.7851791381836
4.00555419921875
-16.8805503845215
-21.9351787567139
51.1185035705566
199.514755249023
286.587860107422
235.278625488281
187.402725219727
224.978637695313
251.110107421875
251.014739990234
245.483261108398
181.299011230469
155.358276367188
220.305480957031
225.741592407227
224.692520141602
325.403594970703
412.667449951172
447.286895751953
494.018371582031
522.534118652344
499.931335449219
485.530395507813
477.042449951172
421.346160888672
333.033233642578
267.227691650391
244.052703857422
224.50178527832
215.250854492188
215.250854492188
169.949951171875
123.695327758789
129.608291625977
142.387924194336
149.922180175781
202.089752197266
378.620239257813
652.237731933594
875.595092773438
1039.34594726563
1198.99597167969
1332.13293457031
1435.80041503906
1495.21618652344
1424.06994628906
1226.6533203125
966.006164550781
632.972961425781
284.871215820313
-79.1573791503906
-424.684112548828
-611.323852539063
-753.234924316406
-913.075622558594
-976.210815429688
-996.620056152344
-1022.08392333984
-1022.27465820313
-1002.15155029297
-960.570068359375
-940.828430175781
-972.872863769531
-1032.57470703125
-1100.09692382813
-1126.89599609375
-1118.98022460938
-1076.15893554688
-984.031188964844
-933.294128417969
-908.116394042969
-832.964538574219
-775.170104980469
-777.363647460938
-784.230285644531
-765.728454589844
-715.849792480469
-624.008117675781
-538.937805175781
-483.05078125
-415.337829589844
-378.715606689453
-380.718383789063
-359.260070800781
-325.117492675781
-300.988800048828
-295.552673339844
-287.827697753906
-263.031402587891
-242.049926757813
-243.385101318359
-273.236022949219
-274.666564941406
-236.136962890625
-210.100860595703
-157.361053466797
-86.5009002685547
-82.0184936523438
-95.084228515625
-62.5629425048828
-25.4638805389404
-7.0574049949646
16.7851791381836
44.0610961914063
52.0722045898438
47.2083168029785
62.8490524291992
106.719413757324
145.2490234375
173.764755249023
221.354553222656
260.361022949219
269.135101318359
303.086944580078
324.068420410156
284.394348144531
247.77214050293
245.387878417969
276.478607177734
292.59619140625
258.548980712891
232.89436340332
229.270294189453
221.449935913086
232.608261108398
279.148986816406
313.482299804688
295.648040771484
265.797149658203
255.211029052734
238.425842285156
209.43327331543
172.811050415039
161.748092651367
191.026794433594
208.956420898438
204.855484008789
217.92121887207
229.651779174805
207.621231079102
180.536056518555
168.137908935547
169.473098754883
167.851791381836
147.824020385742
136.188842773438
141.434219360352
140.671249389648
135.330505371094
135.807357788086
137.524032592773
150.685134887695
178.628646850586
202.375854492188
216.204559326172
229.365661621094
263.412872314453
293.740661621094
299.844360351563
306.424896240234
305.089721679688
302.514709472656
316.152679443359
311.288787841797
286.873992919922
294.217498779297
318.918426513672
327.406372070313
341.7119140625
345.622100830078
325.498962402344
311.479522705078
294.598968505859
264.652679443359
234.611038208008
218.493453979492
217.253631591797
206.858261108398
187.307342529297
168.519393920898
142.578659057617
115.111999511719
85.4518280029297
51.5953521728516
25.7499923706055
7.0574049949646
-2.8611102104187
-16.5944385528564
-42.8212814331055
-63.8981285095215
-83.925895690918
-103.953666687012
-112.823112487793
-115.779594421387
-113.586074829102
-90.7925643920898
-44.4425773620605
-5.62685012817383
35.0009155273438
92.1277465820313
109.199035644531
95.2749710083008
96.0379333496094
84.2120132446289
56.936092376709
43.2027626037598
24.4148063659668
-14.8777732849121
-47.8759117126465
-71.3370132446289
-70.5740509033203
-41.5814666748047
-53.8842430114746
-79.9203414916992
-66.1870193481445
-48.3527641296387
-26.226842880249
-2.8611102104187
-3.5287024974823
-22.8888816833496
-28.2296199798584
-12.4935140609741
4.10092449188232
15.35462474823
8.10647869110107
0.858333051204681
3.5287024974823
-4.38703584671021
-9.537034034729
-24.6055469512939
-57.3175735473633
-78.5851593017578
-93.367561340332
-121.406440734863
-154.976806640625
-167.756423950195
-167.184204101563
-162.892547607422
-137.142547607422
-120.73885345459
-148.777725219727
-180.822158813477
-191.980499267578
-197.702713012695
-206.381408691406
-211.436050415039
-203.997161865234
-201.899002075195
-190.836044311523
-153.73698425293
-137.810134887695
-170.712905883789
-218.493453979492
-232.226776123047
-225.264739990234
-218.970306396484
-188.165679931641
-147.53791809082
-123.027740478516
-115.016632080078
-112.25089263916
-94.8934860229492
-65.2333145141602
-32.4259147644043
-14.687032699585
-2.67036962509155
2.95648050308228
-21.6490669250488
-59.7972030639648
-81.3508987426758
-42.3444290161133
6.86666440963745
-12.8749961853027
-60.0833129882813
-115.398109436035
-156.311981201172
-131.897186279297
-94.9888610839844
-97.6592254638672
-114.34903717041
-131.992553710938
-134.186065673828
-105.574966430664
-72.2907180786133
-31.8536930084229
19.9324016571045
60.5601654052734
101.664779663086
126.365699768066
107.768486022949
81.827751159668
68.7620162963867
67.1407165527344
73.1490478515625
98.0407104492188
139.049957275391
150.685134887695
151.543472290039
148.491622924805
111.392555236816
85.5471954345703
92.318489074707
107.196258544922
113.299964904785
111.678665161133
120.452735900879
125.793479919434
117.686996459961
110.152740478516
96.4194107055664
77.4407196044922
61.8953514099121
57.5083160400391
58.5573883056641
51.2138710021973
47.6851692199707
35.0962867736816
14.5916624069214
35.0009155273438
40.2462844848633
-12.3981437683105
-57.8897972106934
-105.193481445313
-133.709213256836
-105.670333862305
-97.5638580322266
-99.7573776245117
-88.4083023071289
-116.44718170166
-126.174957275391
-86.7870101928711
-69.9064559936523
-74.2934951782227
-98.4221878051758
-138.477737426758
-146.011993408203
-159.745315551758
-195.986053466797
-204.283264160156
-198.465682983398
-193.887893676758
-179.3916015625
-163.655502319336
-143.055511474609
-119.308296203613
-99.1851501464844
-75.6286773681641
-69.1434936523438
-71.6231231689453
-37.2898025512695
9.82314491271973
40.913875579834
85.1657104492188
134.472183227539
169.473098754883
215.72770690918
298.223052978516
435.460968017578
616.473876953125
793.767333984375
916.69970703125
1002.81915283203
1133.47644042969
1263.37084960938
1282.0634765625
1186.21630859375
984.69873046875
710.604431152344
434.507263183594
159.268463134766
-115.49348449707
-348.960083007813
-511.089660644531
-602.931274414063
-675.698852539063
-732.444213867188
-726.912719726563
-687.620178222656
-654.622009277344
-651.570190429688
-701.258117675781
-764.202514648438
-781.178466796875
-753.234924316406
-729.106262207031
-719.092346191406
-705.168273925781
-690.481262207031
-671.025695800781
-650.330322265625
-637.836853027344
-625.820190429688
-600.356262207031
-579.851684570313
-584.620178222656
-545.422973632813
-446.047088623047
-369.84619140625
-318.250823974609
-279.911956787109
-277.241577148438
-278.386016845703
-264.271209716797
-244.243438720703
-240.047149658203
-257.023071289063
-238.902694702148
-181.108276367188
-122.550888061523
-68.5712738037109
-39.4833221435547
-32.2351760864258
-22.4120292663574
-23.9379558563232
-33.5703582763672
-30.2323970794678
-9.15555286407471
29.7555465698242
88.1221923828125
138.096252441406
157.456436157227
182.920318603516
216.681411743164
218.111968994141
194.36474609375
180.249938964844
185.686050415039
185.590682983398
187.307342529297
203.901779174805
212.294372558594
220.686965942383
225.360107421875
223.548080444336
217.253631591797
214.487899780273
245.292510986328
270.756408691406
277.9091796875
271.996215820313
225.741592407227
216.204559326172
243.385101318359
198.561050415039
147.633285522461
141.052734375
90.6971969604492
54.170352935791
82.0184936523438
89.9342269897461
88.5036773681641
103.286079406738
121.978668212891
162.224945068359
200.75456237793
211.817520141602
209.337890625
209.242523193359
214.011047363281
224.120300292969
260.265655517578
304.803619384766
323.114715576172
338.755432128906
354.491546630859
338.660064697266
305.566558837891
279.244354248047
267.036956787109
256.641571044922
234.706405639648
229.651779174805
250.06103515625
269.707305908203
286.3017578125
301.179534912109
299.748992919922
284.680450439453
274.094360351563
263.508239746094
241.096221923828
231.273071289063
233.657333374023
218.111968994141
215.346221923828
242.240661621094
256.260101318359
251.968444824219
238.330474853516
217.348999023438
209.624008178711
208.288818359375
207.811965942383
224.120300292969
248.535110473633
255.020294189453
235.278625488281
212.675857543945
205.713821411133
202.85270690918
193.124938964844
166.802719116211
142.387924194336
138.85920715332
143.436996459961
174.146240234375
214.487899780273
216.395294189453
192.552719116211
139.622177124023
71.5277557373047
29.278694152832
10.3953666687012
23.6518440246582
37.7666549682617
25.177770614624
18.787956237793
3.71944332122803
-21.0768451690674
-34.5240631103516
-53.8842430114746
-80.778678894043
-110.534225463867
-137.237915039063
-148.491622924805
-150.399032592773
-151.066619873047
-147.728652954102
-140.194396972656
-132.660140991211
-119.117553710938
-102.999969482422
-103.953666687012
-115.398109436035
-116.733299255371
-110.629592895508
-109.96199798584
-113.395332336426
-108.340705871582
-98.8036727905273
-93.8444137573242
-97.5638580322266
-110.343482971191
-112.823112487793
-102.999969482422
-109.389778137207
-127.033294677734
-125.030517578125
-121.69255065918
-130.561996459961
-135.235137939453
-149.54069519043
-174.527725219727
-190.359191894531
-198.084197998047
-205.1416015625
-212.008270263672
-218.970306396484
-224.883255004883
-225.550857543945
-218.684188842773
-214.964752197266
-214.774002075195
-206.858261108398
-199.514755249023
-198.561050415039
-188.356414794922
-172.620315551758
-164.323089599609
-156.884216308594
-150.017547607422
-146.298095703125
-141.052734375
-138.477737426758
-146.870330810547
-160.22216796875
-163.941619873047
-162.129577636719
-164.799942016602
-166.325866699219
-166.039764404297
-170.903656005859
-171.952728271484
-167.756423950195
-170.426803588867
-175.958282470703
-185.590682983398
-194.55549621582
-181.966613769531
-169.568466186523
-176.053649902344
-178.056427001953
-167.279571533203
-160.126800537109
-166.039764404297
-175.386047363281
-182.157348632813
-181.012908935547
-177.198089599609
-169.854568481445
-154.976806640625
-147.633285522461
-137.237915039063
-117.114776611328
-99.2805252075195
-79.5388641357422
-58.2712783813477
-42.7259140014648
-31.2814712524414
-20.409252166748
-3.24259161949158
15.9268465042114
24.1286964416504
30.8999900817871
41.1046180725098
52.6444282531738
64.2796096801758
69.8110885620117
83.5444183349609
102.999969482422
102.713859558105
85.4518280029297
76.3916397094727
73.3397903442383
58.7481307983398
38.7203598022461
22.6027698516846
8.77407169342041
-5.91296100616455
-25.6546211242676
-34.2379531860352
-24.0333251953125
-23.4611034393311
-31.8536930084229
-33.1888771057129
-38.148136138916
-45.300910949707
-51.6907234191895
-55.219425201416
-50.6416511535645
-50.4509086608887
-57.3175735473633
-66.1870193481445
-69.3342361450195
-62.2768325805664
-61.1323890686035
-65.5194244384766
-69.2388687133789
-74.198127746582
-73.2444229125977
-70.0018310546875
-67.0453491210938
-62.0860900878906
-52.3583183288574
-35.8592491149902
-20.5046234130859
-4.48240613937378
6.1037015914917
7.82036781311035
17.2620315551758
33.0935096740723
44.6333198547363
56.4592399597168
75.1518249511719
94.702751159668
114.158294677734
133.709213256836
140.671249389648
136.570327758789
130.752731323242
130.943481445313
138.096252441406
146.202728271484
159.268463134766
162.034210205078
154.786056518555
159.745315551758
173.192535400391
180.059204101563
171.285125732422
170.426803588867
193.792526245117
202.948089599609
181.012908935547
159.363830566406
153.260131835938
144.772171020508
138.096252441406
163.369384765625
254.066589355469
418.9619140625
605.315551757813
748.943298339844
843.64599609375
943.212646484375
1035.62646484375
1042.01635742188
958.853393554688
806.737731933594
602.645202636719
398.838775634766
189.691604614258
-52.0722045898438
-251.968444824219
-370.704498291016
-449.861907958984
-494.113739013672
-519.672973632813
-541.512817382813
-544.660034179688
-550.572998046875
-576.418334960938
-603.598876953125
-631.447021484375
-658.055358886719
-657.578491210938
-623.435913085938
-567.835021972656
-500.312805175781
-435.937835693359
-380.909149169922
-331.316558837891
-295.075836181641
-279.435089111328
-276.573974609375
-273.998992919922
-270.851776123047
-263.985107421875
-247.199920654297
-238.044372558594
-244.434173583984
-251.300842285156
-253.685104370117
-262.268432617188
-264.461944580078
-247.962890625
-225.074005126953
-200.9453125
-177.579574584961
-151.63883972168
-125.507369995117
-109.00830078125
-97.5638580322266
-91.9370040893555
-87.5499725341797
-78.6805267333984
-77.0592346191406
-63.4212760925293
-29.7555465698242
-11.8259220123291
-15.6407356262207
-15.9268465042114
-0.381481349468231
20.409252166748
30.6138782501221
36.0499877929688
43.1073951721191
49.9740562438965
58.2712783813477
62.3722038269043
63.039794921875
69.0481262207031
75.4379425048828
83.2583084106445
94.5120086669922
102.141632080078
111.487930297852
116.161071777344
116.35181427002
126.747184753418
138.000885009766
145.058288574219
147.156433105469
151.257354736328
171.857345581055
184.732345581055
176.721237182617
175.862899780273
177.961059570313
172.906433105469
172.524948120117
171.952728271484
168.328643798828
167.756423950195
171.475875854492
173.192535400391
173.09716796875
175.672164916992
174.813827514648
169.186981201172
160.22216796875
148.110137939453
142.292541503906
145.630508422852
156.693466186523
164.036987304688
159.554580688477
152.687911987305
141.624954223633
130.27587890625
129.226806640625
132.183288574219
132.56477355957
138.286987304688
146.202728271484
151.161987304688
160.794387817383
165.944396972656
155.83512878418
150.112915039063
153.355499267578
150.971252441406
153.73698425293
159.745315551758
159.077728271484
174.432357788086
192.648086547852
189.119384765625
187.211975097656
194.650863647461
200.9453125
208.288818359375
209.43327331543
206.095306396484
204.569381713867
207.811965942383
212.485122680664
209.910110473633
210.863815307617
213.820297241211
210.482345581055
203.520309448242
184.636978149414
169.854568481445
176.053649902344
185.686050415039
182.729568481445
167.184204101563
150.494400024414
137.524032592773
127.224029541016
122.550888061523
115.111999511719
102.237007141113
88.5036773681641
72.8629379272461
64.5657196044922
65.5194244384766
58.8434982299805
43.4888763427734
38.6249885559082
32.04443359375
6.00833129882813
-11.8259220123291
-11.7305517196655
-13.4472179412842
-17.357400894165
-26.9898052215576
-38.6249885559082
-44.3472061157227
-50.7370223999023
-61.4184989929199
-71.7184982299805
-74.0073852539063
-77.5360870361328
-87.3592300415039
-89.5527496337891
-99.948112487793
-119.59440612793
-120.262001037598
-117.49626159668
-125.507369995117
-136.66569519043
-148.968475341797
-150.971252441406
-154.118469238281
-161.843460083008
-156.216613769531
-154.690689086914
-161.080505371094
-165.372161865234
-178.533279418945
-189.500869750977
-185.87678527832
-178.056427001953
-173.001800537109
-174.909210205078
-177.29345703125
-172.143463134766
-170.522171020508
-173.383270263672
-174.241607666016
-177.770309448242
-181.108276367188
-179.3916015625
-172.811050415039
-165.086059570313
-162.129577636719
-165.944396972656
-171.857345581055
-172.429580688477
-166.993469238281
-159.268463134766
-160.031433105469
-164.990692138672
-161.366607666016
-158.696243286133
-154.881439208984
-146.298095703125
-150.208282470703
-154.213836669922
-148.682357788086
-151.829574584961
-153.355499267578
-142.292541503906
-132.374038696289
-129.417556762695
-134.090698242188
-135.521255493164
-129.608291625977
-132.850875854492
-129.894409179688
-115.302742004395
-113.967559814453
-112.727745056152
-103.286079406738
-94.5120086669922
-92.4138565063477
-98.9944152832031
-99.0897827148438
-95.5610809326172
-88.2175674438477
-76.0101623535156
-71.1462707519531
-63.9934997558594
-56.1731300354004
-56.4592399597168
-53.8842430114746
-50.9277610778809
-51.5953521728516
-52.9305381774902
-47.3990592956543
-33.9518394470215
-32.4259147644043
-40.913875579834
-48.066650390625
-53.4073905944824
-47.8759117126465
-38.6249885559082
-33.9518394470215
-35.6685066223145
-49.4972076416016
-59.5110931396484
-54.9333152770996
-45.8731346130371
-34.0472106933594
-25.6546211242676
-28.7064723968506
-34.6194343566895
-36.3360977172852
-35.7638778686523
-30.5185089111328
-18.787956237793
-6.86666440963745
-4.38703584671021
-8.3925895690918
-2.00277709960938
4.86388731002808
-3.62407302856445
-4.86388731002808
2.8611102104187
6.19907188415527
9.9185152053833
9.537034034729
19.4555492401123
30.0416564941406
16.5944385528564
10.1092557907104
18.1203651428223
22.5074005126953
30.5185089111328
31.9490642547607
22.4120292663574
18.787956237793
24.9870281219482
32.7120246887207
38.5296173095703
50.5462799072266
59.7972030639648
55.5055389404297
54.4564628601074
54.6472053527832
51.1185035705566
43.4888763427734
26.3222141265869
16.9759197235107
17.5481433868408
14.9731435775757
19.360179901123
24.7962875366211
13.4472179412842
-6.96203470230103
-21.4583263397217
-19.4555492401123
3.147221326828
62.6583137512207
205.1416015625
416.86376953125
621.051635742188
790.333984375
937.776550292969
1077.30334472656
1186.31164550781
1211.68017578125
1147.01904296875
1018.65057373047
858.619140625
682.660888671875
471.415588378906
244.720291137695
61.99072265625
-69.1434936523438
-156.407363891602
-207.716598510742
-259.407318115234
-297.746215820313
-323.114715576172
-374.614685058594
-431.360046386719
-484.099853515625
-548.760925292969
-594.920166015625
-605.601684570313
-597.304443359375
-573.652587890625
-536.172058105469
-497.73779296875
-471.987823486328
-462.450775146484
-454.630401611328
-454.153564453125
-464.548919677734
-449.003570556641
-412.858215332031
-386.91748046875
-358.878601074219
-320.539703369141
-282.10546875
-259.216583251953
-253.971221923828
-249.011962890625
-242.431396484375
-233.752700805664
-213.152709960938
-184.064758300781
-155.262908935547
-124.839775085449
-94.1305236816406
-77.1546020507813
-77.7268295288086
-77.9175643920898
-67.7129440307617
-59.701831817627
-45.9685020446777
-24.2240657806396
-17.2620315551758
-4.57777643203735
22.4120292663574
33.3796195983887
41.1046180725098
52.6444282531738
59.6064605712891
67.2360916137695
69.4296035766602
74.1027526855469
77.9175643920898
78.2990493774414
92.1277465820313
101.664779663086
101.187927246094
110.438850402832
120.643478393555
124.839775085449
130.848098754883
134.090698242188
127.033294677734
121.597183227539
125.125885009766
133.232360839844
144.962921142578
148.968475341797
151.829574584961
166.230499267578
166.70735168457
145.535140991211
136.66569519043
147.251800537109
148.300872802734
138.477737426758
135.235137939453
127.986999511719
124.362922668457
138.096252441406
146.298095703125
149.826797485352
151.63883972168
139.526809692383
128.559219360352
125.030517578125
119.212921142578
114.730522155762
120.83422088623
128.177734375
126.556442260742
126.747184753418
126.747184753418
123.313850402832
122.550888061523
124.839775085449
125.125885009766
124.649032592773
136.284210205078
147.728652954102
151.924957275391
158.410140991211
148.491622924805
133.899963378906
143.15087890625
152.783279418945
144.295318603516
141.148101806641
158.982360839844
180.249938964844
190.454574584961
191.789749145508
187.116607666016
179.200866699219
177.48420715332
180.917541503906
176.816604614258
176.816604614258
188.547164916992
195.413833618164
198.084197998047
202.089752197266
206.858261108398
204.092529296875
193.792526245117
183.68327331543
174.432357788086
171.761978149414
168.137908935547
161.843460083008
171.761978149414
172.906433105469
148.968475341797
131.134216308594
125.507369995117
116.44718170166
99.1851501464844
87.0731201171875
83.6397857666016
77.9175643920898
67.1407165527344
57.0314636230469
53.3120193481445
45.0148010253906
28.4203605651855
12.0166625976563
-4.95925760269165
-18.5972156524658
-27.4666576385498
-32.1398048400879
-34.810173034668
-41.962947845459
-47.5897979736328
-53.5027618408203
-63.8981285095215
-73.1490478515625
-86.8823776245117
-101.760154724121
-104.430519104004
-106.624038696289
-116.637924194336
-129.417556762695
-137.428665161133
-136.474960327148
-141.338836669922
-142.197174072266
-143.246246337891
-160.22216796875
-164.895324707031
-160.126800537109
-164.990692138672
-166.993469238281
-165.372161865234
-169.854568481445
-183.492538452148
-187.211975097656
-181.68049621582
-191.217529296875
-201.994384765625
-205.523086547852
-210.673080444336
-209.147155761719
-203.234191894531
-200.468460083008
-200.9453125
-201.803634643555
-201.517532348633
-201.803634643555
-201.708267211914
-199.705490112305
-197.607345581055
-194.746231079102
-183.301788330078
-177.102722167969
-182.634201049805
-182.348083496094
-178.056427001953
-181.68049621582
-187.688827514648
-183.77864074707
-178.151794433594
-174.813827514648
-159.840682983398
-149.349945068359
-152.783279418945
-157.456436157227
-164.227722167969
-166.802719116211
-163.655502319336
-161.557357788086
-154.023101806641
-143.532363891602
-134.281433105469
-129.417556762695
-127.414772033691
-119.403663635254
-113.681442260742
-109.103668212891
-102.52311706543
-98.1360778808594
-90.6971969604492
-84.2120132446289
-85.9286727905273
-88.9805297851563
-86.5009002685547
-81.9231185913086
-71.0509033203125
-56.936092376709
-52.7397994995117
-50.5462799072266
-41.0092468261719
-35.6685066223145
-47.5897979736328
-54.8379440307617
-50.1647987365723
-50.4509086608887
-45.2055397033691
-39.6740608215332
-44.1564674377441
-41.3907279968262
-33.4749908447266
-32.3305435180664
-33.6657295227051
-32.6166572570801
-26.1314735412598
-19.1694374084473
-20.3138828277588
-17.9296245574951
-5.7222204208374
0.286111027002335
-2.76573991775513
-1.62129580974579
6.19907188415527
6.6759238243103
0
0.572222054004669
5.81759071350098
15.4499950408936
27.657398223877
31.6629524230957
33.5703582763672
33.761100769043
28.8972129821777
30.1370277404785
34.3333206176758
36.3360977172852
39.864803314209
45.9685020446777
53.2166481018066
56.2685012817383
56.0777587890625
63.3259048461914
67.4268264770508
61.4184989929199
59.4157218933105
63.5166473388672
71.4323883056641
81.9231185913086
85.8333053588867
85.4518280029297
91.5555267333984
92.6999740600586
85.3564529418945
77.7268295288086
56.936092376709
35.6685066223145
37.6712837219238
50.0694274902344
47.1129493713379
29.9462871551514
21.5536975860596
17.8342533111572
8.10647869110107
12.6842555999756
72.9583129882813
231.940673828125
452.055419921875
648.709045410156
815.607116699219
964.861755371094
1099.42932128906
1221.02648925781
1274.71997070313
1219.97741699219
1080.45056152344
902.108032226563
716.708129882813
512.7109375
294.122131347656
105.956443786621
-33.2842483520508
-125.316627502441
-199.610122680664
-289.735107421875
-350.199890136719
-369.369323730469
-407.326721191406
-467.600769042969
-531.022033691406
-596.54150390625
-641.365539550781
-654.622009277344
-648.136840820313
-625.343322753906
-593.298889160156
-559.156311035156
-525.2998046875
-504.890563964844
-497.833160400391
-491.634094238281
-486.484100341797
-475.230407714844
-456.156341552734
-427.259124755859
-388.920257568359
-355.731353759766
-322.82861328125
-294.503601074219
-284.012878417969
-283.440643310547
-279.435089111328
-264.652679443359
-243.098999023438
-214.106414794922
-180.249938964844
-155.358276367188
-140.861999511719
-125.411994934082
-102.237007141113
-84.8796005249023
-80.4925689697266
-73.7212753295898
-59.7972030639648
-45.2055397033691
-28.9925842285156
-14.7824029922485
2.1935179233551
16.6898097991943
17.738883972168
21.3629570007324
33.0935096740723
45.5870208740234
53.0259094238281
60.1786842346191
70.2879409790039
79.9203414916992
93.6536712646484
99.8527450561523
102.427742004395
114.539779663086
120.73885345459
119.499038696289
121.978668212891
125.984222412109
129.989776611328
138.76383972168
142.960144042969
134.853652954102
139.526809692383
157.551803588867
162.892547607422
161.366607666016
159.077728271484
155.262908935547
149.63606262207
142.387924194336
138.382369995117
136.951812744141
145.821243286133
161.748092651367
157.170318603516
142.578659057617
144.295318603516
147.34716796875
139.717544555664
131.611068725586
129.417556762695
126.461067199707
123.027740478516
129.036071777344
136.093475341797
137.333282470703
138.668472290039
141.434219360352
141.720321655273
141.052734375
138.95458984375
129.894409179688
126.270332336426
136.951812744141
148.873107910156
152.592544555664
156.121246337891
161.557357788086
157.170318603516
149.731430053711
144.581436157227
141.529586791992
152.783279418945
166.993469238281
174.527725219727
185.590682983398
193.887893676758
198.847152709961
203.615676879883
199.705490112305
200.659194946289
204.283264160156
195.986053466797
195.986053466797
205.999938964844
208.384185791016
210.291595458984
216.013824462891
221.068450927734
221.640670776367
214.201782226563
202.948089599609
185.113830566406
170.9990234375
169.949951171875
167.947174072266
167.184204101563
166.898101806641
159.173095703125
145.535140991211
126.365699768066
110.248115539551
95.8471908569336
85.9286727905273
82.6860809326172
74.7703475952148
71.6231231689453
67.2360916137695
55.0286865234375
46.6360969543457
36.8129501342773
23.5564746856689
12.3981437683105
1.23981440067291
-12.302773475647
-22.6981410980225
-27.657398223877
-31.0907306671143
-34.4286918640137
-45.4916534423828
-60.5601654052734
-72.4814605712891
-85.4518280029297
-97.3731155395508
-98.8036727905273
-90.1249694824219
-98.3268203735352
-120.262001037598
-131.801803588867
-136.570327758789
-137.619400024414
-137.524032592773
-143.341613769531
-157.265686035156
-175.099945068359
-185.495315551758
-190.549942016602
-193.792526245117
-191.122161865234
-195.032348632813
-210.482345581055
-220.305480957031
-220.210113525391
-212.771224975586
-205.523086547852
-208.193450927734
-207.23974609375
-196.176788330078
-186.925872802734
-186.639755249023
-190.836044311523
-183.492538452148
-177.102722167969
-177.579574584961
-165.086059570313
-156.693466186523
-158.505508422852
-154.881439208984
-153.641616821289
-159.649948120117
-160.985137939453
-159.268463134766
-162.51106262207
-161.652725219727
-157.647171020508
-157.647171020508
-154.881439208984
-145.821243286133
-139.336059570313
-141.243469238281
-131.706436157227
-112.918479919434
-116.542556762695
-119.308296203613
-100.52033996582
-95.2749710083008
-99.5666351318359
-95.084228515625
-95.9425582885742
-94.6073760986328
-86.2147903442383
-79.06201171875
-70.0971984863281
-66.9499816894531
-67.7129440307617
-62.9444236755371
-60.274055480957
-56.936092376709
-47.8759117126465
-40.0555419921875
-33.4749908447266
-26.3222141265869
-21.4583263397217
-23.1749935150146
-32.4259147644043
-37.7666549682617
-41.7722091674805
-56.0777587890625
-60.9416465759277
-49.3064651489258
-42.8212814331055
-44.0610961914063
-51.5953521728516
-57.9851684570313
-52.2629470825195
-46.9222068786621
-47.2083168029785
-52.1675758361816
-60.5601654052734
-64.1842422485352
-64.2796096801758
-64.6610870361328
-65.4240493774414
-60.8462753295898
-47.4944305419922
-33.0935096740723
-21.4583263397217
-15.1638841629028
-18.0249938964844
-19.4555492401123
-16.4036979675293
-14.8777732849121
-13.256477355957
-13.7333288192749
-17.0712909698486
-21.7444381713867
-16.6898097991943
-4.67314672470093
-7.15277528762817
-10.8722190856934
-3.71944332122803
-3.91018390655518
-3.43333220481873
3.147221326828
4.57777643203735
10.7768487930298
16.7851791381836
6.1037015914917
-4.86388731002808
-3.33796191215515
-7.6296272277832
-15.9268465042114
-18.9786968231201
-21.7444381713867
-20.5046234130859
-22.0305480957031
-24.5101776123047
-16.9759197235107
-5.05462789535522
0.190740674734116
-2.95648050308228
-5.91296100616455
1.71666610240936
19.4555492401123
43.2981338500977
106.051818847656
256.641571044922
480.189666748047
693.533081054688
850.5126953125
979.548767089844
1117.07275390625
1267.47180175781
1362.84216308594
1324.40795898438
1169.81262207031
950.746887207031
708.792358398438
459.39892578125
185.209197998047
-61.323127746582
-223.929565429688
-324.163787841797
-399.50634765625
-476.184112548828
-526.158142089844
-529.400756835938
-530.259094238281
-547.616516113281
-578.039611816406
-615.7109375
-642.033142089844
-658.627563476563
-672.170166015625
-667.115539550781
-634.30810546875
-594.538696289063
-561.731323242188
-528.065551757813
-497.356323242188
-476.47021484375
-465.884124755859
-468.363739013672
-462.641510009766
-435.270233154297
-404.751708984375
-369.750793457031
-326.643402099609
-292.59619140625
-263.794372558594
-237.090667724609
-226.4091796875
-217.730484008789
-196.844375610352
-177.961059570313
-152.401809692383
-114.730522155762
-88.6944122314453
-63.6120147705078
-42.3444290161133
-37.099063873291
-28.7064723968506
-22.4120292663574
-16.6898097991943
0.0953703373670578
17.0712909698486
34.6194343566895
59.1296119689941
80.6833038330078
94.2258987426758
102.809226989746
104.049041748047
103.476821899414
114.635147094727
126.842552185059
128.749954223633
135.235137939453
148.968475341797
159.077728271484
167.851791381836
174.336975097656
181.108276367188
188.642532348633
189.310119628906
191.026794433594
194.746231079102
192.552719116211
187.974945068359
188.451797485352
197.130493164063
202.661972045898
203.806411743164
208.384185791016
207.907333374023
198.75178527832
190.931427001953
185.495315551758
175.672164916992
169.186981201172
176.244384765625
185.304565429688
186.067535400391
188.737899780273
192.2666015625
186.449020385742
179.010131835938
174.909210205078
165.372161865234
159.363830566406
161.461990356445
159.745315551758
159.077728271484
164.418472290039
166.802719116211
167.851791381836
167.279571533203
158.028656005859
146.202728271484
137.333282470703
127.033294677734
125.602737426758
136.951812744141
146.584213256836
152.783279418945
162.892547607422
171.761978149414
171.094390869141
166.325866699219
160.508285522461
154.595321655273
160.508285522461
172.906433105469
183.206420898438
193.029571533203
196.081420898438
199.896224975586
201.517532348633
196.176788330078
197.702713012695
197.702713012695
191.789749145508
194.746231079102
204.474014282227
208.193450927734
202.948089599609
194.36474609375
190.836044311523
186.830490112305
180.059204101563
170.426803588867
152.878662109375
144.962921142578
143.723098754883
132.56477355957
133.136993408203
135.807357788086
118.926811218262
105.670333862305
88.5036773681641
63.1351661682129
54.3610954284668
47.5897979736328
35.382396697998
29.278694152832
23.5564746856689
22.9842510223389
18.4064750671387
-1.23981440067291
-12.588885307312
-16.5944385528564
-31.1861019134521
-42.8212814331055
-47.4944305419922
-58.1759071350098
-70.8601608276367
-77.9175643920898
-79.3481216430664
-78.2990493774414
-79.5388641357422
-92.5092315673828
-112.727745056152
-117.305519104004
-111.678665161133
-114.921257019043
-121.215698242188
-129.512924194336
-141.529586791992
-146.298095703125
-144.867553710938
-147.728652954102
-153.73698425293
-158.314758300781
-157.265686035156
-155.83512878418
-161.557357788086
-166.039764404297
-164.227722167969
-165.086059570313
-166.135131835938
-156.407363891602
-146.202728271484
-152.592544555664
-167.851791381836
-172.524948120117
-171.285125732422
-171.189758300781
-161.748092651367
-152.020324707031
-151.257354736328
-158.886993408203
-167.184204101563
-168.71012878418
-170.712905883789
-170.522171020508
-164.990692138672
-163.369384765625
-168.233276367188
-167.565689086914
-160.41291809082
-160.317535400391
-164.704574584961
-163.560134887695
-159.649948120117
-159.840682983398
-160.794387817383
-158.1240234375
-152.306427001953
-140.766616821289
-131.038848876953
-129.608291625977
-127.510147094727
-121.024963378906
-113.681442260742
-109.771263122559
-106.814781188965
-105.956443786621
-112.727745056152
-111.011077880859
-96.7055282592773
-90.5064544677734
-88.6944122314453
-76.7731246948242
-70.0018310546875
-76.9638671875
-79.1573791503906
-79.6342315673828
-80.4925689697266
-75.7240524291992
-79.2527542114258
-85.4518280029297
-85.4518280029297
-83.3536758422852
-76.1055297851563
-75.7240524291992
-84.8796005249023
-89.5527496337891
-86.5009002685547
-84.6888580322266
-87.9314498901367
-83.8305282592773
-76.3916397094727
-74.3888626098633
-74.198127746582
-76.9638671875
-68.6666412353516
-49.8786888122559
-45.4916534423828
-43.679615020752
-28.7064723968506
-18.8833274841309
-23.9379558563232
-28.3249912261963
-21.839807510376
-14.4962921142578
-10.2999963760376
-9.25092315673828
-14.5916624069214
-17.9296245574951
-13.4472179412842
-6.19907188415527
-7.24814605712891
-11.1583299636841
-8.20184898376465
0.286111027002335
9.34629344940186
11.5398111343384
19.7416610717773
28.1342506408691
27.8481388092041
34.7148017883301
38.9110984802246
36.2407302856445
41.962947845459
39.197208404541
23.2703628540039
24.5101776123047
29.7555465698242
17.6435127258301
7.82036781311035
15.4499950408936
37.2898025512695
56.4592399597168
64.6610870361328
77.2499771118164
96.13330078125
125.316627502441
169.759201049805
233.943450927734
374.900817871094
587.099792480469
779.938659667969
930.623779296875
1050.12280273438
1158.9404296875
1257.55334472656
1261.74963378906
1138.14965820313
940.637634277344
694.582214355469
421.06005859375
146.298095703125
-113.776817321777
-304.994354248047
-408.089691162109
-460.447998046875
-488.486877441406
-508.610015869141
-521.866516113281
-513.092407226563
-492.015594482422
-493.160034179688
-521.771118164063
-559.633178710938
-597.018310546875
-625.438659667969
-633.068298339844
-623.531311035156
-599.688720703125
-554.578552246094
-507.751678466797
-472.27392578125
-443.758178710938
-436.605407714844
-449.385040283203
-452.913757324219
-438.608184814453
-411.523010253906
-372.039703369141
-323.114715576172
-275.715637207031
-235.278625488281
-205.332336425781
-200.086975097656
-201.422164916992
-191.312896728516
-182.920318603516
-165.372161865234
-139.717544555664
-117.400886535645
-84.3073806762695
-53.6935005187988
-33.3796195983887
-13.6379585266113
-3.43333220481873
-0.858333051204681
-4.95925760269165
-2.28888821601868
19.2648086547852
32.8073959350586
43.0120239257813
65.9009017944336
84.5934906005859
98.1360778808594
109.485153198242
118.259223937988
125.411994934082
136.284210205078
149.826797485352
154.309204101563
159.936065673828
166.898101806641
168.424026489258
173.192535400391
178.056427001953
176.053649902344
170.9990234375
171.285125732422
171.952728271484
176.911987304688
184.446243286133
177.007354736328
175.1953125
190.931427001953
198.65641784668
194.936981201172
192.838821411133
195.127716064453
200.086975097656
200.373077392578
192.552719116211
180.631423950195
171.571243286133
175.1953125
184.732345581055
189.882339477539
189.214752197266
187.021240234375
182.634201049805
165.276794433594
157.647171020508
162.797164916992
150.112915039063
142.578659057617
153.164764404297
166.039764404297
174.050872802734
159.459213256836
145.821243286133
154.786056518555
157.933288574219
151.543472290039
151.73420715332
149.731430053711
141.338836669922
140.575881958008
146.488845825195
151.543472290039
157.551803588867
155.167541503906
147.824020385742
145.2490234375
134.186065673828
135.425888061523
159.077728271484
171.475875854492
180.249938964844
196.081420898438
190.16845703125
170.617538452148
166.898101806641
158.886993408203
149.54069519043
157.933288574219
159.554580688477
155.072174072266
154.690689086914
154.881439208984
160.985137939453
166.993469238281
158.028656005859
138.191619873047
127.510147094727
123.027740478516
121.597183227539
123.599960327148
118.068481445313
105.479598999023
87.4546051025391
81.827751159668
77.9175643920898
58.7481307983398
48.1620216369629
37.2898025512695
22.0305480957031
14.8777732849121
8.77407169342041
0.858333051204681
-7.53425693511963
-8.77407169342041
-7.6296272277832
-12.8749961853027
-14.0194396972656
-22.2212886810303
-44.9194297790527
-51.0231323242188
-51.1185035705566
-63.1351661682129
-50.6416511535645
-31.9490642547607
-48.3527641296387
-69.0481262207031
-85.3564529418945
-105.574966430664
-119.68977355957
-127.986999511719
-112.346260070801
-90.6018218994141
-101.283302307129
-113.967559814453
-114.921257019043
-131.706436157227
-142.578659057617
-130.752731323242
-124.362922668457
-130.085144042969
-144.199951171875
-158.314758300781
-157.551803588867
-156.407363891602
-150.971252441406
-137.047180175781
-142.292541503906
-150.589767456055
-145.725875854492
-155.549026489258
-168.80549621582
-165.753646850586
-151.63883972168
-144.104583740234
-160.317535400391
-166.70735168457
-158.219390869141
-162.797164916992
-166.421249389648
-158.886993408203
-149.826797485352
-150.112915039063
-150.780502319336
-146.965698242188
-145.630508422852
-133.995330810547
-117.305519104004
-109.866630554199
-111.774040222168
-123.9814453125
-138.096252441406
-141.911071777344
-142.483291625977
-140.957366943359
-134.090698242188
-132.278656005859
-122.550888061523
-108.531448364258
-110.438850402832
-108.245338439941
-92.8907089233398
-89.1712646484375
-94.8934860229492
-85.9286727905273
-80.3018264770508
-91.4601593017578
-88.9805297851563
-92.2231216430664
-107.387001037598
-93.5583038330078
-86.2147903442383
-89.0758972167969
-72.8629379272461
-81.827751159668
-100.234230041504
-84.7842330932617
-74.9610900878906
-89.1712646484375
-92.2231216430664
-78.6805267333984
-70.0018310546875
-76.296272277832
-91.7462692260742
-96.6101531982422
-81.5416412353516
-70.9555358886719
-74.198127746582
-57.7944259643555
-35.4777679443359
-43.3935050964355
-46.6360969543457
-36.0499877929688
-38.5296173095703
-41.5814666748047
-45.2055397033691
-53.3120193481445
-51.9768333435059
-43.2027626037598
-46.2546157836914
-52.0722045898438
-41.962947845459
-40.4370231628418
-31.7583236694336
-10.0138854980469
-13.5425882339478
-20.9814739227295
-17.0712909698486
1.71666610240936
12.4935140609741
1.33518481254578
9.44166374206543
9.63240432739258
-0.762962698936462
22.125919342041
32.8073959350586
0.9537034034729
-7.82036781311035
17.9296245574951
24.891658782959
39.9601707458496
75.3425674438477
71.0509033203125
73.5305328369141
126.747184753418
169.854568481445
192.45735168457
215.72770690918
264.461944580078
371.848968505859
524.155395507813
707.743286132813
866.821044921875
946.64599609375
1022.46539306641
1091.32275390625
1058.32470703125
927.953430175781
725.100708007813
488.010040283203
268.944366455078
45.6823921203613
-176.149017333984
-320.253601074219
-403.321166992188
-470.17578125
-480.189666748047
-454.821136474609
-434.602630615234
-387.012847900391
-347.720245361328
-360.118408203125
-382.911926269531
-420.106353759766
-477.996154785156
-519.768371582031
-523.869262695313
-500.217437744141
-485.530395507813
-456.537811279297
-392.258209228516
-334.654510498047
-317.201751708984
-331.316558837891
-339.89990234375
-348.769317626953
-350.485992431641
-315.580444335938
-286.397125244141
-262.173065185547
-213.152709960938
-179.3916015625
-161.748092651367
-143.436996459961
-138.85920715332
-134.186065673828
-128.177734375
-121.787925720215
-108.912925720215
-91.3647842407227
-55.219425201416
-12.302773475647
12.8749961853027
19.074068069458
7.91573810577393
-4.67314672470093
-3.33796191215515
7.72499752044678
21.3629570007324
28.7064723968506
45.6823921203613
70.9555358886719
80.4925689697266
90.3157119750977
100.043487548828
100.52033996582
104.907371520996
125.507369995117
144.390701293945
142.483291625977
142.864776611328
157.265686035156
172.906433105469
165.372161865234
144.104583740234
148.682357788086
152.497177124023
125.030517578125
109.389778137207
130.561996459961
145.535140991211
151.066619873047
175.386047363281
178.819381713867
153.164764404297
156.02587890625
171.571243286133
166.230499267578
168.80549621582
173.764755249023
149.349945068359
137.428665161133
144.962921142578
119.212921142578
103.476821899414
124.458290100098
126.270332336426
122.93236541748
144.581436157227
143.913848876953
129.894409179688
137.428665161133
112.060150146484
76.0101623535156
94.416633605957
118.259223937988
124.553665161133
145.630508422852
153.450881958008
142.960144042969
133.613845825195
121.597183227539
120.071258544922
114.635147094727
108.626815795898
122.550888061523
158.886993408203
180.536056518555
156.407363891602
142.864776611328
127.128662109375
90.220344543457
97.7546005249023
109.294410705566
86.8823776245117
90.7925643920898
109.580520629883
113.20458984375
112.918479919434
111.774040222168
122.264778137207
140.671249389648
162.987915039063
163.083282470703
137.905517578125
133.518478393555
135.521255493164
129.989776611328
124.93514251709
119.59440612793
101.855522155762
64.6610870361328
52.8351669311523
54.4564628601074
55.0286865234375
73.1490478515625
51.4999847412109
25.2731399536133
46.7314682006836
45.6823921203613
43.679615020752
27.943510055542
-34.6194343566895
-23.7472152709961
14.8777732849121
-9.63240432739258
-14.1148099899292
-12.7796258926392
-21.0768451690674
6.77129411697388
-8.29721927642822
-48.9249839782715
-30.8999900817871
-31.2814712524414
-57.4129447937012
-38.5296173095703
-11.4444408416748
-14.2101802825928
-34.810173034668
-57.4129447937012
-75.3425674438477
-94.3212661743164
-97.9453353881836
-89.6481170654297
-113.586074829102
-141.338836669922
-120.929588317871
-97.0870056152344
-99.0897827148438
-91.269416809082
-83.6397857666016
-89.1712646484375
-82.6860809326172
-77.7268295288086
-76.6777496337891
-62.6583137512207
-75.247200012207
-107.005523681641
-96.4194107055664
-72.0999755859375
-75.6286773681641
-78.7759017944336
-88.4083023071289
-121.024963378906
-118.259223937988
-93.9397811889648
-120.071258544922
-135.425888061523
-93.1768188476563
-63.039794921875
-81.9231185913086
-96.4194107055664
-81.827751159668
-97.7546005249023
-122.550888061523
-108.626815795898
-83.0675659179688
-71.8138656616211
-99.6620025634766
-124.172180175781
-98.899040222168
-78.012939453125
-77.4407196044922
-78.8712692260742
-97.5638580322266
-108.149963378906
-86.9777526855469
-76.8684921264648
-77.6314544677734
-68.5712738037109
-78.2036819458008
-85.0703430175781
-64.2796096801758
-53.9796104431152
-62.4675712585449
-46.4453544616699
-29.3740653991699
-63.2305335998535
-79.6342315673828
-76.296272277832
-103.476821899414
-89.0758972167969
-63.5166473388672
-82.1138610839844
-97.3731155395508
-109.580520629883
-109.771263122559
-96.8962631225586
-85.2610855102539
-76.4870147705078
-88.5990447998047
-88.8851547241211
-69.9064559936523
-68.5712738037109
-70.8601608276367
-64.0888671875
-66.854606628418
-71.3370132446289
-38.2435073852539
-26.3222141265869
-53.6935005187988
-39.197208404541
-28.0388793945313
-46.4453544616699
-42.3444290161133
-29.1833248138428
-28.2296199798584
-36.7175827026367
-44.251838684082
-39.2925796508789
-36.3360977172852
-44.0610961914063
-35.7638778686523
-31.1861019134521
-45.4916534423828
-27.5620288848877
-6.29444265365601
-23.0796222686768
-21.0768451690674
-9.72777462005615
-6.86666440963745
17.0712909698486
15.9268465042114
-9.06018257141113
-15.35462474823
-11.4444408416748
-10.0138854980469
-21.2675857543945
-16.6898097991943
12.3981437683105
24.7962875366211
38.7203598022461
85.7379379272461
111.392555236816
130.180511474609
193.601791381836
249.107330322266
291.547119140625
376.045257568359
516.335021972656
655.671081542969
741.695129394531
818.372863769531
892.857116699219
904.396911621094
819.517333984375
634.403503417969
406.182281494141
181.775863647461
-71.0509033203125
-316.438781738281
-461.115600585938
-539.414611816406
-598.830383300781
-610.847045898438
-583.284973144531
-516.048889160156
-423.444305419922
-333.128601074219
-273.903625488281
-272.473052978516
-284.871215820313
-323.305450439453
-369.750793457031
-364.123962402344
-341.235076904297
-311.002685546875
-261.028625488281
-201.612899780273
-170.9990234375
-177.865676879883
-173.287902832031
-171.094390869141
-187.784194946289
-195.890670776367
-169.663833618164
-130.848098754883
-108.912925720215
-75.7240524291992
-41.6768379211426
-28.1342506408691
-33.5703582763672
-33.1888771057129
-23.2703628540039
-36.6222114562988
-38.6249885559082
-29.4694347381592
-21.9351787567139
9.72777462005615
33.6657295227051
36.9083213806152
25.0823993682861
16.022216796875
29.5648059844971
38.148136138916
54.170352935791
53.121280670166
21.7444381713867
44.9194297790527
80.2064590454102
92.7953414916992
115.49348449707
96.5147857666016
88.6944122314453
110.915702819824
96.3240432739258
95.1795959472656
108.245338439941
111.297187805176
133.613845825195
144.104583740234
123.790702819824
116.637924194336
118.068481445313
116.161071777344
127.986999511719
110.629592895508
94.702751159668
118.73607635498
111.392555236816
109.00830078125
132.660140991211
115.111999511719
108.149963378906
121.978668212891
113.776817321777
113.109222412109
114.635147094727
121.024963378906
127.510147094727
104.239784240723
95.751823425293
96.6101531982422
78.394416809082
89.2666397094727
107.005523681641
112.060150146484
114.635147094727
89.3620071411133
81.9231185913086
103.095336914063
92.2231216430664
80.2064590454102
101.474044799805
106.910148620605
108.912925720215
115.970336914063
89.5527496337891
74.198127746582
62.2768325805664
32.9981384277344
29.278694152832
25.4638805389404
14.4009208679199
12.0166625976563
3.8148136138916
6.29444265365601
8.29721927642822
-8.0111083984375
-4.10092449188232
8.48795986175537
-7.15277528762817
-10.8722190856934
-10.4907369613647
-24.7962875366211
-12.4935140609741
5.24536848068237
-8.0111083984375
-32.5212860107422
-38.148136138916
-15.5453653335571
7.72499752044678
7.91573810577393
0
-12.588885307312
-18.2157344818115
3.24259161949158
15.4499950408936
6.19907188415527
-0.0953703373670578
-19.360179901123
-36.3360977172852
-22.6981410980225
-4.1962947845459
-7.6296272277832
-7.53425693511963
14.687032699585
16.9759197235107
2.95648050308228
6.19907188415527
7.15277528762817
-6.29444265365601
-15.8314762115479
0
15.4499950408936
2.8611102104187
2.95648050308228
9.15555286407471
-8.10647869110107
-25.3685111999512
-24.0333251953125
-29.5648059844971
-53.8842430114746
-45.7777633666992
-25.4638805389404
-29.6601753234863
-11.0629596710205
6.29444265365601
-17.1666603088379
-32.6166572570801
-23.6518440246582
-19.074068069458
-24.6055469512939
-35.6685066223145
-24.4148063659668
8.3925895690918
2.95648050308228
-15.1638841629028
-13.1611070632935
-22.6981410980225
-26.1314735412598
-23.3657341003418
-25.5592517852783
-34.3333206176758
-45.0148010253906
-22.0305480957031
0
-15.35462474823
-21.0768451690674
-20.0277709960938
-32.6166572570801
-28.7064723968506
-27.8481388092041
-27.657398223877
-14.3055505752563
-36.1453590393066
-48.5435028076172
-35.382396697998
-43.2027626037598
-41.5814666748047
-51.2138710021973
-63.4212760925293
-40.1509132385254
-43.5842437744141
-60.1786842346191
-31.5675830841064
-15.6407356262207
-34.810173034668
-14.1148099899292
17.9296245574951
1.14444410800934
-6.1037015914917
-5.24536848068237
-18.8833274841309
-7.72499752044678
5.91296100616455
4.1962947845459
2.67036962509155
11.635181427002
26.3222141265869
22.6027698516846
13.6379585266113
0.190740674734116
-22.6027698516846
-14.7824029922485
5.43610954284668
7.6296272277832
-3.147221326828
-33.5703582763672
-53.5027618408203
-53.6935005187988
-37.5759124755859
-21.839807510376
-41.2953567504883
-49.4018363952637
-39.197208404541
-33.9518394470215
-39.197208404541
-65.805534362793
-62.4675712585449
-45.7777633666992
-38.7203598022461
-30.5185089111328
-36.431468963623
-9.537034034729
9.15555286407471
-22.5074005126953
-39.1018409729004
-49.6879463195801
-45.4916534423828
-11.635181427002
-17.738883972168
-42.5351715087891
-28.1342506408691
-18.2157344818115
-33.4749908447266
-29.0879535675049
-19.1694374084473
-18.9786968231201
2.38425850868225
-3.5287024974823
-23.5564746856689
-7.82036781311035
-9.34629344940186
-21.9351787567139
-20.3138828277588
-18.9786968231201
-10.3953666687012
8.48795986175537
6.1037015914917
-15.7361059188843
-7.82036781311035
-0.667592406272888
-13.6379585266113
-15.35462474823
-12.588885307312
-5.62685012817383
10.1092557907104
28.1342506408691
39.1018409729004
61.0370178222656
91.9370040893555
128.177734375
185.209197998047
243.861953735352
324.449890136719
452.055419921875
624.580383300781
776.505310058594
856.997863769531
948.076538085938
1024.65893554688
1016.93395996094
920.514526367188
714.133117675781
472.655395507813
243.385101318359
-7.0574049949646
-244.338806152344
-415.910064697266
-513.855407714844
-564.115539550781
-587.57666015625
-578.421081542969
-542.561889648438
-497.165588378906
-443.853576660156
-413.048950195313
-445.474853515625
-504.222991943359
-530.163696289063
-535.027587890625
-561.635925292969
-571.268310546875
-526.444274902344
-483.622985839844
-448.717437744141
-402.844329833984
-382.244323730469
-386.535980224609
-386.440612792969
-390.064697265625
-396.645233154297
-380.623016357422
-353.061004638672
-310.048980712891
-250.156402587891
-217.062896728516
-208.098083496094
-190.549942016602
-190.549942016602
-200.9453125
-170.712905883789
-149.349945068359
-150.017547607422
-128.177734375
-108.245338439941
-82.5907135009766
-39.2925796508789
-20.5999927520752
-31.2814712524414
-42.8212814331055
-54.0749816894531
-56.7453536987305
-20.8861045837402
8.10647869110107
3.33796191215515
25.9407329559326
59.8925743103027
63.9934997558594
64.1842422485352
66.1870193481445
73.8166427612305
91.3647842407227
86.1194152832031
76.0101623535156
91.269416809082
106.910148620605
105.574966430664
107.577743530273
136.76106262207
150.399032592773
128.749954223633
124.649032592773
138.286987304688
146.107360839844
157.647171020508
166.61198425293
157.170318603516
142.387924194336
142.864776611328
166.61198425293
175.672164916992
157.742538452148
166.898101806641
170.045318603516
146.774948120117
168.90087890625
188.356414794922
166.61198425293
180.917541503906
194.650863647461
163.464767456055
152.020324707031
160.794387817383
158.696243286133
144.962921142578
134.56755065918
145.821243286133
153.164764404297
146.965698242188
149.254577636719
155.358276367188
153.069396972656
153.83235168457
164.036987304688
161.175872802734
153.641616821289
152.497177124023
133.327728271484
129.894409179688
149.063842773438
135.044403076172
127.605514526367
152.115692138672
154.213836669922
145.630508422852
153.260131835938
150.494400024414
152.497177124023
169.282348632813
159.268463134766
153.641616821289
172.238830566406
181.108276367188
183.874008178711
180.059204101563
175.576797485352
171.285125732422
160.126800537109
169.091613769531
189.977722167969
190.549942016602
175.1953125
175.862899780273
184.446243286133
175.1953125
162.987915039063
136.951812744141
111.201812744141
115.49348449707
121.597183227539
125.698104858398
117.686996459961
104.812004089355
113.395332336426
105.193481445313
76.5823822021484
60.9416465759277
52.0722045898438
34.2379531860352
17.2620315551758
24.6055469512939
30.995361328125
24.5101776123047
29.3740653991699
23.8425846099854
4.95925760269165
-8.3925895690918
-25.0823993682861
-37.4805450439453
-38.2435073852539
-41.962947845459
-47.017578125
-49.9740562438965
-59.8925743103027
-57.6990547180176
-55.5055389404297
-85.4518280029297
-109.294410705566
-99.7573776245117
-99.1851501464844
-114.825889587402
-108.817558288574
-97.3731155395508
-95.6564483642578
-85.5471954345703
-79.6342315673828
-84.0212707519531
-89.9342269897461
-98.6129302978516
-110.152740478516
-117.59162902832
-110.248115539551
-107.768486022949
-123.027740478516
-126.747184753418
-120.643478393555
-127.700881958008
-136.284210205078
-129.226806640625
-124.553665161133
-132.56477355957
-131.897186279297
-121.978668212891
-115.684219360352
-110.724967956543
-108.054595947266
-108.912925720215
-113.681442260742
-123.218475341797
-127.986999511719
-119.880516052246
-105.76570892334
-96.7055282592773
-97.2777481079102
-93.1768188476563
-90.1249694824219
-97.6592254638672
-95.1795959472656
-95.751823425293
-105.574966430664
-98.0407104492188
-86.6916351318359
-89.0758972167969
-95.5610809326172
-99.4712677001953
-101.569412231445
-110.915702819824
-125.030517578125
-134.281433105469
-150.208282470703
-163.464767456055
-164.418472290039
-166.993469238281
-167.565689086914
-159.745315551758
-152.020324707031
-143.627731323242
-129.512924194336
-122.741630554199
-120.548110961914
-118.163848876953
-123.886070251465
-118.73607635498
-103.953666687012
-101.474044799805
-100.52033996582
-94.03515625
-89.6481170654297
-81.16015625
-64.5657196044922
-60.274055480957
-72.0046081542969
-78.6805267333984
-83.1629333496094
-91.8416366577148
-97.9453353881836
-98.5175628662109
-95.9425582885742
-88.7897872924805
-67.4268264770508
-39.9601707458496
-14.3055505752563
19.6462898254395
51.1185035705566
64.4703521728516
62.2768325805664
61.5138702392578
70.0018310546875
71.9092330932617
78.2990493774414
100.043487548828
110.820335388184
100.997192382813
90.9833068847656
85.5471954345703
77.5360870361328
76.296272277832
90.4110794067383
107.577743530273
108.340705871582
105.670333862305
116.256446838379
123.313850402832
138.000885009766
177.29345703125
261.314727783203
418.103576660156
597.209045410156
742.744201660156
851.371032714844
947.313598632813
1051.93481445313
1125.65612792969
1116.78662109375
982.409851074219
735.2099609375
477.710021972656
238.998077392578
-19.8370304107666
-253.780471801758
-415.337829589844
-518.433166503906
-568.597961425781
-602.8359375
-632.400695800781
-612.563720703125
-573.843322753906
-554.101684570313
-545.232238769531
-552.003540039063
-577.753540039063
-618.381286621094
-658.5322265625
-673.982177734375
-667.783142089844
-656.338684082031
-630.207214355469
-576.036865234375
-518.147033691406
-481.524841308594
-463.309112548828
-463.976715087891
-471.034118652344
-459.971160888672
-435.556335449219
-412.667449951172
-375.091552734375
-312.910095214844
-266.655456542969
-251.300842285156
-236.041595458984
-214.869369506836
-203.806411743164
-200.373077392578
-187.87956237793
-165.467544555664
-142.292541503906
-111.487930297852
-78.5851593017578
-64.1842422485352
-60.4647941589355
-52.7397994995117
-49.4018363952637
-44.0610961914063
-23.6518440246582
5.43610954284668
28.6111011505127
40.5323944091797
52.8351669311523
76.296272277832
92.5092315673828
89.3620071411133
93.5583038330078
109.485153198242
119.975891113281
125.984222412109
130.752731323242
139.145324707031
148.491622924805
152.211059570313
154.786056518555
157.933288574219
166.898101806641
183.969390869141
194.55549621582
195.699935913086
205.046234130859
210.196228027344
204.378631591797
210.005493164063
216.490676879883
218.0166015625
225.932342529297
227.362884521484
220.019378662109
213.915664672852
210.673080444336
211.340667724609
209.242523193359
213.248077392578
224.024932861328
222.212890625
220.305480957031
221.545303344727
216.586044311523
218.684188842773
221.163818359375
209.051788330078
200.182342529297
196.081420898438
193.887893676758
200.182342529297
201.517532348633
197.321228027344
194.746231079102
189.977722167969
186.449020385742
178.628646850586
169.949951171875
170.045318603516
166.421249389648
170.045318603516
190.836044311523
203.04345703125
205.523086547852
200.9453125
188.737899780273
182.538833618164
176.721237182617
170.9990234375
170.331420898438
178.437911987305
197.416610717773
208.479568481445
208.670303344727
211.53141784668
215.346221923828
210.959197998047
203.329559326172
198.942535400391
193.792526245117
192.743453979492
195.318450927734
198.75178527832
206.190673828125
205.046234130859
193.887893676758
181.966613769531
167.184204101563
157.265686035156
147.44255065918
128.177734375
123.9814453125
131.324951171875
122.264778137207
112.346260070801
109.294410705566
95.084228515625
80.3018264770508
71.0509033203125
59.8925743103027
49.0203552246094
41.5814666748047
40.6277656555176
38.3388748168945
34.0472106933594
35.0009155273438
23.2703628540039
3.05185079574585
-6.38981294631958
-10.3953666687012
-17.357400894165
-30.0416564941406
-42.8212814331055
-49.8786888122559
-54.0749816894531
-57.7944259643555
-64.6610870361328
-70.6694183349609
-76.4870147705078
-88.4083023071289
-93.2721939086914
-92.986083984375
-100.329597473145
-108.626815795898
-113.299964904785
-114.25366973877
-111.297187805176
-111.774040222168
-113.967559814453
-120.262001037598
-129.894409179688
-133.232360839844
-136.856430053711
-137.905517578125
-131.324951171875
-131.038848876953
-136.474960327148
-142.101806640625
-145.153656005859
-141.529586791992
-139.622177124023
-145.725875854492
-154.213836669922
-154.118469238281
-150.112915039063
-148.873107910156
-141.911071777344
-134.66291809082
-131.324951171875
-133.518478393555
-141.815689086914
-146.965698242188
-150.303649902344
-152.974029541016
-147.919403076172
-142.101806640625
-141.720321655273
-136.474960327148
-123.313850402832
-113.681442260742
-108.340705871582
-101.855522155762
-101.474044799805
-105.479598999023
-106.719413757324
-108.436073303223
-112.155517578125
-114.34903717041
-118.831443786621
-127.986999511719
-138.382369995117
-144.104583740234
-138.668472290039
-133.995330810547
-141.911071777344
-150.780502319336
-148.014770507813
-136.379592895508
-125.411994934082
-129.131439208984
-137.333282470703
-131.038848876953
-127.033294677734
-124.839775085449
-114.635147094727
-111.964782714844
-108.912925720215
-96.3240432739258
-89.9342269897461
-90.7925643920898
-89.0758972167969
-85.6425628662109
-79.8249740600586
-79.9203414916992
-87.3592300415039
-92.8907089233398
-88.5990447998047
-75.0564575195313
-67.903678894043
-64.1842422485352
-59.8925743103027
-60.7509078979492
-57.4129447937012
-47.6851692199707
-49.3064651489258
-58.1759071350098
-50.832389831543
-41.2953567504883
-32.5212860107422
-22.0305480957031
-22.0305480957031
-19.7416610717773
-17.357400894165
-23.2703628540039
-32.9981384277344
-48.9249839782715
-49.4972076416016
-33.9518394470215
-34.5240631103516
-44.8240585327148
-54.4564628601074
-58.3666496276855
-43.3935050964355
-1.9074068069458
114.921257019043
327.02490234375
538.7470703125
698.110900878906
841.5478515625
970.2978515625
1100.00146484375
1223.50610351563
1242.19873046875
1127.08666992188
964.098754882813
783.276611328125
544.850769042969
287.923065185547
62.5629425048828
-124.076812744141
-247.295288085938
-340.662841796875
-432.885986328125
-475.421142578125
-475.898010253906
-490.012817382813
-522.343322753906
-558.011840820313
-589.770202636719
-608.748901367188
-622.768310546875
-638.218322753906
-628.967407226563
-595.778503417969
-569.170166015625
-547.807250976563
-525.204467773438
-506.035034179688
-490.680389404297
-481.143371582031
-463.690582275391
-432.218383789063
-403.98876953125
-379.287841796875
-350.199890136719
-321.874908447266
-294.026763916016
-273.4267578125
-267.036956787109
-255.497146606445
-234.706405639648
-214.392517089844
-195.127716064453
-177.198089599609
-149.349945068359
-115.779594421387
-91.8416366577148
-76.296272277832
-62.6583137512207
-46.5407257080078
-36.1453590393066
-28.4203605651855
-16.022216796875
-2.95648050308228
5.1499981880188
14.8777732849121
38.3388748168945
61.7046089172363
75.1518249511719
88.4083023071289
96.0379333496094
99.5666351318359
107.95922088623
110.534225463867
108.912925720215
117.210144042969
130.752731323242
142.864776611328
150.971252441406
152.687911987305
153.260131835938
156.121246337891
156.693466186523
162.797164916992
178.914764404297
189.310119628906
190.645309448242
185.304565429688
174.623092651367
177.579574584961
189.405502319336
191.026794433594
189.882339477539
193.506423950195
196.367523193359
200.659194946289
207.716598510742
203.711044311523
197.225860595703
201.040679931641
205.427719116211
207.811965942383
209.719375610352
208.765670776367
194.174011230469
181.203643798828
182.824935913086
177.579574584961
168.614761352539
171.952728271484
180.059204101563
184.064758300781
191.980499267578
198.179565429688
192.361968994141
192.552719116211
191.694381713867
174.718460083008
164.323089599609
172.620315551758
182.824935913086
185.399948120117
189.405502319336
197.321228027344
195.413833618164
184.255493164063
183.68327331543
191.503646850586
190.263824462891
188.0703125
196.844375610352
205.904556274414
209.52864074707
217.539749145508
227.458267211914
230.128631591797
227.744369506836
227.744369506836
223.357330322266
215.918441772461
220.877700805664
224.50178527832
213.915664672852
207.23974609375
207.907333374023
201.231414794922
188.547164916992
176.625869750977
164.51383972168
152.020324707031
147.633285522461
146.679580688477
137.142547607422
126.365699768066
115.398109436035
103.76293182373
91.5555267333984
77.7268295288086
72.2907180786133
65.0425720214844
51.5953521728516
50.1647987365723
47.3990592956543
35.6685066223145
25.3685111999512
10.1092557907104
-4.10092449188232
-14.4962921142578
-24.1286964416504
-23.3657341003418
-26.5129547119141
-39.4833221435547
-48.5435028076172
-60.6555366516113
-72.8629379272461
-78.1083068847656
-86.4055252075195
-98.5175628662109
-106.528671264648
-104.335151672363
-97.6592254638672
-100.711082458496
-108.531448364258
-109.580520629883
-113.013854980469
-129.608291625977
-147.919403076172
-152.592544555664
-150.017547607422
-147.633285522461
-144.676803588867
-145.535140991211
-146.774948120117
-146.488845825195
-154.499954223633
-165.467544555664
-173.287902832031
-175.099945068359
-170.140686035156
-169.759201049805
-172.620315551758
-167.756423950195
-166.898101806641
-167.279571533203
-153.450881958008
-143.627731323242
-147.34716796875
-151.257354736328
-158.505508422852
-162.3203125
-155.453659057617
-153.260131835938
-158.219390869141
-157.647171020508
-151.257354736328
-144.104583740234
-136.188842773438
-135.139770507813
-142.960144042969
-143.055511474609
-133.041625976563
-127.891624450684
-132.087921142578
-141.243469238281
-149.445327758789
-148.777725219727
-151.066619873047
-156.788833618164
-154.404586791992
-151.352722167969
-149.159210205078
-145.153656005859
-139.812911987305
-139.812911987305
-142.292541503906
-134.472183227539
-128.082366943359
-131.706436157227
-131.134216308594
-122.455513000488
-118.926811218262
-117.49626159668
-110.724967956543
-111.583297729492
-120.262001037598
-123.599960327148
-111.964782714844
-96.3240432739258
-92.5092315673828
-90.6018218994141
-86.5009002685547
-82.5907135009766
-74.0073852539063
-68.1897964477539
-72.4814605712891
-80.3018264770508
-76.6777496337891
-62.6583137512207
-59.0342407226563
-62.2768325805664
-56.7453536987305
-54.2657241821289
-51.9768333435059
-40.0555419921875
-33.6657295227051
-37.9573936462402
-42.4398002624512
-45.1101722717285
-51.9768333435059
-53.5981292724609
-52.3583183288574
-58.2712783813477
-53.3120193481445
-43.9657249450684
-47.8759117126465
-55.6009063720703
-58.2712783813477
-50.7370223999023
-9.15555286407471
122.455513000488
346.861938476563
566.02294921875
729.773864746094
871.112670898438
997.382995605469
1134.33483886719
1284.73388671875
1349.29956054688
1260.98657226563
1065.09594726563
830.675659179688
575.178527832031
319.395263671875
88.4083023071289
-111.869407653809
-263.126770019531
-378.143402099609
-470.652618408203
-521.961853027344
-542.561889648438
-557.439636230469
-576.990539550781
-600.16552734375
-620.479431152344
-643.368286132813
-665.971069335938
-684.568298339844
-691.148864746094
-667.115539550781
-627.059997558594
-585.7646484375
-548.856323242188
-527.97021484375
-508.133178710938
-484.672058105469
-465.121154785156
-441.469299316406
-420.583190917969
-403.035064697266
-374.328582763672
-335.798980712891
-299.272125244141
-274.571197509766
-258.45361328125
-244.148071289063
-231.654556274414
-214.487899780273
-189.882339477539
-165.849014282227
-143.913848876953
-116.733299255371
-88.0268249511719
-66.9499816894531
-54.3610954284668
-43.1073951721191
-30.1370277404785
-21.2675857543945
-13.6379585266113
2.67036962509155
22.3166599273682
34.5240631103516
46.0638732910156
66.3777542114258
86.5962677001953
96.800895690918
106.337928771973
123.409217834473
129.512924194336
120.929588317871
122.169403076172
136.284210205078
152.783279418945
164.418472290039
168.137908935547
180.440689086914
192.648086547852
190.359191894531
196.367523193359
207.621231079102
205.713821411133
207.621231079102
215.155487060547
210.005493164063
210.482345581055
219.637893676758
210.959197998047
205.427719116211
215.918441772461
220.591598510742
214.201782226563
204.760116577148
200.373077392578
199.324005126953
200.182342529297
205.236968994141
206.476791381836
211.149932861328
217.539749145508
207.049011230469
194.936981201172
191.026794433594
182.824935913086
180.059204101563
186.353637695313
189.882339477539
189.405502319336
191.885116577148
196.65364074707
192.075866699219
185.113830566406
182.729568481445
178.056427001953
176.721237182617
179.773086547852
185.113830566406
194.936981201172
205.618453979492
209.337890625
204.378631591797
200.277709960938
200.659194946289
205.332336425781
205.999938964844
200.277709960938
208.288818359375
220.782333374023
222.403625488281
226.59992980957
224.024932861328
215.060119628906
215.918441772461
218.970306396484
219.637893676758
212.580490112305
201.803634643555
204.474014282227
211.817520141602
216.299926757813
224.215667724609
221.354553222656
209.719375610352
201.803634643555
188.737899780273
178.151794433594
172.620315551758
160.889770507813
153.73698425293
147.156433105469
130.848098754883
119.59440612793
116.828666687012
100.806449890137
76.2009048461914
63.1351661682129
55.6962776184082
49.0203552246094
39.5786895751953
26.7990646362305
18.3111057281494
5.24536848068237
-9.72777462005615
-17.4527721405029
-21.839807510376
-27.657398223877
-39.0064697265625
-49.1157264709473
-57.0314636230469
-65.3286819458008
-71.4323883056641
-81.7323837280273
-91.6508941650391
-94.03515625
-98.8036727905273
-111.297187805176
-124.267555236816
-130.085144042969
-125.984222412109
-125.125885009766
-127.414772033691
-125.030517578125
-132.087921142578
-142.292541503906
-146.298095703125
-153.73698425293
-162.3203125
-172.524948120117
-178.724014282227
-173.669387817383
-171.857345581055
-177.865676879883
-179.58235168457
-174.623092651367
-170.045318603516
-162.3203125
-157.647171020508
-166.898101806641
-169.091613769531
-162.034210205078
-168.424026489258
-181.775863647461
-179.3916015625
-165.181427001953
-165.372161865234
-170.80827331543
-164.990692138672
-161.748092651367
-163.178649902344
-167.088836669922
-165.276794433594
-153.355499267578
-144.962921142578
-140.099029541016
-139.336059570313
-146.679580688477
-148.873107910156
-147.061065673828
-151.63883972168
-155.453659057617
-161.843460083008
-167.565689086914
-163.560134887695
-162.034210205078
-156.693466186523
-150.875885009766
-158.314758300781
-161.175872802734
-154.976806640625
-155.072174072266
-156.121246337891
-147.824020385742
-142.578659057617
-143.532363891602
-135.139770507813
-124.076812744141
-122.074035644531
-123.504592895508
-119.59440612793
-115.398109436035
-116.256446838379
-115.684219360352
-109.675888061523
-98.899040222168
-92.5092315673828
-93.9397811889648
-91.8416366577148
-94.6073760986328
-105.479598999023
-99.6620025634766
-80.2064590454102
-72.0999755859375
-72.2907180786133
-69.7157211303711
-65.6147918701172
-63.4212760925293
-56.8407211303711
-43.7749862670898
-40.913875579834
-47.4944305419922
-46.5407257080078
-44.8240585327148
-52.0722045898438
-58.8434982299805
-65.0425720214844
-76.9638671875
-73.3397903442383
-47.1129493713379
-37.9573936462402
-53.8842430114746
-68.0944213867188
-79.9203414916992
-84.7842330932617
-58.9388694763184
38.3388748168945
237.853622436523
469.412811279297
654.717407226563
810.266418457031
943.784912109375
1078.44775390625
1217.78381347656
1266.61352539063
1179.0634765625
1015.12188720703
826.193237304688
608.84423828125
390.160064697266
184.064758300781
-19.6462898254395
-163.655502319336
-260.742523193359
-361.072113037109
-424.302642822266
-449.385040283203
-477.137817382813
-507.274841308594
-544.850769042969
-590.437744140625
-622.196105957031
-639.934997558594
-650.139587402344
-642.414611816406
-613.135925292969
-578.611877441406
-547.902587890625
-517.4794921875
-496.974853515625
-489.249847412109
-484.290588378906
-471.606323242188
-447.000793457031
-416.57763671875
-383.579498291016
-348.769317626953
-316.820281982422
-289.925842285156
-264.175842285156
-240.237884521484
-224.31103515625
-213.534194946289
-199.324005126953
-176.149017333984
-149.731430053711
-127.510147094727
-107.673110961914
-90.0296020507813
-68.5712738037109
-46.2546157836914
-34.810173034668
-23.9379558563232
-7.82036781311035
6.96203470230103
23.3657341003418
37.2898025512695
48.8296127319336
65.4240493774414
82.876823425293
91.4601593017578
93.0814514160156
102.046264648438
115.016632080078
124.744407653809
132.56477355957
136.188842773438
142.292541503906
148.300872802734
154.404586791992
168.137908935547
174.050872802734
177.198089599609
185.590682983398
187.116607666016
186.735122680664
190.263824462891
189.786972045898
185.78141784668
192.934204101563
207.23974609375
212.485122680664
217.635116577148
227.267517089844
230.223999023438
224.215667724609
223.071228027344
224.692520141602
214.487899780273
204.569381713867
201.994384765625
202.566604614258
210.100860595703
214.201782226563
210.196228027344
206.095306396484
204.283264160156
194.746231079102
184.446243286133
190.836044311523
198.942535400391
199.419387817383
200.373077392578
199.133270263672
198.561050415039
203.997161865234
204.950866699219
195.890670776367
184.732345581055
176.053649902344
168.90087890625
169.663833618164
183.111053466797
192.171234130859
193.029571533203
196.844375610352
193.124938964844
187.307342529297
192.934204101563
190.740676879883
179.963836669922
190.359191894531
209.43327331543
212.008270263672
214.201782226563
223.357330322266
225.741592407227
220.496231079102
218.207336425781
222.689743041992
220.877700805664
214.201782226563
215.346221923828
222.785110473633
222.308258056641
213.057342529297
202.375854492188
187.307342529297
172.715682983398
162.892547607422
155.453659057617
153.546249389648
151.63883972168
144.772171020508
136.951812744141
129.226806640625
122.264778137207
109.294410705566
95.2749710083008
83.3536758422852
66.5684967041016
61.1323890686035
61.0370178222656
46.9222068786621
33.4749908447266
22.8888816833496
8.96481227874756
3.33796191215515
-5.7222204208374
-23.9379558563232
-30.0416564941406
-31.4722118377686
-37.4805450439453
-49.5925750732422
-66.854606628418
-74.1027526855469
-72.8629379272461
-73.8166427612305
-75.1518249511719
-77.5360870361328
-87.9314498901367
-105.479598999023
-114.539779663086
-111.583297729492
-115.207366943359
-123.790702819824
-126.747184753418
-133.899963378906
-135.521255493164
-132.56477355957
-142.006439208984
-143.246246337891
-139.431442260742
-148.491622924805
-152.974029541016
-157.361053466797
-164.990692138672
-162.987915039063
-159.077728271484
-158.886993408203
-164.036987304688
-170.712905883789
-168.042541503906
-161.271240234375
-159.363830566406
-164.323089599609
-171.952728271484
-168.90087890625
-160.508285522461
-155.739761352539
-155.549026489258
-157.456436157227
-155.644393920898
-158.982360839844
-157.742538452148
-146.202728271484
-148.873107910156
-156.693466186523
-157.170318603516
-159.745315551758
-157.647171020508
-155.739761352539
-158.505508422852
-155.644393920898
-155.072174072266
-158.791610717773
-159.936065673828
-160.41291809082
-160.317535400391
-158.505508422852
-160.699020385742
-171.380493164063
-173.001800537109
-162.797164916992
-157.837905883789
-153.355499267578
-152.497177124023
-156.407363891602
-156.598098754883
-156.216613769531
-149.54069519043
-136.474960327148
-131.515701293945
-136.093475341797
-137.619400024414
-131.992553710938
-130.180511474609
-123.886070251465
-107.005523681641
-103.095336914063
-110.724967956543
-112.155517578125
-108.149963378906
-105.86107635498
-98.8036727905273
-83.5444183349609
-75.1518249511719
-72.6721954345703
-71.3370132446289
-67.1407165527344
-55.3147964477539
-49.3064651489258
-43.2027626037598
-35.382396697998
-42.0583190917969
-49.9740562438965
-53.5027618408203
-58.9388694763184
-66.7592391967773
-70.9555358886719
-54.7425765991211
-33.9518394470215
-29.4694347381592
-31.1861019134521
-38.6249885559082
-45.1101722717285
-23.2703628540039
59.1296119689941
237.18603515625
475.039672851563
678.846069335938
836.588623046875
964.670959472656
1078.25708007813
1219.59594726563
1324.5986328125
1291.50512695313
1118.59875488281
881.317321777344
628.681274414063
358.115631103516
106.242561340332
-99.4712677001953
-261.505462646484
-379.955444335938
-477.233184814453
-545.04150390625
-563.257202148438
-566.30908203125
-574.892395019531
-582.712768554688
-600.73779296875
-618.858154296875
-627.822937011719
-643.463684082031
-654.0498046875
-650.139587402344
-634.784973144531
-594.634094238281
-543.610961914063
-508.800750732422
-484.290588378906
-467.505401611328
-463.118377685547
-452.341522216797
-429.166534423828
-404.751708984375
-378.143402099609
-351.535064697266
-325.022125244141
-292.119354248047
-262.554534912109
-236.804550170898
-214.774002075195
-203.901779174805
-188.833267211914
-166.421249389648
-151.448104858398
-134.090698242188
-107.86385345459
-77.1546020507813
-51.2138710021973
-35.6685066223145
-16.30832862854
4.7685170173645
17.357400894165
27.4666576385498
37.099063873291
45.7777633666992
59.0342407226563
70.0018310546875
76.9638671875
87.6453399658203
103.476821899414
117.400886535645
117.305519104004
114.825889587402
114.062927246094
116.256446838379
137.524032592773
159.077728271484
168.996246337891
182.157348632813
186.735122680664
185.87678527832
191.980499267578
197.893447875977
200.182342529297
198.847152709961
199.228637695313
207.907333374023
219.733261108398
225.741592407227
224.692520141602
228.888809204102
235.564743041992
227.553634643555
215.441604614258
208.098083496094
193.411056518555
181.394393920898
187.784194946289
199.610122680664
196.844375610352
189.977722167969
197.225860595703
210.768447875977
216.681411743164
211.340667724609
201.994384765625
199.133270263672
196.272155761719
191.312896728516
189.786972045898
185.590682983398
183.77864074707
185.97216796875
186.162902832031
189.882339477539
188.0703125
185.590682983398
192.361968994141
190.836044311523
187.593460083008
186.639755249023
180.822158813477
189.119384765625
200.373077392578
197.511978149414
202.280487060547
209.43327331543
198.179565429688
189.214752197266
189.691604614258
188.451797485352
193.220306396484
205.523086547852
220.210113525391
229.842514038086
234.324920654297
228.125854492188
207.43049621582
200.086975097656
201.899002075195
190.16845703125
178.247161865234
179.773086547852
181.966613769531
170.522171020508
165.658279418945
169.568466186523
161.461990356445
154.023101806641
149.349945068359
139.812911987305
134.66291809082
129.799026489258
113.967559814453
97.0870056152344
86.4055252075195
74.1027526855469
63.039794921875
55.3147964477539
50.5462799072266
43.7749862670898
25.9407329559326
6.48518323898315
-3.62407302856445
-8.3925895690918
-18.0249938964844
-31.3768424987793
-35.6685066223145
-40.6277656555176
-50.9277610778809
-56.1731300354004
-64.4703521728516
-70.6694183349609
-69.0481262207031
-67.1407165527344
-64.0888671875
-68.3805313110352
-78.6805267333984
-83.3536758422852
-93.5583038330078
-104.812004089355
-94.7981185913086
-86.2147903442383
-100.138854980469
-117.877738952637
-131.706436157227
-143.055511474609
-145.344390869141
-140.099029541016
-132.374038696289
-128.177734375
-136.570327758789
-144.772171020508
-140.480514526367
-138.382369995117
-146.393478393555
-155.358276367188
-161.557357788086
-164.036987304688
-159.840682983398
-156.311981201172
-149.922180175781
-143.818466186523
-148.968475341797
-152.306427001953
-155.930511474609
-163.178649902344
-160.508285522461
-157.361053466797
-160.508285522461
-162.224945068359
-158.505508422852
-152.211059570313
-148.968475341797
-137.428665161133
-119.403663635254
-117.114776611328
-128.749954223633
-133.518478393555
-130.46662902832
-131.134216308594
-132.850875854492
-129.036071777344
-124.172180175781
-120.73885345459
-122.741630554199
-129.703659057617
-127.033294677734
-119.59440612793
-120.548110961914
-132.660140991211
-139.908294677734
-131.038848876953
-133.423110961914
-142.674026489258
-138.286987304688
-132.374038696289
-131.801803588867
-129.036071777344
-122.074035644531
-121.69255065918
-127.891624450684
-131.611068725586
-124.458290100098
-107.387001037598
-100.997192382813
-100.711082458496
-93.0814514160156
-86.8823776245117
-82.4953460693359
-78.2990493774414
-76.3916397094727
-76.296272277832
-73.2444229125977
-69.4296035766602
-73.8166427612305
-76.5823822021484
-68.8573837280273
-62.0860900878906
-59.2249794006348
-57.3175735473633
-62.0860900878906
-62.7536849975586
-53.9796104431152
-52.2629470825195
-51.9768333435059
-47.5897979736328
-54.9333152770996
-66.7592391967773
-55.1240577697754
-34.5240631103516
-27.2759170532227
-22.8888816833496
-17.4527721405029
-2.09814739227295
29.5648059844971
75.6286773681641
178.247161865234
367.366546630859
582.331298828125
757.908081054688
877.407104492188
978.785827636719
1098.85705566406
1168.85888671875
1134.52551269531
1010.54412841797
808.072875976563
580.99609375
353.251739501953
103.095336914063
-129.894409179688
-283.631378173828
-363.647094726563
-407.517456054688
-446.428558349609
-486.579467773438
-496.211883544922
-483.146148681641
-486.007263183594
-510.326690673828
-539.033142089844
-555.341491699219
-569.837768554688
-588.339599609375
-603.122009277344
-603.503540039063
-569.265563964844
-510.898895263672
-462.450775146484
-433.362823486328
-421.536895751953
-421.918395996094
-421.346160888672
-420.678558349609
-416.482269287109
-393.498016357422
-354.110076904297
-308.427673339844
-266.369354248047
-232.417510986328
-213.62956237793
-206.286041259766
-192.934204101563
-184.827713012695
-181.108276367188
-158.982360839844
-133.995330810547
-108.531448364258
-75.7240524291992
-51.4999847412109
-31.9490642547607
-13.8286991119385
-7.53425693511963
-7.43888664245605
-0.572222054004669
9.82314491271973
17.1666603088379
29.7555465698242
48.9249839782715
71.0509033203125
91.8416366577148
100.901817321777
105.479598999023
107.673110961914
102.809226989746
102.999969482422
111.297187805176
120.73885345459
131.706436157227
137.905517578125
147.919403076172
167.661056518555
176.530502319336
175.767532348633
176.435134887695
173.383270263672
170.903656005859
172.334197998047
179.677719116211
189.596237182617
195.127716064453
202.85270690918
203.138824462891
194.36474609375
196.55827331543
199.705490112305
195.413833618164
194.078643798828
194.269378662109
188.833267211914
182.824935913086
186.067535400391
189.691604614258
186.830490112305
189.500869750977
192.361968994141
187.974945068359
184.636978149414
177.961059570313
170.522171020508
170.426803588867
169.854568481445
172.906433105469
184.064758300781
194.269378662109
202.85270690918
204.855484008789
197.321228027344
191.312896728516
190.645309448242
187.593460083008
180.536056518555
183.206420898438
191.885116577148
193.029571533203
192.934204101563
198.75178527832
203.424942016602
200.182342529297
193.124938964844
189.405502319336
189.500869750977
186.925872802734
183.969390869141
191.312896728516
195.604568481445
191.122161865234
190.931427001953
183.492538452148
174.527725219727
172.524948120117
158.696243286133
150.971252441406
156.02587890625
151.257354736328
149.54069519043
155.167541503906
147.156433105469
134.949035644531
130.27587890625
117.782371520996
98.1360778808594
89.9342269897461
87.1684875488281
78.7759017944336
75.3425674438477
72.8629379272461
64.1842422485352
56.1731300354004
43.5842437744141
31.0907306671143
26.7990646362305
29.0879535675049
34.4286918640137
28.8018417358398
15.4499950408936
12.4935140609741
8.48795986175537
-8.20184898376465
-19.074068069458
-23.2703628540039
-34.9055442810059
-44.7286911010742
-41.0092468261719
-38.148136138916
-40.0555419921875
-36.7175827026367
-38.3388748168945
-44.7286911010742
-50.832389831543
-63.8981285095215
-77.8221969604492
-89.8388595581055
-100.234230041504
-99.948112487793
-93.4629364013672
-91.6508941650391
-88.1221923828125
-86.6916351318359
-96.3240432739258
-107.86385345459
-114.635147094727
-120.071258544922
-120.73885345459
-110.724967956543
-103.76293182373
-101.474044799805
-95.3703384399414
-92.2231216430664
-90.3157119750977
-96.8962631225586
-112.155517578125
-112.060150146484
-107.95922088623
-116.161071777344
-112.537002563477
-103.476821899414
-105.479598999023
-99.1851501464844
-86.7870101928711
-91.6508941650391
-107.95922088623
-112.727745056152
-108.722190856934
-107.387001037598
-107.577743530273
-108.912925720215
-108.531448364258
-105.193481445313
-98.9944152832031
-89.5527496337891
-82.1138610839844
-80.2064590454102
-81.9231185913086
-86.5962677001953
-96.2286758422852
-103.76293182373
-103.572189331055
-104.239784240723
-110.820335388184
-119.68977355957
-126.174957275391
-124.93514251709
-123.695327758789
-127.510147094727
-133.804580688477
-135.330505371094
-121.69255065918
-110.629592895508
-120.262001037598
-133.327728271484
-130.46662902832
-117.49626159668
-109.485153198242
-109.294410705566
-104.525894165039
-100.997192382813
-108.626815795898
-109.771263122559
-107.95922088623
-111.392555236816
-105.002746582031
-99.0897827148438
-94.416633605957
-79.8249740600586
-72.7675704956055
-79.6342315673828
-87.9314498901367
-90.6971969604492
-83.8305282592773
-77.9175643920898
-72.5768280029297
-63.4212760925293
-59.6064605712891
-57.2222023010254
-49.3064651489258
-41.5814666748047
-49.8786888122559
-63.8027572631836
-60.9416465759277
-51.9768333435059
-50.5462799072266
-47.017578125
-35.9546165466309
-28.8018417358398
-30.5185089111328
-35.0962867736816
-28.4203605651855
-2.28888821601868
54.0749816894531
181.299011230469
389.397094726563
604.266479492188
773.167358398438
910.691345214844
1014.45428466797
1107.91723632813
1201.95239257813
1207.86535644531
1074.53759765625
861.957153320313
624.294250488281
366.031372070313
111.297187805176
-106.814781188965
-268.086029052734
-368.415618896484
-456.251708984375
-536.36279296875
-564.306274414063
-560.109985351563
-557.058166503906
-563.066467285156
-587.767395019531
-616.092407226563
-631.447021484375
-648.804443359375
-664.54052734375
-656.910888671875
-636.501647949219
-613.708129882813
-581.377563476563
-535.313720703125
-490.298919677734
-463.59521484375
-449.575775146484
-438.894317626953
-431.741516113281
-420.392456054688
-396.835998535156
-361.835083007813
-321.970275878906
-284.680450439453
-256.35546875
-238.807327270508
-221.640670776367
-196.462905883789
-178.628646850586
-172.811050415039
-158.219390869141
-138.95458984375
-124.553665161133
-98.0407104492188
-68.8573837280273
-54.2657241821289
-40.2462844848633
-21.7444381713867
-6.19907188415527
3.33796191215515
1.52592539787292
-2.1935179233551
14.1148099899292
46.1592445373535
72.8629379272461
88.9805297851563
100.615707397461
114.062927246094
112.537002563477
94.2258987426758
94.03515625
111.011077880859
129.322174072266
155.644393920898
184.350860595703
195.890670776367
186.830490112305
173.669387817383
172.620315551758
183.397171020508
188.165679931641
185.304565429688
183.111053466797
179.48698425293
169.663833618164
163.274017333984
172.715682983398
183.874008178711
192.171234130859
198.65641784668
192.934204101563
192.45735168457
205.523086547852
214.297149658203
217.730484008789
223.929565429688
224.692520141602
203.711044311523
175.862899780273
170.712905883789
170.712905883789
160.22216796875
167.374938964844
187.688827514648
201.231414794922
207.23974609375
205.713821411133
211.53141784668
231.463821411133
247.676773071289
242.526779174805
219.733261108398
190.931427001953
168.233276367188
160.317535400391
156.788833618164
163.941619873047
189.977722167969
218.493453979492
233.275848388672
230.986968994141
235.946228027344
250.347137451172
243.194366455078
227.553634643555
207.23974609375
172.524948120117
163.750869750977
189.500869750977
215.82307434082
237.472152709961
241.191589355469
225.932342529297
226.981414794922
241.954559326172
251.396209716797
243.957336425781
223.452713012695
205.809188842773
199.896224975586
210.959197998047
208.670303344727
199.419387817383
212.199005126953
191.503646850586
148.205505371094
148.968475341797
152.592544555664
140.194396972656
126.07958984375
90.5064544677734
73.6259002685547
104.716636657715
122.264778137207
85.8333053588867
47.8759117126465
35.8592491149902
33.3796195983887
41.2953567504883
42.4398002624512
25.8453617095947
6.00833129882813
-4.86388731002808
-11.8259220123291
-24.2240657806396
-32.7120246887207
-46.4453544616699
-69.2388687133789
-73.2444229125977
-71.7184982299805
-87.0731201171875
-88.8851547241211
-91.0786743164063
-118.73607635498
-133.613845825195
-139.049957275391
-150.971252441406
-150.208282470703
-139.145324707031
-139.526809692383
-150.875885009766
-156.407363891602
-156.121246337891
-151.161987304688
-150.875885009766
-162.892547607422
-171.761978149414
-178.247161865234
-176.244384765625
-161.748092651367
-159.936065673828
-164.895324707031
-166.70735168457
-171.189758300781
-173.669387817383
-180.726791381836
-188.737899780273
-193.697158813477
-204.092529296875
-202.566604614258
-187.498092651367
-174.623092651367
-168.614761352539
-173.478652954102
-175.576797485352
-165.753646850586
-157.456436157227
-156.121246337891
-148.586990356445
-134.949035644531
-142.483291625977
-153.73698425293
-143.627731323242
-130.848098754883
-125.888847351074
-126.556442260742
-120.262001037598
-108.436073303223
-110.724967956543
-112.823112487793
-104.335151672363
-99.3758926391602
-99.2805252075195
-96.3240432739258
-85.9286727905273
-79.5388641357422
-91.1740417480469
-106.814781188965
-109.866630554199
-121.501815795898
-141.529586791992
-143.055511474609
-128.559219360352
-105.288856506348
-84.5934906005859
-81.9231185913086
-90.220344543457
-91.4601593017578
-76.7731246948242
-63.7073860168457
-65.9009017944336
-77.4407196044922
-90.220344543457
-96.0379333496094
-93.4629364013672
-86.4055252075195
-76.3916397094727
-66.3777542114258
-63.039794921875
-54.2657241821289
-38.9110984802246
-38.4342460632324
-41.8675804138184
-37.6712837219238
-32.9027671813965
-19.6462898254395
-8.0111083984375
-3.71944332122803
2.38425850868225
2.67036962509155
-0.858333051204681
0.47685170173645
5.43610954284668
9.25092315673828
18.1203651428223
28.5157318115234
28.1342506408691
26.226842880249
22.4120292663574
14.0194396972656
10.7768487930298
0.0953703373670578
-15.2592544555664
-15.8314762115479
-14.2101802825928
-19.2648086547852
-20.7907333374023
-16.022216796875
0.286111027002335
33.761100769043
101.092559814453
250.06103515625
468.840576171875
673.600708007813
813.795104980469
911.454345703125
1036.96166992188
1157.509765625
1186.21630859375
1119.45703125
949.507080078125
719.283081054688
500.980407714844
265.797149658203
0.47685170173645
-204.474014282227
-320.253601074219
-389.587829589844
-432.123016357422
-473.990600585938
-501.266510009766
-500.408172607422
-511.089660644531
-544.660034179688
-581.2822265625
-609.034973144531
-632.400695800781
-648.899780273438
-655.671081542969
-648.613708496094
-613.803527832031
-564.592407226563
-523.20166015625
-488.963745117188
-466.265594482422
-461.115600585938
-458.254486083984
-448.717437744141
-436.223937988281
-410.855438232422
-375.854522705078
-340.186004638672
-300.130462646484
-271.042510986328
-252.254547119141
-230.319366455078
-222.212890625
-227.267517089844
-216.776779174805
-186.258270263672
-158.505508422852
-140.766616821289
-124.172180175781
-102.713859558105
-81.9231185913086
-70.4786834716797
-62.5629425048828
-50.832389831543
-41.1999855041504
-30.5185089111328
-11.5398111343384
8.86944198608398
27.4666576385498
45.6823921203613
64.0888671875
79.06201171875
80.6833038330078
77.6314544677734
79.5388641357422
82.4953460693359
95.084228515625
110.629592895508
120.262001037598
135.616622924805
146.488845825195
149.826797485352
162.224945068359
174.909210205078
178.819381713867
177.579574584961
178.628646850586
183.301788330078
186.925872802734
192.838821411133
196.939758300781
195.986053466797
192.934204101563
188.547164916992
189.500869750977
191.122161865234
183.969390869141
178.533279418945
180.726791381836
180.345306396484
179.773086547852
187.211975097656
189.405502319336
187.307342529297
193.315673828125
191.599014282227
180.059204101563
174.527725219727
176.053649902344
180.536056518555
181.108276367188
183.206420898438
195.699935913086
205.904556274414
202.089752197266
194.841598510742
193.124938964844
184.541610717773
173.574020385742
177.29345703125
186.544387817383
185.590682983398
187.021240234375
198.65641784668
203.520309448242
202.85270690918
209.624008178711
211.149932861328
204.760116577148
201.422164916992
190.645309448242
184.827713012695
191.408279418945
195.699935913086
199.800857543945
199.800857543945
194.269378662109
192.552719116211
194.078643798828
188.261047363281
172.238830566406
165.658279418945
169.473098754883
171.857345581055
173.09716796875
169.759201049805
170.045318603516
170.712905883789
161.557357788086
152.020324707031
139.622177124023
124.362922668457
114.921257019043
109.199035644531
110.915702819824
113.776817321777
106.528671264648
98.1360778808594
88.7897872924805
72.6721954345703
55.1240577697754
42.3444290161133
37.3851737976074
39.3879508972168
41.2953567504883
36.0499877929688
28.3249912261963
22.4120292663574
12.6842555999756
5.53147983551025
-1.9074068069458
-20.9814739227295
-32.3305435180664
-27.8481388092041
-32.4259147644043
-44.3472061157227
-47.1129493713379
-45.1101722717285
-48.3527641296387
-60.9416465759277
-72.0046081542969
-75.0564575195313
-76.0101623535156
-80.778678894043
-83.1629333496094
-80.4925689697266
-85.0703430175781
-92.7953414916992
-90.9833068847656
-93.8444137573242
-102.809226989746
-105.002746582031
-105.384223937988
-107.577743530273
-111.011077880859
-115.302742004395
-116.733299255371
-115.779594421387
-116.161071777344
-118.068481445313
-122.169403076172
-129.989776611328
-132.46940612793
-126.651809692383
-129.512924194336
-139.240692138672
-134.090698242188
-119.212921142578
-116.161071777344
-122.074035644531
-124.458290100098
-120.071258544922
-108.817558288574
-102.713859558105
-103.953666687012
-101.092559814453
-97.5638580322266
-95.751823425293
-95.1795959472656
-100.52033996582
-106.433296203613
-112.823112487793
-123.313850402832
-127.319404602051
-124.744407653809
-125.316627502441
-119.785148620605
-111.964782714844
-113.872184753418
-112.918479919434
-109.580520629883
-111.774040222168
-112.727745056152
-113.872184753418
-113.299964904785
