Value(μV)
726.071120946431
994.837722654089
1039.8382007684
889.583275684213
673.787103150231
498.05726297865
371.343670733778
242.678327526917
85.1237553504046
-70.995712696996
-180.10290306775
-236.109705898079
-274.469302688358
-327.51823382409
-392.13967679192
-444.811315972496
-477.303711910664
-505.501052750913
-543.889252061372
-582.845116916177
-599.100830649746
-584.857547965703
-557.65488320251
-539.276357531519
-531.459557559617
-518.46127792318
-491.049040255273
-460.086550843591
-443.053210907975
-441.95089047678
-440.863329339738
-425.263309053628
-398.057578311058
-373.231560591722
-357.159591264548
-341.988559169821
-318.141998998389
-288.16711712519
-263.791326867418
-250.872964744091
-242.249933223726
-227.201307644494
-204.464778241765
-182.084049439561
-165.436882572008
-150.030170309536
-128.446540824624
-101.656481789419
-79.312686366027
-68.431418631645
-65.0634386511334
-59.3949149372487
-47.2638497223057
-33.3672569389948
-22.977762604008
-13.9952882787971
-0.0185824193422199
19.9984874520914
38.7362927410297
48.4912788899944
50.0241734489247
51.1191935099226
57.0940895639578
65.5409945981405
71.4278063011865
74.9607251057665
81.4360572138193
93.432893893224
106.057883176815
111.927036199959
109.731670036994
105.561199840019
105.569771532466
109.524326974241
113.075531356285
114.92103753793
118.910261376408
128.337860293582
140.308754238887
148.027594943144
148.406019761065
145.39548692683
145.004706965776
148.561900950774
152.588016985527
154.656754024785
156.921145376991
162.568178264223
170.221261525374
174.173349155423
170.620258504755
162.099538525897
154.597732547274
151.156145293873
149.963445045233
148.668407829036
148.49635287338
152.429814046074
160.031499854727
166.21382544629
166.134831892458
160.293983404295
153.53289594171
149.421451632564
147.173411262794
144.518469153263
142.021648199166
142.713779886842
147.522768922526
152.872406731499
154.091261570903
150.603174131746
146.426943294625
145.486892123083
147.734900792445
150.66925772778
153.594043916427
158.551185067563
166.653358056266
174.988310344148
178.708335730385
176.09929208252
170.384775058675
166.091351942042
164.615344777956
164.313193300652
164.28607116561
166.285158492065
172.013688011477
179.57894571128
184.238309762643
183.014902070118
177.606743581693
172.081144939736
168.404952625987
165.342216535971
161.560337541356
158.261328576248
157.56938719588
158.88368811484
158.379967100258
152.816325968837
143.093533184252
133.18181751186
125.851070195312
120.512794312778
115.445308071205
110.882372224898
108.555939527098
108.335112057825
106.757328130959
99.9263708731389
87.5047614360044
72.9442685696807
59.7728001054497
48.5821748880775
38.1222265807953
28.4024054196887
21.2441720591515
17.4479806615659
14.5512020597023
8.59202450266733
-1.9231351729829
-14.6328194640848
-26.1130683910019
-35.26843363287
-43.2813865003583
-50.7785174494434
-56.4365707417556
-59.0433942179178
-60.1275160950381
-63.2812796634275
-70.5772137103827
-80.3684141684618
-89.1317851661287
-94.9889209753654
-98.6555144408958
-101.153221569427
-101.826882797558
-99.5220605012655
-95.2533203887728
-92.4565073211421
-93.9857750415893
-99.3354647288492
-105.42750266182
-109.880476481962
-112.73945545795
-114.929617791666
-116.049010672911
-114.769885183136
-111.327648014056
-108.508833573256
-109.358192918715
-114.144131811387
-120.23512200165
-124.952858473604
-127.852810995733
-129.890975686283
-131.111310990536
-130.282625783371
-127.041961372532
-123.493313828934
-122.730127178722
-125.748286534
-130.424296807333
-133.736741011095
-134.457782294449
-133.225719414466
-130.490690270359
-125.503561128811
-117.830617897462
-109.211239167106
-102.898276233816
-100.861772381715
-102.102883674244
-104.025442635224
-105.052307410657
-105.344722826822
-105.200836810052
-103.766677149798
-100.052539190504
-94.8784638741811
-90.8751318272866
-90.1048504550841
-92.0301792677058
-94.2444657882292
-94.9700611173529
-94.2644181631751
-92.7750778654466
-90.1436949332557
-85.4543769945434
-79.1440095062395
-73.5973807513012
-71.2273160387048
-72.1408878375208
-74.1574176473527
-75.071877364195
-74.3779350908091
-72.6062386762808
-69.6432876428494
-64.6027793659779
-57.5020012339715
-50.3362679168216
-45.7536505867534
-44.6447430264646
-45.4700639825665
-46.046039602525
-45.5301600130185
-44.329406822951
-42.5140226627271
-39.2188142518894
-33.985928702578
-28.1711736124913
-24.2440845213362
-23.5027386026848
-24.8601186097125
-26.109539031176
-26.049236367478
-24.9512425754271
-23.1748720670416
-20.1347108063435
-15.1812012529143
-9.18565298720573
-4.48071399020078
-2.85435036933649
-3.86131674480457
-5.43127640022675
-5.96782567220758
-5.42944296398393
-4.38069374464083
-2.64711856661349
0.456447611001394
4.66158560281465
8.19793705211285
9.21295614988273
7.64818895882173
5.38803085991961
4.57032868140934
6.07315491550219
9.70715431589468
15.3413931846668
23.1442267130379
32.5945027299451
41.8044507464413
48.4206225355421
51.3125580024406
51.1721719359239
49.4591134493392
47.0912696743511
44.3533276255511
41.7053755210396
39.9894831121731
39.5188049953875
39.2826667188758
37.5734874405346
33.564274853338
28.0736966821379
22.6841504928012
18.3541476089608
15.1518718243097
13.1571057065921
13.0454694233943
15.3838818798006
19.5108118805274
23.5882210507563
26.0230595116065
26.7332604864055
26.8734699067512
27.4494050941025
28.4598045284789
29.3792997350011
30.0925678798873
30.9694796005522
32.0433572804686
32.4890496344301
31.2292648563684
28.0671341520117
24.0769692578041
20.8489554121371
19.436528633302
20.0109042814355
22.2682549434078
25.846145673168
30.2653595283017
34.7072411943797
38.1860848890912
40.1232959606484
40.7415714616286
40.8184569777009
41.0149024596878
41.4393437721652
41.8334172039853
42.0797023150266
42.3774705705363
42.8265750559307
42.9392802758741
41.8823967466957
39.5139620695437
37.1271166165227
36.6574564762314
38.6084884445887
40.7746172355886
39.6545775012399
33.7210645445679
25.1663774805772
17.8288457502575
13.4503489077057
11.3447226819458
13.5528547453173
30.6701521632339
80.4709739304474
177.230861386513
319.58435850879
488.115676634068
655.66875472898
801.180549003811
914.651132241463
990.582428541619
1019.53965178047
988.890121472802
892.804983014854
740.747123626889
555.092515477328
360.19172291501
173.503109176207
5.40996471417907
-136.234763480005
-244.961402239635
-319.600331141571
-366.95728716934
-397.952584187193
-420.477440355131
-436.956976855595
-448.970490828598
-462.145341220393
-483.738049560242
-514.514755697653
-544.643972991327
-559.949336883404
-553.398949071057
-530.493735090787
-503.591170208014
-481.7306253304
-466.11002850639
-453.772618707649
-443.055693937867
-434.234203139522
-426.26503219338
-415.466500960676
-398.584672219771
-376.284617047792
-352.354873092197
-329.559542717889
-307.412234802732
-284.467912299115
-261.709456536863
-242.235309426467
-227.480240470009
-214.9503820562
-200.666617357403
-183.493071338494
-166.0686494128
-151.30453920652
-138.886558285312
-126.0021589223
-111.072631764734
-95.6513553781096
-82.285123826365
-71.3478749020248
-60.9014710758187
-49.4536866702668
-37.7624002213963
-27.3662786663354
-18.0325476748813
-7.7260434133332
4.76192897826249
18.0124019394108
29.4469906820895
38.2215049937052
45.8643838573764
53.9716614438785
62.0873580018259
68.5267079507798
72.920271823274
76.9818960621773
82.4095447110575
88.6756971300139
93.6506157607625
96.3014516385246
98.0106003695235
100.878404084624
105.277002940264
109.788183188864
113.433251579757
117.096656024025
122.191724928656
128.333645026822
133.146519685189
134.578292880539
132.876711795735
129.876206307466
126.718138578963
122.999846548372
118.272993237226
113.652454549899
111.222656319836
111.924386247121
114.633632187572
117.571223215126
120.185633473816
123.191398390248
126.995024150383
130.800526566667
133.573342789454
135.415644917318
137.384478428799
139.998076307864
142.500120146198
143.862280479305
144.052357182228
143.738609613133
142.884323664143
140.409175661397
135.707951692827
130.077835013049
125.852514882185
123.930528139316
122.720176573895
120.028502837455
115.752989596153
112.082050229547
110.92246548509
111.732177253976
112.424286987934
112.124693466005
112.24890603292
114.560816312921
118.743083033889
122.583269929815
124.484026796193
125.071616024659
125.958707873424
127.449949421261
128.262993894557
127.562602035223
126.493704422154
127.057628168072
129.704323631772
132.739485470394
134.298080105081
134.314884262066
133.988736969756
133.574247011507
131.533070695997
126.254140247426
118.128623293385
109.252898103393
101.101935360284
93.1405054289771
84.0999711516011
74.1901559161147
65.3494440880675
59.2281617779589
55.5182551804014
52.7084504123737
50.1469414099224
48.6536493257574
48.9217579969766
49.878412549404
49.2019217262154
45.3748947853065
38.7374085665306
30.4227072293428
20.8086071972662
9.55973199378258
-2.97477724426619
-15.1062802118692
-24.9453681388388
-31.9446989486877
-36.9453392723012
-40.8551581161342
-43.8217586182009
-45.8679074521969
-47.7801103184893
-50.6845346182117
-54.7285983468561
-58.7856802239593
-61.864784164279
-64.4970146475216
-68.1582086539459
-73.3012946055476
-78.5517147776015
-82.2786076116103
-84.6551553906191
-87.5230597158411
-92.0914047803901
-97.3197985811181
-101.061071683175
-102.565261530278
-103.220528405625
-104.675566566662
-106.82868497634
-108.255575204533
-108.396985562521
-108.516666924667
-110.103739789862
-112.831338618792
-114.842731977401
-115.109824091423
-114.855955255117
-116.190657952817
-119.687110257084
-123.965905978763
-127.691990488677
-131.234679212947
-135.727467351019
-140.7540916357
-143.79356144169
-142.361003684321
-136.327731913835
-127.670430580237
-118.155000035868
-107.961886577909
-96.8249840249182
-85.8726225568379
-77.4853865449387
-73.1875881770548
-72.2324830118225
-72.6588915987542
-73.4260141027706
-74.9718211367
-77.7556080735851
-80.9887041777519
-83.3275651165447
-84.5045318625629
-85.5612621738208
-87.2880669972085
-88.9745997298184
-89.1995931600953
-87.6221376234832
-85.354528994062
-83.4151182599195
-81.3963533959423
-78.2214044168906
-73.9898284589429
-70.3192354803601
-68.5329020078018
-68.0015722486742
-66.9068746351378
-64.5665341991877
-62.3443983076025
-61.9416623797247
-63.2767500741296
-64.7075099968578
-65.2538314469392
-65.8089070918712
-67.6537957404175
-70.2071669110032
-71.0548652393938
-68.3779931171881
-62.7572093268134
-56.13233252294
-49.3961076198903
-41.7980835733856
-32.7862332766973
-23.5612946086472
-16.0111849619437
-10.3477500653043
-4.72387364662739
2.42420546490812
10.3073016753559
16.8246934136823
21.4603129788105
26.1094481273556
32.4285013920259
38.9689250880984
42.0378926704411
39.7103196850035
34.2867948828124
30.1195659897369
29.2699384451689
30.0292415256609
29.730875621128
28.0803653348747
26.9366790446621
27.2423239736045
27.3733894907459
25.0685755330561
20.276692547716
15.1177911333057
11.0721927332331
7.18938613320604
1.66636374289283
-5.41913456612767
-11.9761673909
-16.5766268111118
-20.2845922655384
-25.0403094883109
-30.6383366399416
-34.3647400514386
-33.9661375249395
-30.2207936200911
-25.8178926790616
-22.0330868680463
-17.5413705081083
-10.8422487240844
-2.94884356058208
3.38967495168748
7.04615579622197
10.0413615792809
15.1053800961841
22.292064495294
28.9133037621473
32.7476902253113
34.2808273886787
35.1718494242735
35.2569746721246
32.3588590210361
25.35607071577
16.4901668088799
9.76477982253765
7.37460923028689
8.59144070542195
12.1163601014799
18.2566900436284
27.7566872159273
39.0428521763966
48.1516313270088
52.0170512159017
50.9478608822209
46.9483325518125
40.2958977371665
29.5273598325847
15.3321289640522
2.73573640218144
-2.71769454280645
-0.938289384680148
2.67492133785304
4.57201521236965
8.95212677086115
23.4375786680333
48.227236593755
72.7792481624318
87.6528770657231
100.860722222643
139.234766320946
228.802951560237
371.15746716731
539.338465215295
697.771262536069
826.096536850137
923.551079687085
992.448985916132
1021.77416612361
990.227056775221
885.252485862187
716.987487535849
512.755035776043
299.43723648458
92.5593331132243
-99.3805298663487
-264.967447131039
-388.710006820989
-460.68177601838
-485.600989546665
-480.963678102121
-466.297336087345
-454.065355762698
-448.65541532054
-450.309409279006
-457.6682623424
-467.630963636624
-475.933544058259
-479.961729102762
-480.691333867183
-480.801307650824
-481.083278748825
-479.906763251469
-476.370791963355
-472.190436373353
-468.45288503466
-460.668567484489
-439.555505710239
-399.276775413565
-345.25368585568
-292.186315420762
-252.761556308406
-228.110226630889
-209.849501072395
-191.166721512876
-174.632818720541
-168.392926461272
-175.540719426836
-188.874066341095
-196.742677165852
-193.18073360428
-181.29095035691
-167.140785203449
-152.083504834516
-132.254683880293
-104.852772301107
-72.9572916007382
-43.0621332786298
-18.6479256147145
2.24056995381787
22.6379698665211
41.1839228464597
52.5883571131149
53.7850346823523
48.3141574447032
43.1421327843169
41.0280600843514
37.4012995691077
26.38518785979
10.3768161705554
2.64207641441936
18.536797619736
62.2856564750122
121.257337407166
173.263804977337
200.878527208808
201.117748481923
183.830426549338
162.273051219457
144.950185679073
134.525508619254
131.806716598675
138.457476639631
154.931131445186
176.550556721066
193.701350968768
198.298944615149
191.528163500391
184.703247460049
190.170506680654
208.813377271756
225.819411736169
220.744734615559
185.188140630337
133.027230650319
93.0284173302347
88.5775928437484
120.907507435212
169.427848517303
207.974843462018
222.801895003693
218.470087788392
209.611729690196
207.668823120213
212.910376619257
215.340073514496
201.879904203032
165.572658292148
112.651584035442
62.5826037598945
37.73429045576
46.8464963758489
75.2080431656751
93.137175671991
79.2258705638013
38.7239259391581
-1.07298341119535
-15.2848218055492
-2.19802232582174
19.9428375739372
35.1246572925777
45.737869402264
65.6389864576856
100.123081420107
137.67977412396
163.359145538195
176.534906393135
189.834721853686
209.283639169118
220.509072074635
200.96839971455
147.401907219639
87.1923778601436
57.8814419869357
74.3802377431115
117.813341712643
156.354551296203
173.881171261791
176.270239628709
173.222296765109
161.500077400171
130.909204046604
84.5416694139381
46.5508850938604
45.3710166357774
89.1671269869778
158.992759188653
225.015703007151
267.52718501352
283.74039185817
280.269514409507
264.521627073957
242.488190391274
218.346047332705
191.16672990386
153.883667941285
101.536152820403
43.3197350377811
2.78100679240718
0.158980490571878
32.3519887431365
72.461943140021
91.1583839005594
77.9995176515331
41.8574241646456
-4.91127550201912
-55.7739047482446
-102.409836544768
-126.212460790047
-109.085244159279
-57.0957675244546
-6.85388272432071
1.67430121298555
-37.7483207432407
-91.901636759251
-123.692555188943
-131.3710126331
-146.644131644163
-192.81020762462
-251.409019929433
-278.004089027118
-251.148291244768
-198.606636726816
-169.533691545593
-183.21536484729
-212.053598707801
-216.586364094136
-190.096377200531
-160.630317183814
-150.303559504479
-143.58123821569
-105.692375970099
-31.0780372064937
37.7163241828519
49.5109432410188
3.13975607910224
-41.3000262309642
-18.1842349754278
73.4301743380156
156.84763465976
138.748630820618
-11.135220887918
-233.240934567098
-423.686726174192
-506.707795320589
-473.252486164337
-365.494489334962
-236.033025581059
-121.447589007736
-42.0119101242568
-9.86644311795033
-27.1111153428742
-76.9603436753535
-125.682837705128
-142.931246237144
-125.592221977568
-101.758042575498
-107.691750595363
-156.019020122575
-222.572985132407
-263.327617217766
-247.06497247054
-177.404579782659
-88.6294730177862
-21.340224754793
2.75272076882675
-9.26578088026361
-30.374925329868
-33.5593961352224
-10.4240729697531
22.9909708539865
38.276243796431
17.7973235049259
-29.0000564283585
-72.3195023447546
-88.9852675770158
-85.3595061583464
-91.7051763318077
-130.4045587152
-189.399882999073
-230.252936328454
-224.904949907694
-183.036083636333
-140.243345213733
-119.744276076607
-110.004620664705
-82.6175300852522
-28.583727145423
29.4600361135572
62.0423777666705
63.4964239361627
52.0089240100309
42.3889329958697
29.3083995709613
3.49338446553546
-22.802716112424
-20.9762812573225
17.0172582147418
55.9472186533547
46.110981021548
-20.6795329866845
-93.3627150054131
-111.037219700259
-69.7039283959535
-29.1667293404861
-46.6612211921621
-109.676769897133
-146.444874295932
-105.914609497149
-17.6328960497546
37.6190667116888
14.029545718844
-53.8181470350998
-95.9749149296808
-87.1762758420001
-68.0121312445776
-86.1779135867755
-132.984993311403
-154.343522170491
-122.82779304899
-80.4330934696407
-94.4067655537798
-173.527448993493
-244.128550663672
-220.241302291069
-94.4978510397608
49.3219253735752
115.533893159273
82.4022329014815
7.93745506769228
-39.4270144039514
-43.1836392737207
-32.2639253719275
-28.4024043326386
-17.2737140060185
25.3094829377837
90.8948311974211
135.277783654149
120.078858385324
51.6630736843057
-24.1518807175372
-62.0268154183015
-48.5160168564378
0.286650024759666
60.3439070417772
113.04130408702
144.331119212218
144.426945303927
115.937755068726
78.441835774244
56.330600875186
58.0254094820696
69.3221687222496
69.7514818099694
54.0114961303925
34.3556780736513
22.678642107809
15.089356605262
-2.10991062893575
-32.3646217444014
-58.4829648453931
-53.6564054451981
-1.42266865525229
95.397940941073
221.60730012032
360.543154198192
498.230000158396
622.934066271795
727.446413904949
812.974793054217
886.10126586968
947.058431598976
980.878298655849
963.811501798888
881.623437488777
741.976045762138
568.352741329868
382.795753398391
196.018345914656
13.2196599356005
-154.98718067578
-292.025004578771
-386.596979383685
-442.060783123103
-472.413104086993
-489.352823110199
-494.962651407873
-487.092441961247
-469.34314497524
-452.835290889776
-447.3828607997
-452.156512790016
-456.192253110989
-448.087561704551
-425.102438887009
-393.88438953812
-364.114767249179
-342.034747006701
-328.558258262028
-321.170183968967
-316.375801169124
-311.013558627594
-302.793562432862
-290.652571187795
-274.8544738589
-256.732956502289
-238.322191956616
-221.941451887552
-209.430914082413
-201.133846353176
-195.520708121132
-190.124416261349
-183.053491673326
-173.58835420893
-161.53481532353
-146.679794406237
-129.421058168343
-111.569561624971
-95.4387052874545
-81.4122132249997
-66.8087950147273
-48.174699270446
-25.1944176317196
-1.88583113596507
16.7402467342421
29.2801225511492
38.8801466907668
49.627474498615
62.5489009489974
75.5143291549898
86.5723578715418
96.4390021037698
107.399628317465
120.427848373745
134.137620869013
146.445717182198
156.49375522268
164.647298310168
171.328472509925
176.777664036492
181.96884537628
188.820447057338
198.669650043715
210.525890493028
221.194497525212
227.105756327475
225.814101899523
216.259634406193
199.119604990836
178.197950499336
160.949064115324
155.344581399901
163.946344852894
180.47510117889
193.293940985672
193.774038508388
182.355647596386
167.296292819244
158.213822299835
160.526376737672
173.974138619559
193.416949485819
209.637109782776
211.381679735929
190.759937354168
149.551017897887
99.9113630840947
56.5804869903366
26.7199678384764
7.33793424972357
-7.17279257794888
-16.0718726721904
-12.4054044865131
7.68407121879451
37.2974228454715
62.0828056664998
71.5112898651592
66.4093615460598
55.7838749933509
47.9397377738274
45.7931803498789
49.3403436349784
59.2409380471067
75.6751434654732
94.6245540006079
108.143948906963
110.03981120591
100.772551632888
85.8109150519421
69.7917622443662
53.9303776908562
39.3250702087376
30.4686075294368
32.7460812357724
46.0611004439612
62.9283320520049
74.5956003008502
78.551031425437
78.4553017112671
76.848749490611
70.4247278636514
54.7433491685174
32.9137449322859
16.5285969046916
15.7030203966704
28.6440186955906
42.9049001299053
47.4702558024061
42.3692631967422
35.6691906949638
32.6592173505793
30.6424855790506
24.7854430367489
16.1924255044827
10.7336926858546
9.45339844716895
3.10496043204921
-20.5668713548108
-63.5265266858319
-113.007577674182
-151.474137794156
-170.454390605877
-173.815468408616
-168.680862454212
-156.146535324782
-132.888695774534
-100.599405250906
-70.3113386446419
-54.8308646025303
-57.0424238749842
-67.3288760096333
-73.3527218173704
-71.742722670053
-69.5067039580219
-74.6543385321683
-86.8707772127813
-97.7702776033462
-99.0052927961707
-88.72019546984
-70.5204045965483
-48.4491670599084
-24.9693647089216
-3.4195998308711
10.1976328781291
10.3638757466307
-2.60714580671011
-21.6949673873181
-38.9124660387949
-51.9813914260278
-64.7062251041208
-80.7886532585944
-98.3395448736875
-111.477522334427
-117.004568644125
-118.072054709451
-120.287093234953
-124.795524269726
-126.675563201689
-120.740231772815
-107.865345739202
-94.1216501315743
-83.6205422331857
-73.7980880637499
-59.1059620838327
-38.670283243899
-18.1251132063953
-2.70336520521676
10.0588257400451
28.132719822226
54.740552928918
82.4802767390945
100.735311639923
109.563388416534
123.456907786049
157.593523106962
208.975573583128
253.072338982879
262.397061832059
230.777950505649
180.147941832014
143.334025961806
139.263329139099
162.778755201247
195.40576135878
223.736270997218
248.022004419499
276.110976577937
311.687247575024
347.936919978748
370.025229336821
362.506248448632
316.55125949047
233.799172488792
125.007550726564
3.5971577961451
-121.696136159672
-248.160796996304
-371.847262706384
-478.588991949421
-544.531759629037
-549.467519692894
-492.744994308943
-397.22608336161
-297.408413289554
-222.274187695815
-186.107494056815
-189.869969227589
-225.519534700285
-277.491536215063
-324.574966333431
-347.599644971407
-339.829308082949
-309.689983389677
-271.251736438469
-231.479101091435
-187.67886149276
-136.964173600741
-85.371829567195
-45.162445770896
-23.9391707827843
-19.4454322049595
-26.0614341114276
-43.2626414666964
-73.5623202987453
-112.068771841265
-142.802285798257
-150.118454927225
-134.059034032455
-111.124395535028
-97.8926257408864
-95.6083369610277
-93.2701296281784
-84.4792695249506
-76.5832470878478
-80.6800683885717
-95.6619953272848
-107.479822122016
-105.434769595873
-94.8528053034894
-89.2281119605401
-91.2378016654268
-87.5392814393842
-65.7350539500433
-32.7179426659223
-9.2254326210745
-3.95511154936209
1.83956980051516
37.3290252167193
108.481015455941
185.827586497669
229.967342497605
228.907903426567
207.298715781197
198.526603718221
211.20677141431
225.794251710254
221.697410276037
202.247478061423
190.823868277672
206.140681713498
246.255838727413
296.518074408626
347.315790842143
399.011616720899
451.020049183463
492.571703251776
508.971713610355
496.026340255443
464.587797890545
429.602928016245
396.820395583945
362.008597121882
321.424632121201
279.311774869071
243.589257288529
216.201711669309
190.486137349066
158.739482276387
121.845381008034
92.4061041204015
90.8157447954489
138.464628837441
250.049867873476
425.252029970405
643.902841634389
871.589045345351
1075.72421411724
1240.00285422021
1363.21366444205
1442.96591207707
1461.75268603138
1391.89090292853
1216.24930900991
944.705255214721
611.180809424487
256.726901976553
-83.7868480636193
-383.055695823338
-619.258970440622
-781.167079610037
-876.698444114058
-930.815855246512
-968.387838588049
-996.983570519712
-1008.3665036601
-997.965920919943
-980.327148976282
-981.458113965277
-1014.58602055279
-1065.32016260653
-1102.86923922364
-1106.04707980007
-1077.75536552975
-1035.60601131813
-992.255675775163
-947.511395108237
-897.698467607462
-847.34013662246
-807.479808611421
-782.822878926592
-763.833704058337
-733.938264315904
-684.362208108536
-620.903728248098
-556.662024421497
-499.969984872439
-450.253017561413
-404.018937606596
-362.076236860521
-329.493205088763
-309.427948551739
-298.785402152075
-290.683135093653
-280.683498212453
-270.019864307916
-262.809904511634
-260.474356808003
-258.840698708141
-250.425977557351
-229.797455964293
-197.658471748646
-160.544840143398
-126.368123948857
-99.1593303472562
-77.0712110718693
-55.1621813747318
-30.4123956522467
-4.38162753903825
18.8522631128363
37.2154769152785
52.9818955247144
70.7011472208025
93.1126090155714
119.323855022132
146.746290603478
174.110274710952
201.978573488371
230.339045401108
256.357706754377
275.321315922484
284.346079143354
285.30242644532
283.808285620789
284.677864439526
287.605459552224
287.085909982414
277.280483057284
258.224903356632
237.986448515702
228.059554334117
234.851470659285
253.997475800197
272.577960091609
277.894624578983
265.860732996234
242.565720839177
218.734250143657
202.586482162038
196.633909933907
199.073734153541
206.408571050426
214.601915305114
219.411118151657
217.724523008294
209.501718661755
197.867780940457
186.403850768741
176.123403449378
165.436408173289
153.108736913379
140.694376877623
131.584358557904
127.934787405896
129.200944576362
133.805011561623
141.507840214025
153.389702189876
169.668348784599
188.44014383906
207.105004439669
224.593142444137
241.454717622699
257.806806373673
272.09021508886
282.533365057167
289.48785180264
295.408600350716
302.214027888938
309.268137548779
314.570891129778
317.611509646966
320.093801656242
323.447051610832
326.305724202429
325.397292574664
319.020492721444
308.909862312605
298.166593388156
287.784043296354
275.97563025032
260.910561517608
243.195821792867
224.9263636946
206.648973742645
186.296436884264
161.607136913882
133.07642892172
103.806829222093
76.5088043762191
51.3379114342896
26.9791239439161
3.2525903894581
-18.1597956580509
-35.5959516083429
-49.3249465061071
-61.1562791215296
-72.4959579072393
-83.2380144176017
-92.1744999624124
-97.3942421206
-95.7622646879032
-83.0272298385788
-56.3860764371782
-18.2188194812775
22.9994920297473
56.7857437529907
76.860193269798
84.0155403211092
83.2983707818617
78.6865926443894
70.3675283063706
56.3557043957808
35.772800360209
10.3575347407092
-16.4600928045785
-41.1823654457382
-61.1365752614964
-74.724661231393
-81.4739740471509
-81.701594540046
-75.7532425666284
-63.7637697277016
-46.7522302423744
-27.9732554204528
-12.2438898983997
-2.84811291813969
1.06719164793066
3.3508517556004
6.64695451870218
9.65329090668651
9.01066377252769
3.54051145247823
-4.41038527708758
-12.2381940077521
-20.819887357559
-33.8219610655796
-53.2316325579094
-76.6326564826529
-99.5618482808456
-119.735115327864
-137.610097118145
-152.900137733093
-162.510705325039
-163.777545681261
-159.393226177068
-156.963739700781
-162.177625364607
-173.075321906831
-182.622849635879
-186.998115804625
-189.566342015358
-195.406602563107
-203.187796435926
-205.252054852353
-196.992500731647
-184.452609467601
-179.942407593911
-189.328460149656
-205.100805638396
-213.309783686535
-206.717881928062
-189.780664184097
-171.259665516496
-154.669367753901
-137.824148570573
-119.923220704807
-104.808754837365
-94.9981689189528
-84.9070355116495
-64.6448696988657
-32.6378123701983
-2.13164575450478
8.79588364544173
-4.83685891226422
-28.6789593185788
-42.820870012361
-41.7925153419268
-39.3390412909257
-52.7216937771695
-83.4882380439997
-115.116432359894
-129.281368450566
-122.957433029964
-109.192350442472
-102.789369174722
-106.971439063784
-113.294827992242
-111.535316074114
-97.4302054775077
-72.0438337500386
-37.4808438983906
3.82209757894491
46.1380852250361
79.9220418598916
97.025732129946
97.2657430227749
89.2926388054281
84.3387888011308
88.570412023015
100.498145831157
114.272299009961
124.54830672969
128.900317118286
127.551543302263
122.420974340801
116.443276515095
112.503523988054
111.765626931153
112.751243199564
112.542386141566
109.400642226785
104.344634022884
100.066814588651
98.249662463291
97.9641371343549
96.6641294196179
92.6016322764093
86.1036740730242
78.489413424626
70.0458919989692
59.5790467643511
46.2458793429758
31.4345335689859
17.8337250658764
5.89262999610293
-8.32994560901012
-30.1842586550872
-59.9101380774959
-89.3408498706117
-106.931776739637
-107.805690288038
-98.9002566006348
-92.8904204344778
-96.1016837585433
-102.898316643553
-102.946968741641
-93.8417788366627
-85.1985652216187
-89.3928098588009
-108.993173742476
-134.657256373508
-155.286629731968
-168.41696096271
-179.326155141117
-191.300230531448
-199.84849468035
-197.921181679691
-184.865014557584
-167.167686829823
-149.969746495714
-130.760733066176
-104.181740258063
-72.0420703223973
-44.6808438010342
-30.0264596393918
-23.0860944128665
-9.79154423540369
18.1004641880302
55.2491870516835
93.0597647591286
136.645024046646
206.655994111443
320.495655957352
472.511849232952
636.27159803161
787.78497370508
923.862644806175
1054.17351426231
1175.32793797156
1256.68847434316
1255.78499693893
1149.32888964061
949.66169215769
693.079898909618
415.558181084717
140.387151605288
-115.99941328636
-335.100662332594
-499.252892292841
-603.007654147725
-657.725405410996
-682.685093711709
-692.582465370523
-694.484385315099
-694.107742758401
-699.648180887187
-716.264658860992
-738.65826079853
-753.58695026785
-752.234155311997
-739.042238154257
-726.274551186968
-719.866205424288
-712.617212338763
-692.66204307319
-657.767978855139
-619.486841655267
-592.571243031167
-580.876441402637
-573.80203723681
-555.582013396117
-517.509191585966
-462.750011225057
-402.407783861329
-348.586800652202
-309.453677897214
-287.016009836666
-276.868119163892
-270.38395200314
-259.405814500859
-240.618006529343
-215.859332820351
-188.322590132445
-159.083207884088
-127.846478221172
-96.4045310465262
-69.6837477493511
-52.1382129984202
-43.1356278623839
-36.5336235207494
-24.9789551534133
-4.45447766897232
24.8004539565565
60.1144392657762
97.6200325072416
132.122716985675
158.01196096309
172.409327935447
177.67854565674
179.656943179924
182.583598049754
186.142640672711
188.066764539792
189.051818023596
193.569442174337
204.989681575394
220.709713398476
233.610889058805
238.871199093461
238.569042616422
238.771964189927
242.458302983165
246.397906767201
245.345080186295
238.332881443299
229.644414648837
223.523550299147
218.940680274823
210.350984159899
193.348487480566
168.950481771344
142.498745328217
119.345070988462
102.170719416678
91.6987367425848
88.4116903323274
92.690381773183
103.79964961429
119.800371022435
138.800488257206
159.809834572585
182.058945428467
204.04506847461
224.158510611546
242.432046774481
260.872862513154
281.125026514917
301.611190396456
317.514202473265
324.143784893044
320.527595466092
309.810592642957
296.489521831821
283.606105194691
272.412248078774
263.87178460254
259.547389519439
260.711576651232
266.866186833438
275.401186599936
282.681802256482
285.546075309833
282.367963952438
273.609923608563
261.827801337819
250.702069176692
243.110094347722
239.476058541376
237.955134590471
236.448324302441
234.494258141204
233.14332085514
233.169148582209
233.84344706438
233.722134786058
232.380606176362
230.865015056646
230.238406297169
230.003511334269
228.408599713243
224.396149721478
218.943152419292
214.153418282064
210.957033554976
207.812200386206
201.811076460046
191.307466186848
177.913661567588
166.295744960086
161.692423119223
166.374341048922
177.023712190926
185.070546101117
180.775535058144
159.25763316374
124.42898323235
87.4019082134796
59.8056629880106
46.6391087359395
43.8779176863549
42.2353611138566
33.6520973859334
15.5593545781627
-9.357254817078
-36.3073256648422
-61.3622017117308
-82.5429022601246
-99.4259849753485
-112.386850527496
-122.029545023209
-128.804592414071
-132.869591540488
-134.329773575209
-133.64576085767
-131.682986420634
-129.226697139974
-126.486962136206
-123.223640133854
-119.385384645731
-115.487252274442
-112.250302120746
-109.949647390946
-108.276477156685
-106.844727376269
-105.650995919754
-104.904902916755
-104.526172558215
-104.071876099639
-103.285570906096
-102.611561837533
-103.02224817503
-105.35614973235
-109.933200983508
-116.770803820485
-125.901537539962
-137.218737095873
-150.038838205964
-163.095376680217
-175.193358764333
-185.861299273925
-195.25262630531
-203.451062169789
-210.079594882999
-214.705395589207
-217.46695229632
-219.010490997064
-219.692557902269
-218.998998701221
-215.958301327821
-210.155540876863
-202.221465833399
-193.287164394323
-184.098665899676
-174.813228829586
-165.599461166081
-157.187429839398
-150.639587708903
-146.609356663882
-144.957248664818
-145.114392587441
-146.692144696343
-149.632428080271
-153.834169456076
-158.808366527293
-163.785299039849
-168.098536214024
-171.398068150905
-173.56154870426
-174.566705598256
-174.543181178844
-173.881889767727
-173.161278216654
-172.898488020095
-173.366488510747
-174.607522137449
-176.503746826785
-178.740979809352
-180.748855525794
-181.83470585004
-181.512306649643
-179.732090698549
-176.766764749807
-172.876281162636
-168.10983088926
-162.402655466481
-155.752388850842
-148.190939084604
-139.577590150164
-129.514128134578
-117.568127287374
-103.633224478511
-88.090990556374
-71.6403413711918
-54.9656263792728
-38.4987430232688
-22.3810416009385
-6.57040581890813
9.00140673895498
24.2972672264671
39.130358036535
53.2122843041015
66.1926951306721
77.5732937831145
86.5561206459994
92.0833068652465
93.2349653989069
89.7674064164059
82.3183558169894
72.0545467539932
60.0851662894429
47.1881054665737
34.0048731141527
21.3058437271413
9.88191342432398
0.13325635426682
-8.14829908173631
-15.5047653698172
-22.3143793140335
-28.5703972331075
-34.076139493781
-38.7370469043153
-42.628913074391
-45.8872403842291
-48.6537398899003
-51.1196085700472
-53.4946750625357
-55.8628725563793
-58.1398524383046
-60.2665261759758
-62.3968171345227
-64.7405536626822
-67.1654089575033
-69.0913966438346
-69.9414055636348
-69.6624233984319
-68.605268607996
-66.8001053043882
-63.5199867830004
-57.797220082268
-49.3802412494595
-38.9693608700758
-27.4038374250498
-14.8274778178957
-0.944875075190893
13.9485903181086
28.606338018666
41.8104312980992
53.5520870557374
64.8336942904919
76.2331967901311
87.1214844274077
96.7462438864812
105.883743172162
116.65383363426
130.177386074483
144.696348599595
156.712422963349
164.23534026206
168.430910454883
171.551048673217
173.502158660481
171.398865735456
163.202822540309
151.600950361429
143.498544341086
145.017386598193
156.609429372986
172.587964165688
184.836488232936
187.173395936904
178.021279736912
161.89029111276
150.283556677453
160.185472610385
207.958879095774
300.582626082701
430.492421031061
578.748408079039
724.061497181226
849.856450539977
944.289423312501
996.111154168154
993.399790946515
927.928152007382
800.741953477836
623.124309083326
412.71591793056
189.592052748591
-24.8565611823844
-209.199010022525
-347.413618500561
-436.395576420625
-487.836213142684
-520.219694551512
-546.741608582353
-570.03746218591
-587.749702138793
-601.184245250063
-616.202593774292
-635.090586584531
-649.505186222926
-644.29832687352
-610.010405205197
-551.761206981097
-485.63953342808
-426.596875388887
-379.827098018937
-342.481851206708
-311.212266216378
-286.398775053381
-269.895676342072
-261.163369980587
-257.26144933754
-256.022751778578
-257.525673197584
-261.821808708513
-266.305471562032
-266.698100545788
-260.752765563638
-250.06833642864
-237.735749465156
-224.798458480979
-209.856943469506
-191.971912050722
-172.845963593019
-155.414508002214
-140.753289371206
-127.321879446968
-113.388425009872
-99.3261051368304
-86.7791172785085
-75.9485411162339
-64.7816101030488
-51.3333498563736
-36.3270543855349
-22.5423253107008
-11.6630599816029
-2.46989142051282
7.41340698263305
18.4585813753395
28.66671242698
36.0949577142756
41.2395101282934
46.3820148239559
52.9059643039871
60.0030815104341
66.1983135588035
71.4976540640572
77.370633669036
84.7675166837646
92.9001833961588
100.363816663389
107.03099555164
114.190929117713
122.78792721098
132.098307610325
140.532905206702
147.435127660163
153.519691874501
159.499950285178
164.864721819293
168.489338265341
170.243829258335
171.397582238729
173.213860729796
175.527860630407
177.120199818511
177.337905573029
176.818906332321
176.430279640773
175.929455591324
174.208801041047
170.843582804614
166.890736670238
163.833841021354
161.983074092196
160.34004836064
158.024230741417
155.362875866248
153.270745309283
151.847095386092
150.136433328609
147.414846287483
144.303939605451
142.209884003369
141.765321558074
142.237482648744
142.586384496852
142.727961485594
143.375147092085
144.781655048943
146.174802489034
146.706944187244
146.684378431978
147.417419631168
149.825488531258
153.548612432707
157.630576232681
161.782200581464
166.536191938934
172.160041838901
177.89175441473
182.627800457927
186.2149146196
189.635051599006
193.794257541457
198.448013205646
202.596729030274
205.73963829192
208.285048832813
210.625620083573
212.246009851696
212.200357013273
210.388480876212
207.861808687001
205.602908957639
203.30093658929
199.77668411547
194.589437343757
188.72255923317
183.335712903334
178.098253321857
171.306992248062
161.828226669715
150.561324667429
139.607480647867
130.10465863752
121.293548320551
111.808417229675
101.448877961177
91.2278402882874
81.8033740622091
72.4636702425773
62.0286246675095
50.482324969084
39.1917373275846
29.4046507850082
20.9253175570157
12.5881204203996
3.80866800510591
-4.83546312979212
-12.6698736426697
-20.1036631670265
-28.2672841493244
-37.5367452368367
-46.8932109167081
-55.010969994433
-61.7267913939209
-68.0594809639177
-74.8390045351476
-81.7765922284324
-88.1509506103849
-94.101379268546
-100.705554185769
-108.64840295999
-117.20018775373
-124.882628436739
-131.039667773329
-136.36878505916
-141.820180803198
-147.358284022153
-152.183042149536
-156.028640172417
-159.722815525034
-164.186064743561
-169.148369841747
-173.284648833151
-175.652781277444
-176.641303239591
-177.287721951469
-177.938888159468
-178.020497471071
-177.146168229715
-175.987416683352
-175.64642557068
-176.294676408398
-176.874441712165
-176.316737256282
-174.760306087283
-173.251222233955
-172.374013076921
-171.625707962467
-170.313417464868
-168.707146503309
-167.829845549075
-168.08959109913
-168.547747676085
-167.852008080668
-165.716824239914
-163.112072976334
-160.979305475157
-159.171702930167
-156.959502222568
-154.337662276394
-152.298977193146
-151.617434888658
-151.705947250519
-151.092789316742
-148.993873264155
-146.035579298615
-143.273097141983
-140.835361141286
-137.95572881663
-134.270487578955
-130.567830838127
-127.898297055894
-126.161853697956
-124.050633932649
-120.508169591117
-115.893881844695
-111.406124190559
-107.560135391873
-103.709624946657
-99.1801917449497
-94.4217440116649
-90.5480472137207
-87.7925763590513
-84.9273256067546
-80.5225756176413
-74.5466146186855
-68.3215314561117
-62.9339999233837
-58.1618858355174
-53.258319471335
-48.4633068552841
-45.1277572766409
-44.1560810759977
-44.7413295875315
-45.0920826020959
-44.3334559073296
-43.2509864836261
-43.0165325632182
-43.6026566974004
-43.9308106764656
-43.4772945800553
-43.1221840042818
-44.0226777905667
-45.9316689619073
-47.1916564603894
-46.5074522842596
-44.2879297799708
-41.8849987074581
-39.7770879861525
-37.0964345405804
-33.0925676971697
-28.5153201726897
-24.9506173831566
-22.8526307949048
-20.8434693480273
-17.3168943117241
-12.393250467241
-7.73462304871578
-4.44200059328713
-1.75592362351159
1.72700363778559
5.90566595942039
8.98584531363071
9.66227569204942
8.93998059501124
9.1740763740852
11.4042681449218
14.2963294961425
16.0267953805409
16.7026972687651
18.2052904604638
21.6579763436979
25.8128145544533
28.4872492340703
29.2090542095426
29.625173810792
31.189478170501
33.3426638006908
34.8325866397273
36.4721843771337
41.1904381117951
50.3489058669812
60.461521158112
64.9574512797748
60.0900968188484
48.8200276119322
38.1145742793124
32.2445472456657
29.1284832790012
23.2735470328189
11.5109192528158
-4.77341860745316
-22.1151740321803
-37.2530017494298
-44.9929695823494
-34.1673483191321
11.58924617107
105.741161639936
249.270729805794
428.20157535307
620.357525053792
804.789148489685
965.832936572304
1090.62542147948
1165.90973461056
1179.54930857126
1125.80760555464
1009.11296864769
843.202466413705
647.475339403431
443.710837411318
253.291941710881
92.9774993354013
-30.2886544030685
-121.308188384764
-192.021527889812
-253.082789400843
-308.69561513647
-358.709880785387
-404.22108680526
-449.272291207372
-496.234239068894
-540.481429838526
-571.628371889091
-581.57348279673
-571.740075212947
-552.192301753338
-533.540007736498
-519.641619173511
-507.53258276273
-493.081092349602
-475.594964415288
-457.173973496385
-439.07995603353
-420.111964548961
-398.567384715067
-374.765437922123
-350.876017479332
-328.559128617095
-307.563278686906
-286.836504484781
-266.340419439088
-247.059583572546
-229.331065512256
-211.929771551118
-193.310458293721
-173.48744806318
-154.105498678159
-136.532032301155
-120.327655532299
-103.982656775145
-86.958878872524
-70.4731776071723
-56.0839408056101
-43.8799799983777
-32.4795428342055
-20.7140233981665
-8.82080570439497
2.25850123689469
12.3973883041264
22.5680076260843
33.534995407899
44.7038584762332
54.6591210843419
62.7390821482134
69.6790036980989
76.573849278164
83.5438470210574
89.7876004394636
94.8522145752443
99.3841496794958
104.357595839897
109.806366338781
114.750078045795
118.453115018338
121.417457951955
124.84131059192
129.234540405293
133.932715001101
138.05691647314
141.600329837098
145.204696588357
148.949712174219
151.808799841881
152.58747916052
151.2373219079
148.919906540868
146.755144560245
144.820426637464
142.584613924997
140.084574793688
138.216722142808
137.715339215641
138.145842397441
138.265534171857
137.361678518452
135.920712494555
134.833126525718
134.193840617389
133.231028719218
131.401193100446
129.178498187825
127.491125451195
126.544037261226
125.583301598738
123.941977602523
122.040246443193
121.053549694727
121.656419626649
123.409205579843
125.499351770274
127.807521968308
130.896656260266
134.975388453566
139.254124978192
142.612477134294
144.788589316835
146.606725324576
148.973552171244
151.916358951617
154.823969460475
157.464863259971
160.377535066439
164.109834880141
168.338744537068
172.0801552888
174.774091054896
176.879941181794
179.244329464338
182.080076036362
184.856040205783
187.160938701746
189.317385880745
191.883216494322
194.696494816681
196.773488270422
197.272780437789
196.32818751894
194.695905334345
192.68984374113
189.794161777653
185.436805595258
179.86687867025
173.933909535585
168.022905864233
161.544814226855
153.69235305175
144.524132710484
134.988426203822
125.850862221518
116.896830416799
107.406246269912
97.2325472378834
87.0396064103983
77.3799171983411
67.8503744330711
57.4888057580824
45.9551382570693
33.9949162457349
22.5930602428463
11.9131581855452
1.37415729416807
-9.29590015678889
-19.4817665386047
-28.3946695234278
-36.1579822144096
-43.804925268928
-52.1246234338017
-60.8105869131473
-68.99891508326
-76.4841371476751
-84.0173761567417
-92.2971458521071
-100.991213516079
-109.102887046798
-116.225602173181
-123.031070488078
-130.308749446892
-137.778188993796
-144.237477088657
-148.907608899189
-152.280923967573
-155.413735583283
-158.616837324667
-161.271600614301
-163.008503974856
-164.66315571972
-167.66478582469
-172.533888735858
-178.351355856367
-183.853438423304
-188.752037442808
-193.634968947358
-198.677003040966
-202.943107159917
-205.271201199461
-205.625652122393
-205.159724941008
-204.875803202928
-204.575369075474
-203.395749366403
-201.161931797511
-198.748763853469
-196.992194335651
-195.62382758016
-193.673185203145
-190.826645106207
-187.940748322464
-186.003351850146
-184.886897353324
-183.530499282627
-181.314292725123
-178.813420408972
-176.936203269177
-175.602540929452
-173.755845013754
-170.747919005075
-167.284366718417
-164.637263032298
-163.087620115811
-161.598524496296
-159.142162052306
-155.948594957884
-153.04648298333
-150.719162373381
-147.950163584482
-143.646294285186
-138.066673414948
-132.566512357462
-127.946599772852
-123.53659166843
-118.195552203047
-111.897088381362
-105.791167688956
-100.653434525321
-95.801003904584
-89.9784076756152
-83.1052917830315
-76.5720838349118
-71.6239763349445
-67.9002076313085
-64.0452035841104
-59.6064076667422
-55.7076038524226
-53.5608268025319
-52.749323650041
-51.591394393085
-49.2000114720767
-46.5770352234647
-45.2639689213505
-45.2513132380525
-44.8717134702851
-42.8550910377473
-39.8823726745967
-37.5884179526873
-36.3035925365519
-34.5277653757549
-30.897250666692
-26.0968835604351
-22.1543709878187
-19.94796903152
-18.1510115048875
-15.0210056473884
-10.7100294474602
-7.03351732799709
-4.95749324101681
-3.14026829188883
0.428068005151857
5.73594779053921
10.577076551661
13.2653515017754
14.7719566593445
17.4372356441126
21.8505471246617
25.9947896756321
27.8971523050861
28.3888297069487
30.2628124557627
34.746524114639
39.8360629304683
42.7910938423265
43.6829876263645
45.3638202468897
49.7717617299556
55.3236434782075
58.8549595734254
59.6319569877409
60.1380469619362
62.5636292585502
65.8115093474867
67.3882700273035
67.8968797780308
71.6707655873908
81.5460744661409
93.8025343649937
100.333222070337
96.717577948288
86.9813334724411
78.8634707033418
74.6665416378661
68.6269468984243
54.2882556583122
33.0460484896389
13.1807322878964
0.446665040032244
-7.37816167222238
-13.3636831322612
-8.78455487572016
29.0152597114581
122.045436606756
272.871001658325
460.283534220661
653.868261823681
832.529671915751
989.000220873987
1118.61227880135
1207.56054654458
1234.99953082615
1186.94854247383
1067.35568364638
896.071002922611
697.892297229481
494.099532332498
301.403492173324
133.223855757077
-2.59914668362102
-107.720537098949
-192.142783635369
-266.560101568305
-335.185451958919
-396.299721623579
-448.858688953158
-496.367389623332
-542.9158055034
-586.388396262319
-617.925411342944
-629.566728797149
-622.183157860432
-605.076847664148
-587.81787672036
-573.126955710394
-557.631936835125
-538.148019042879
-515.730459231961
-493.686610355826
-473.260783536693
-452.667911667091
-430.105837572793
-406.366452267894
-383.768346584998
-363.201382998694
-343.298069958359
-322.604741915118
-301.63151730382
-282.033567333418
-264.133472006715
-246.173705591708
-226.331304278525
-204.888746207112
-183.805664915096
-164.341950586724
-145.827032465797
-127.051635068075
-108.315077860653
-91.3833991464238
-77.4000508126683
-65.4412261920224
-53.5361368180331
-40.8185496992103
-28.1355337437088
-16.5278351902471
-5.70088918000111
5.53606276839075
17.5463527412213
29.1960012423826
39.1435973443923
47.4377105126868
55.4081832883259
64.0528539556428
72.9878457293834
81.193103379195
88.4417505069028
95.513108757841
102.984068511701
110.274380529207
116.249989213559
120.624138006387
124.360213322269
128.577515220697
133.355208486125
137.883409001258
141.634059099041
144.965306176741
148.41507382454
151.703709081675
153.83470924202
154.222901888844
153.430101969479
152.58541027614
152.223713705435
151.948640289725
151.21006165694
150.084792191498
149.054364175821
148.164304434083
146.766641918123
144.254418892801
140.87799901329
137.613049877352
135.249748663025
133.81443413919
132.935563351089
132.537721121854
132.900633640458
134.050942190589
135.385460689295
136.126531589842
136.099616031276
135.872602728407
136.089793708209
136.829603101637
137.734082824711
138.640828947143
139.832521427171
141.582210607295
143.641443950641
145.413934520765
146.661625217307
147.87534946178
149.834576916816
152.873024603939
156.697834288061
160.887961077842
165.370105314353
170.277824230598
175.453616483852
180.327343108804
184.401115985353
187.76558057734
191.006474889853
194.603216801774
198.516930942549
202.38047378673
205.943244349479
209.168196592241
211.912950173943
213.71304702924
214.051481052161
212.834929962251
210.483223655368
207.491247716522
203.964781382221
199.647700281569
194.338447801352
188.133491036501
181.20794774588
173.477484073137
164.65547522936
154.703871831387
144.134322011949
133.745778185804
124.040499988338
114.938313186414
106.051696725433
97.1395871255724
88.2090101365113
79.231129504436
69.9364908176686
60.0322931281293
49.6121715735721
39.2360445974974
29.5178096644043
20.6332718794546
12.2515897265446
3.90224507407739
-4.67863920079692
-13.5726252216663
-22.9140119093112
-32.9171450158626
-43.5847498699861
-54.4525168371738
-64.7470685364864
-73.870233955476
-81.7405415115916
-88.6886223601783
-95.1046908662018
-101.259839094879
-107.422699399911
-113.983163334997
-121.305890034736
-129.436799946028
-138.034129113806
-146.650798237687
-155.065165322538
-163.301974502738
-171.380548493837
-179.156813916726
-186.456263727175
-193.259157545981
-199.602107995774
-205.265016497659
-209.683413269781
-212.316422379881
-213.114995164481
-212.531917113476
-211.02623731524
-208.644709375333
-205.191515093742
-200.755860527752
-195.877676916597
-191.065502399116
-186.244352251461
-180.896217765133
-174.845448514915
-168.795324460943
-163.929319701074
-160.969059925258
-159.728476838588
-159.599182355069
-160.273217266182
-161.764149877528
-163.74215129143
-165.143604812776
-164.725964084203
-162.047015364909
-157.757878636238
-152.881663366376
-147.939656256174
-142.893840730907
-137.785813785277
-133.081042109033
-129.190841011994
-125.813545181716
-122.053048210912
-117.292792717331
-111.798538578693
-106.327930859901
-101.268378730621
-96.3900264262655
-91.4457795016541
-86.7090806479631
-82.6418662705958
-79.1113762927807
-75.2750513594326
-70.4317722684895
-64.8336449940771
-59.4182370455746
-54.7777433163578
-50.6744905390028
-46.6944437533075
-43.1027669382785
-40.664725511494
-39.589664042984
-39.0277708036232
-37.9384436692112
-36.3493895578048
-35.3967808173708
-36.0151535764026
-37.8924881250108
-40.012038539258
-42.0559174462937
-44.7860090446518
-48.8314821615518
-53.4590120492065
-57.0451632193048
-58.8062790236601
-59.6310272388522
-60.901910448641
-62.7406095362717
-63.8768255544344
-63.2615170517993
-61.2828277353527
-58.979393114388
-56.3342527809623
-52.0345618827091
-45.1938968519609
-36.8696904734471
-29.3280522178991
-23.8786449680096
-19.9879619308883
-16.71459704179
-14.4128287900616
-14.2689079604584
-16.2093692435169
-18.1267442398688
-17.8195101010465
-15.3800672153296
-12.8941913659724
-11.6911015276347
-10.7239531210454
-8.35427662351916
-5.23062877190399
-4.1146783741174
-6.27638502615259
-8.91403232023079
-7.44113032806994
-0.562835454024999
7.86682787630368
12.7515541523251
12.9325000862103
11.3593534617218
10.0853635191915
6.54631480333578
-3.76502901868153
-21.0970411643636
-39.257296944698
-50.3175387101886
-50.817372322426
-42.7211527888085
-29.5019833719192
-13.674967117343
1.35296144540742
10.4083440524185
12.6131265050644
20.4360676239448
59.4566706374223
152.963671716078
302.560667139509
484.146427705849
665.580669191918
829.7860248076
979.959499754521
1121.6692936629
1241.38626860661
1305.27726776532
1280.80170929313
1160.06527652311
963.400435914194
723.313518388263
467.602357456048
216.382637558542
-11.4025434279843
-196.641754477471
-328.773797904453
-413.786366166161
-469.625359573841
-511.976167050223
-545.285186010007
-567.763475339511
-582.367882923541
-598.968662393782
-624.368725842413
-652.462161979476
-667.541636511767
-658.663146717298
-630.054699407088
-596.858006662123
-571.510601782506
-555.165388732788
-541.287627519123
-524.832289898106
-506.181737346753
-487.427717041619
-467.865606694792
-444.803437745868
-417.683232687003
-389.298929113673
-362.427820916044
-336.608364829235
-309.441135078242
-280.53298135572
-252.651807777254
-228.461173699956
-207.139421325408
-185.372754378104
-161.493246013412
-137.470792191753
-116.301799134767
-98.2603401622187
-80.8003492003155
-62.0624860821662
-43.3356731708205
-27.3328540600771
-14.6140001772009
-2.78000694207476
10.6400002205804
25.4104698588832
39.3878037813155
51.6137211356968
63.5459150423964
76.8915325229132
91.0249673594353
103.456118240256
112.763777309383
120.210889934816
128.035813990145
136.723488047753
144.757543784955
150.996969358124
156.408946040573
162.852804909418
170.56306990152
177.685439825441
182.501247026887
185.468769114653
188.491437882204
192.442723984549
196.166716480361
198.144200115709
198.52303779949
198.831590381203
199.824285204358
200.368325880884
198.87064205253
195.391135393157
191.709996567029
189.304648204368
187.866553923996
186.177191927929
184.025064943676
182.545625252086
182.556388246176
183.173562494854
182.635575984139
180.333778202248
177.446279642271
175.390300214345
174.130931751992
172.501941185114
169.996307529347
167.557415187074
166.274890830375
165.719235499563
164.184688477287
160.637029902512
155.927805701572
151.764766537059
148.799424700022
146.265223527028
143.513149430586
141.309222971293
141.116550204783
143.27276603006
146.451171832892
149.142738709283
151.295016023423
154.075578807355
158.166505152839
162.839600210043
166.949678158596
170.441288884454
174.336256891191
179.226351235565
184.286376986455
188.136123709493
190.451941883694
192.259471656912
194.571026973629
197.161428712356
199.026055505187
199.817081189557
200.29255365406
201.172028999165
201.938520599871
201.218597873247
198.305007318654
193.891619963474
189.119748715874
184.211779051992
178.438377260637
171.355336594964
163.576489660809
156.013038620771
148.593943514802
140.208950918898
130.023379573321
118.508856312347
106.895058136042
95.7913726155341
84.765294279719
73.3514207800603
62.0563598430745
51.9438377994578
43.2961218541154
35.1187914201592
26.1986391809709
16.4168281523761
6.68827918622141
-2.3277305907768
-11.0422195700129
-20.2499259677062
-29.9121801476603
-39.0689162408848
-47.0308548627619
-54.2941603720052
-61.9585832957649
-70.3701308120425
-78.712046315271
-86.0334797103079
-92.3589945331484
-98.4677394318856
-104.708750151391
-110.478684708028
-115.085248558041
-118.857806145047
-123.001338749786
-128.305563092412
-134.307834197953
-139.930614629717
-144.732404024651
-149.171888881288
-153.625315336796
-157.542170954683
-159.926091361262
-160.563518246463
-160.408876865269
-160.594426857366
-161.283556995517
-161.762476378856
-161.563249472914
-161.12369405437
-161.162739978119
-161.661661549227
-161.844561369824
-161.21262142273
-160.28304216525
-160.053065777756
-160.856803191479
-162.054208880172
-162.898426614408
-163.415714194081
-164.168355594455
-165.277354733348
-166.064092522687
-165.842358066723
-164.849898337702
-164.081383584508
-164.179961565878
-164.752370239274
-164.928452404652
-164.401071076298
-163.607385726056
-162.872233522449
-161.703063847391
-159.223499477162
-155.232343381127
-150.532527727507
-146.084358090439
-142.023371394737
-137.734382153254
-132.813015746268
-127.639434877191
-122.847403016654
-118.440670573064
-113.769206910745
-108.439613263067
-102.986920286475
-98.4063981412668
-95.0916890987125
-92.4854610946585
-89.8444275346816
-87.1175102056824
-84.8327667180795
-83.2020284614819
-81.6763270118897
-79.5955986626721
-77.1337736246419
-75.3092860108534
-74.9801413180633
-76.0131797911188
-77.5918253103777
-79.1991088924085
-81.006350951265
-83.2272964666639
-85.3734610610534
-86.4825274680153
-86.1073731380066
-84.813885135291
-83.5091517880268
-82.3989330328649
-80.8549221592456
-78.3128768134348
-74.9969322413509
-71.4998386518051
-67.7766005809771
-62.953557823594
-56.3560775801134
-48.5334313336121
-40.9270652418214
-34.4752880769472
-28.8408138595236
-23.2469347683335
-17.8800714345163
-14.010555193672
-12.5370475698281
-12.7222801268352
-12.8093670862474
-11.9172619245504
-10.9022397949397
-11.0036148732368
-11.8441295249803
-11.3272173323547
-7.78162060823535
-1.89709863410669
3.92244591142574
8.12120470958886
11.4630065671998
15.7220600733667
21.3303767972491
26.9705803695014
31.5200786032415
35.5920677248899
40.3715142954841
45.147787343038
47.0918141715329
44.2191949227487
38.0727123578162
32.3247153188718
28.4428015010705
23.9326840850296
16.331961503822
8.88094346869601
10.4078336835534
27.825207510005
59.0627035787471
95.8073669579022
135.409766562206
189.789606937789
279.800672620981
417.628300116868
593.175024619321
777.985455025324
943.292199204237
1074.62558556899
1169.33901044847
1221.60997704533
1212.8562665619
1119.96380249079
935.16996399005
679.157452069694
394.988430859508
127.89576481299
-92.8914326858071
-258.643600415224
-373.694845553175
-446.213838041441
-484.557170806098
-498.449076258537
-499.908312423761
-501.063192538092
-510.325645312367
-529.95038916755
-556.418841392602
-583.023421874693
-603.154520857503
-612.76972831872
-610.93535134817
-598.523634219334
-576.748932870991
-547.4329858359
-514.704235933809
-485.337709700856
-465.561611244476
-456.150343871103
-450.685492482247
-439.749479731418
-417.939784374134
-387.292132576535
-354.090993845726
-322.768538483819
-293.250844441118
-263.790959697963
-235.101787064841
-210.592473281164
-192.554110604331
-179.017048474075
-165.049896000547
-147.006940764601
-125.104038796525
-102.106208025578
-80.4165964561807
-60.9564138036636
-44.1811311100294
-30.8071910849579
-20.8287386143691
-12.3785479180977
-2.5985575727922
9.98061151615767
24.3272870009457
38.4933232448268
51.9724259766195
65.9310788381936
81.153150295586
96.4763530927609
109.819178833786
120.49387055392
129.813915917993
139.222050834487
148.376728682916
155.651564860724
160.328743883125
163.573923128634
166.927138103229
170.344381393967
172.427694374337
172.586636426613
172.281124646868
173.626007285348
177.045858771385
180.92112073072
183.628791981319
185.346146543262
187.378157701723
190.037773977614
191.973265456985
191.884987922279
190.386210375042
189.516620447071
190.432266930317
192.142977128079
192.813388197874
191.880717802474
190.308214453921
188.833981435213
186.705077220605
182.669832021921
176.935369339114
171.449927348229
168.013503755774
166.532223638807
165.533849976879
164.144769614457
162.927251990968
162.606568476571
162.565615031723
161.270953916148
158.167533158587
154.548587704825
152.180760461955
151.373486661729
150.896952369958
149.742804517559
148.367408278695
147.839725188452
148.155964569754
148.093731794669
146.88818651695
145.511273916794
145.770002367672
148.271590236252
151.804598548592
154.865339809197
157.30365357895
159.990046980736
163.089277220408
165.39370407448
165.735294405615
164.655373542677
164.0519137727
165.105490989098
167.037994182587
168.210225274911
168.069701756543
167.435728622888
166.881887132993
165.528883854919
162.006637304594
156.404911822045
150.603098913872
146.387085827385
143.620707173379
140.695715700497
136.574643037181
131.754845421929
126.997650242118
121.668290485141
114.05982935664
103.428211862802
91.1301699972523
79.3227337300856
68.7875124197813
58.5467262698704
47.6160159896622
36.5299718032242
26.6876254695988
18.4947975206429
10.852136582459
2.71198158885415
-5.35069924368999
-11.6680242845677
-15.5021320547184
-18.031569411256
-21.1317486934692
-25.576349935006
-30.8558255499088
-36.5265910774663
-43.0212883539679
-50.7999335502346
-59.1924924290539
-66.7936381351587
-73.0610933102152
-78.9052321644708
-85.2659605979563
-91.4925687061966
-95.9042171577208
-98.1568491683757
-100.422436868032
-105.501117527544
-113.743367300186
-122.383746933562
-128.228234889772
-130.714671711656
-131.977711815754
-134.15013467673
-137.262420793141
-140.011845438534
-141.960923175035
-144.143897213122
-147.419431911148
-150.940075495192
-152.875397707075
-152.494072407686
-150.952404626399
-149.893250062322
-149.790074811451
-150.124854131175
-150.884283117928
-153.077261037153
-157.398717561335
-162.810976011325
-167.065324516898
-168.674017291747
-167.934020151608
-165.862323460274
-162.63730391691
-157.681852529776
-151.168510820412
-144.693421654963
-139.95245728566
-137.025647053021
-134.556050055198
-131.67900514665
-129.216867875709
-128.579067178476
-129.839293024846
-131.564011642703
-132.612839264016
-133.435097467938
-135.010249216825
-136.78691768162
-136.489366360179
-132.335502407206
-125.007959248407
-116.899611414999
-109.598645108842
-102.811185063243
-95.9651401380954
-90.1306963296626
-87.4264526051458
-88.4598192309698
-91.1399113097849
-92.6188007277627
-92.1104829739349
-91.1470747515361
-91.1014673250135
-91.3078290226533
-90.2333226605632
-88.0183533413695
-86.7874179993079
-88.0608394149424
-90.5648229987317
-91.4320071906374
-89.4499359228812
-86.2867606502352
-84.171719748883
-83.0945519643724
-81.1903554351884
-77.7248356006453
-74.558779395607
-73.9047088214949
-75.168149651096
-75.1112108235739
-71.4053700260593
-65.191591783319
-59.4299308156843
-55.2275201957613
-50.9520119523404
-45.2417443831668
-39.776605776196
-37.8388837813536
-40.2379634163538
-43.8782104579955
-45.0736816229685
-43.5805474900748
-42.2373845839457
-42.6952800543622
-42.8399276883501
-39.3907277322496
-32.3745641640721
-25.5364208356646
-21.8962059468402
-20.0571776907808
-16.1023020486218
-8.740216943772
-1.03598640157738
3.59732291872445
5.90640024434236
9.71459119926265
16.4528111449066
22.5847137222748
23.8185648382865
21.0625001730103
20.1922507256043
25.2303784423634
33.3411420850837
38.5613802144826
40.4228603278449
46.7746481537904
66.404752702922
99.6297393427319
138.541602913478
177.957248997811
225.266939729288
297.502366094059
407.3301399605
551.250719708436
710.332818601535
860.528441480778
981.364103669277
1056.7936583348
1072.57836871485
1017.72782967434
890.682585566546
703.67931531965
480.044767400663
246.568049227784
27.1163662437661
-159.755797808828
-301.629251478502
-393.947846759268
-441.092939115509
-453.88139546114
-444.416199609954
-422.900775409118
-398.770740639463
-382.620946075151
-383.850659759527
-404.627491445152
-436.882341569654
-467.243148845983
-486.230451130958
-492.779514829445
-490.082217993094
-478.552169846509
-454.823581599633
-418.180384981611
-376.425899399348
-343.104566764305
-327.504591852772
-327.139041490061
-330.120099820496
-324.815117411086
-307.530706558383
-282.236686354391
-254.795876749306
-228.381919488455
-203.460713632049
-180.150022261114
-159.324119007606
-141.740429939749
-127.079840387998
-114.174646166746
-101.696445048767
-88.3037556495203
-72.6610130282688
-54.2497485276034
-34.4998182665962
-16.5866332963559
-3.36852758786426
4.75392877679074
9.83930769975268
14.3280679336207
19.2477642542601
24.5380294460981
30.6589690311592
39.1693970108488
51.4371595630544
67.084825051652
84.0907696974343
100.38532313832
115.033444464544
127.816947179911
138.132445376182
144.875199393936
147.544460625035
147.143725582863
145.659399606128
144.605596606251
144.153854868111
143.59142698127
142.405629542113
140.888397525158
139.957718496447
140.654091956441
143.691554412366
149.05944686197
155.754620443592
162.033053335823
166.309362815348
168.052503336074
167.778256844099
166.112734264848
162.988924292103
157.946072541788
151.198629891707
144.15717694098
138.649694555853
135.570774680595
134.332204978492
133.583481122767
132.343254160639
130.444398560184
128.13944898132
125.590348275072
122.838141181332
120.109077381746
117.949296892871
116.983724340299
117.522703464965
119.317691106829
121.612063281606
123.510184782194
124.537683612703
125.005537088508
125.755536565818
127.402589358641
129.862163964736
132.781814573191
136.352393469027
141.198868590953
146.969242373884
151.132899342295
149.957635879151
141.505902008945
127.865684731141
114.013843363487
104.075731547786
98.6857508151913
96.0610455682423
95.2358033626466
97.4850535262441
104.286156353447
114.520524926731
124.654354719819
131.946718101673
136.827686832074
141.450839215835
146.172690470677
148.439815032365
145.660884192523
138.54486615356
130.546825525665
123.82010183687
116.653508711426
105.868520708264
91.5571793675534
78.2826196057341
70.7569878114406
68.6807768813105
66.816918066458
60.516151245822
50.5521080774034
41.8011668106638
37.3266696901699
34.6486631716603
28.4029781594965
16.3319164954555
1.96952645020946
-8.70055325141999
-12.7500759273696
-12.2635173458589
-11.41431451777
-12.4405725172259
-14.6096498910595
-16.2936214725725
-17.1074560273663
-17.908320053399
-19.4405814098775
-21.6885085390728
-24.54337654079
-28.5813722430231
-34.8293082268529
-43.837144707857
-55.1329576335447
-67.4789098811547
-79.4404704627928
-89.7525721813203
-97.4914501457811
-102.219041447414
-104.008371244813
-103.253682284819
-100.518825656071
-96.6856338423457
-93.084898976026
-90.9958822189371
-90.6422607673576
-90.8073905313444
-89.8779567355419
-87.459264526215
-84.7153629384208
-82.8855375809384
-81.7359754252744
-80.0400337661321
-77.7221748504696
-76.9239140356218
-80.1923174873846
-87.5096396589432
-95.6894147731831
-101.175923394322
-103.223881701455
-103.827871143742
-104.635167244504
-104.785921136445
-102.460228897
-98.1225620870464
-95.0266579684416
-95.7871974186971
-98.9477381432908
-100.007379791492
-96.2558131170428
-90.0187179246584
-86.4323684120656
-88.0980623768481
-92.576764283725
-95.3700440764595
-94.748092588853
-92.9414533374708
-92.7624058551519
-94.0079079277596
-93.81083739415
-90.1057184032781
-83.8614698870311
-77.7102210233617
-73.1335293334685
-69.714942151707
-66.8501888893883
-65.112398189348
-65.295947355866
-66.6181381199514
-66.8816332770977
-64.8171298763425
-61.7880961468529
-60.6062238488962
-62.7271561348894
-67.0874779232423
-71.7911218732529
-76.385558680621
-81.919314964476
-88.8884036998886
-95.7897099045384
-100.117966829621
-100.584695505159
-97.9930495697773
-94.0358953973378
-89.7306882866669
-85.2310705772933
-80.6907119250928
-76.6102446564662
-73.1609009098544
-69.6246463842161
-64.9718471554402
-58.9658050538699
-52.3966533833965
-46.2150617892232
-40.8021920361548
-36.3106145173228
-33.3767383285979
-32.885112322735
-34.8239932143246
-37.7598873711626
-39.8977769736085
-40.6501384857438
-40.8231703854915
-41.1794531413715
-41.2135400081428
-39.7381496841919
-36.5326801540897
-32.8675842429799
-30.1126534429492
-28.1215386805613
-25.4443806943717
-21.147573132042
-16.0102274493966
-11.6791334893876
-8.91065086059133
-7.03040282228646
-5.02395241642047
-2.6311079091443
-0.14751871493398
2.29929365938321
4.49622452202495
5.19436002488209
2.51719604798541
-3.40477354146782
-7.94831740888193
-3.1669376918466
17.1039372018537
52.4792694855673
96.4945390403655
142.588341936585
190.494183354868
247.335874805544
322.450057087344
420.209494573159
536.051830374751
657.455223082173
767.696685567161
849.281447362792
885.820270100322
863.373657501839
772.897782096817
614.204790918734
399.762551958278
155.174614191362
-86.1167479344017
-292.918930355381
-446.004295474148
-541.327261158975
-585.03329421278
-585.30102739796
-548.677166030219
-483.691809973682
-406.427667912133
-339.729277254524
-303.608908273876
-303.65764658125
-327.477115616146
-352.786079745625
-361.047452127614
-346.513638602672
-315.524507098702
-279.117914794691
-245.885672522811
-219.419083579547
-199.754770576704
-185.777005696416
-176.442523660802
-170.638318990478
-166.510288705909
-161.192197312203
-151.56897900571
-135.952201785627
-115.440997730475
-93.4503650057636
-73.3643101243026
-56.3585664012436
-41.5872477222944
-28.4270576507618
-17.9994975691361
-11.9310398976764
-9.74896508255068
-8.31324258315312
-4.46600694510754
1.95307636522134
8.38214962527387
12.9635433612031
17.024949803337
23.4425399861414
32.7267741047875
41.720480756517
46.8941546278832
48.6146952824151
51.2652922684192
58.7638765032463
70.4347915644135
81.8577132038736
89.5929818205669
94.3502589294644
99.2608577086023
105.725412685724
111.85509551057
115.043251767074
115.228495094248
114.926283136032
116.295647934064
118.958047402011
120.955265867813
121.229304006816
120.467393574454
119.663128867925
118.703085632372
116.907285909796
114.570327167898
113.177062975155
113.841984911211
115.975583085476
117.896565600813
118.553468882528
118.173201556624
117.253455430682
115.577415400967
112.741454300181
109.367477147248
107.01436716907
106.532998271593
106.927352821252
106.406557906951
104.499871737331
102.535553831079
101.731023151773
101.285543262938
99.1011960898844
94.5402981668035
89.89937176606
88.5710914148494
91.7484108093131
97.2845462409778
101.816754530344
103.573837187876
102.840590006378
100.148901579245
94.9054691010611
86.2010256120379
74.5086124374676
61.8608163450571
50.1742220055401
39.7908684004814
29.9328373763905
20.271895403336
11.5358350831214
4.55135173520989
-0.777577796770281
-5.13510924499288
-8.66832794313934
-10.720967224242
-10.8128338388877
-9.48181096953059
-7.82840012071954
-6.4801900040951
-5.51541210454806
-5.39430144419164
-7.23281463082726
-11.4458973299412
-16.2541227078249
-18.4053265340292
-16.0728161657014
-10.9347030027445
-6.82179235936857
-6.06648448045908
-7.46401358393454
-8.0655877728773
-6.66828933433778
-4.9836012958075
-5.29918376839295
-7.57517885739248
-9.41727015161378
-8.79923406479569
-6.20571122266768
-3.80594907100298
-2.93844106291159
-2.99137528981701
-2.71187108054543
-1.92441958271704
-1.42517194674624
-1.43913607449814
-0.921555504840633
1.23005086480065
4.56768137728043
7.14946646198514
7.21682532382706
4.49653962949198
-0.213966649668329
-6.27992055836391
-13.530289031519
-21.3877185396399
-28.2985964900406
-32.5405995095481
-33.5863611851506
-32.3861802172261
-30.2737807063988
-27.881926071318
-25.2722839329173
-22.7739408075843
-21.1343531562801
-20.6751766923633
-20.6614309676207
-19.9231281583492
-18.1138575250711
-16.0845058181892
-14.9347068931258
-14.9535701681922
-15.7004501555238
-16.9004632338568
-18.7863472040244
-21.3971723019409
-23.9032742301947
-25.0907213912916
-24.5731393415602
-23.223914558069
-22.2467860424022
-22.0415599927157
-22.2459989311703
-22.7222395200383
-23.9779288215923
-26.3322059876403
-28.9812291105937
-30.4473483382604
-30.1333043135722
-29.1252090409654
-29.1678237486653
-30.9858597636655
-33.9428308176316
-37.2927153977668
-41.2128876403395
-46.1371085466148
-51.2573896348272
-54.3498475079901
-53.5164242707987
-48.9465746606365
-42.6151895078965
-36.28016704531
-30.1606009070467
-23.7103386734287
-17.2090161052678
-11.9332736061711
-8.64198747314903
-6.41060439810542
-3.47234018864206
0.843168136590847
5.40809527791821
8.61574560220575
10.0072703828725
10.2571465021714
9.81066648821906
8.18597369462974
4.91850880668857
0.786705455367381
-2.52461517757062
-4.12753798652221
-4.94582147168019
-6.77724046250537
-10.5515749049527
-15.8206537628276
-21.7973524701777
-28.2983623503365
-35.33160165162
-42.141495449965
-47.3346633392538
-50.1122489850111
-50.9166824670304
-50.511372686061
-48.7973818964555
-45.2533304160739
-40.6232419514523
-37.3097131503282
-37.1608015804709
-38.9050383316194
-38.7517068468145
-34.3361982587768
-27.8459349343669
-24.3614228359206
-26.6528663959008
-32.0341753202872
-34.973926892235
-32.7917791315978
-28.2171783643998
-26.0811960215637
-27.9745245516343
-30.7810472010093
-30.3668379110724
-25.9565515932034
-20.4415373586369
-16.8968349292132
-15.6918761320275
-15.1835680019014
-14.3885756513897
-14.0370795355562
-15.0230811830044
-16.6963803756022
-17.3459034136937
-16.1323856311707
-13.8901886951898
-11.8746198610348
-10.232828548301
-8.13575279809993
-5.15287293190318
-1.90882071002898
0.694206622185334
2.32768310377662
2.90169868561162
1.86787819061306
-1.09290536802413
-4.13538204707164
-2.49679405437974
9.35678484095719
34.3609575646076
71.9035904126123
120.659644318082
182.328252828088
262.06670746948
364.647397986239
489.546811217089
628.807828064757
768.413825042646
890.992926478646
977.957317176888
1011.46054015383
977.511539462385
870.140637194848
694.735400276771
468.645244867573
218.499112365733
-25.2306497103332
-235.313655057839
-394.408108756448
-498.162314168858
-552.741169574838
-568.60093247309
-555.706066603706
-523.917916182181
-486.355286861344
-459.359505540924
-455.830434275669
-476.720276226925
-509.460923840165
-536.53849818377
-547.380887173374
-543.063087565315
-530.538913997292
-513.660542896604
-490.716833628023
-460.135479630624
-426.639787388349
-399.945712809962
-386.830226372282
-384.922771932018
-384.61871322297
-376.856034546219
-359.010876408163
-334.266938835973
-306.973651010642
-279.523222713371
-252.867741908965
-228.179527813485
-206.804935862161
-188.91192162035
-173.19191451188
-158.276439049307
-143.967428660847
-130.635386432791
-117.762747657986
-103.879145845102
-88.2464359841191
-72.1433891530764
-57.8947845330561
-46.5964135032097
-37.1771497931761
-27.8139828640512
-17.8604129440432
-7.98447250389847
1.37434938669408
11.0082154163828
22.0348978162985
34.2978469536157
46.2083902196448
56.296923638311
64.5773557043863
72.1448899294889
79.704177725219
86.9642792536349
93.5222955278001
99.8382685596157
106.851281602454
114.689287087424
122.204802716374
128.03602760853
131.933817048849
134.778223098427
137.404462125719
139.817080281917
141.724098725581
143.501690535791
146.137857779113
150.114628886098
154.673366481569
158.493928883785
161.039138460969
162.975276905977
165.237372582796
167.950041504313
170.469135007677
172.306207929933
173.629019492858
174.714002616652
175.164911436422
174.008572729813
170.620702440346
165.393249617319
159.440729853943
153.840158739513
149.309298628959
146.43031110868
145.735463214214
147.287195242651
150.291708948043
153.430011781351
155.701960509119
156.867349104656
157.053880980308
156.175341539736
154.013321469418
150.84724105648
147.668060002645
145.473774504174
144.372238932407
143.588645339568
142.433184015996
141.11547028476
140.486677163618
141.106489642687
142.802161002467
145.169123246585
148.23260426195
152.339798539771
157.426408176404
162.658317976838
166.978919704728
169.942020970049
171.880592651224
173.330814012473
174.515913702895
175.466101998824
176.405459742999
177.69211768714
179.294265393182
180.523289687505
180.483960570478
178.777585061562
175.656489043067
171.53501056312
166.561795071654
160.785074055422
154.560422046215
148.485012681001
142.806898165332
137.046771115568
130.384582977384
122.413433614028
113.40157925418
103.844271678081
93.9743454670238
83.8594632534433
73.834847733404
64.5279314597461
56.3114705303121
48.8757171464793
41.5379764872304
33.9618312855323
26.4069309352859
19.2424887515716
12.4272094655587
5.66631629953253
-1.02534486657168
-7.24882039146492
-12.8866683285563
-18.6689087623546
-25.769597259346
-34.7471428887882
-45.0308102394593
-55.5366762498155
-65.6055585562993
-75.0921819288939
-83.603295902863
-90.0688254680252
-93.4443341982012
-93.8317291383132
-92.6312909919934
-91.4363450931252
-90.8971452803732
-90.7837867795559
-90.9643990060813
-91.9247660662548
-94.1653479889492
-97.3560755853941
-100.475082930789
-102.862150337402
-104.892932362839
-107.434707447626
-110.779622224906
-114.367310728499
-117.536825836013
-120.232911086787
-122.752268566553
-124.977444246401
-126.249302703015
-126.134492873636
-125.07957397681
-124.035309242095
-123.47740711338
-123.044730300774
-122.193007502862
-120.92718690413
-119.624737729827
-118.255306864417
-116.171529581031
-112.884677975281
-108.856167614989
-105.219330677131
-102.703347703856
-101.070204439291
-99.6966487457764
-98.4350403305681
-97.5824029659375
-97.0826137583967
-96.2046541920391
-94.3167153940741
-91.8243287392436
-89.9986409503113
-89.834728934754
-91.3773946361241
-94.3304920147176
-98.9983937110905
-106.103283722865
-115.565864479689
-125.900191410322
-135.247953871339
-142.933011197815
-149.58743202497
-155.643290246842
-160.141993370711
-161.505212677679
-159.385531511981
-155.208502189099
-150.595056040476
-145.586740267502
-138.933475152923
-130.101835993007
-120.424745228736
-111.872071196246
-104.971754584249
-98.5209734641873
-91.4377166508892
-84.373031451994
-79.0728737760655
-76.427415198872
-75.7783990724714
-76.2517620186542
-78.1136085361409
-82.1627148899355
-87.943270552147
-93.2838141414602
-95.9215573709429
-95.1015232444033
-91.0551569178395
-83.2812915459238
-70.4115451289988
-52.3167230260265
-31.6624700475151
-12.2406924344954
4.52173414045697
20.6386899485153
38.5479097879538
57.5042624612547
73.9917159641827
85.8716271156311
95.0145446947118
104.680158689161
114.473812663548
119.167295163143
113.390069449569
97.2498767991686
76.9187172023124
60.238037581615
52.6275972510474
56.5630166160462
72.1653206164221
95.70570730702
118.494920197624
131.897515752343
137.886618562475
154.68946058316
207.53939196431
308.93843743026
446.553885109662
592.300787374129
724.919814465135
842.847649989497
953.256225560945
1048.94284530108
1099.26541010267
1067.49091395793
938.999827653413
733.179192321084
488.974159947841
240.499673235854
6.03557456483546
-204.412231587409
-378.42341376338
-502.678860237101
-573.922515060786
-603.970055472811
-611.074155655434
-607.172827896168
-595.375698367489
-578.849689558813
-567.949647436858
-574.889784609385
-601.292515273414
-633.704888997002
-653.672544254639
-652.458050878246
-635.51841374963
-613.692256803138
-592.218642709076
-569.124794125742
-542.257616159006
-514.730106903271
-492.238941803382
-476.439042892294
-462.794465171008
-445.01507368963
-420.355591691798
-390.224628554853
-357.150939223753
-322.979343291495
-289.933501901932
-261.365251765434
-239.574712507929
-222.968126250603
-206.798551233014
-187.589042723185
-166.382637814154
-146.952745762798
-131.123035710135
-116.814563128894
-100.939885477151
-83.259860295495
-66.3751240790692
-52.1302003155938
-39.1944382873771
-24.8282603558469
-8.36564745749554
8.1186538841081
22.6633627478932
35.9461685651478
50.2178317655011
66.1457725254564
81.7135554670208
94.5312655785426
104.493406562333
113.427469569399
122.409495051262
130.391693486511
135.894464782582
139.413938566969
143.308243460385
149.2982907022
156.814588318283
164.216051985231
171.116885882151
178.715269038955
187.791433229458
197.15894216175
204.700601271314
209.656112555876
213.187972092116
216.561948557153
219.413124895405
220.379561030601
219.190367243578
217.371653081556
216.603904446084
216.892780379398
216.940209819114
216.161777962184
215.62299456491
216.635398486625
218.885882369335
220.603563811376
220.576238853354
219.395326035098
218.349360301819
217.50095737974
215.53810466868
211.603946654938
206.658015168481
202.520501968876
199.803714501175
197.404236124958
194.179936418891
190.578370110629
188.079846009851
187.222133976895
186.843019064931
185.556374519229
183.522971559196
182.189980363927
182.351997214341
183.090034003927
182.976076244827
181.946174172643
181.380349008749
182.304621883917
184.098568977513
185.401389701176
185.990825884963
187.123744904333
189.865515659195
193.599835463187
196.686637479662
198.422216170152
199.75718908114
201.868413790503
204.489306357907
206.189765538266
206.208289175241
205.397270740019
205.024680806875
205.003643090528
203.869562157885
200.528381819716
195.49814976848
190.0725104609
184.579788899172
178.061053732264
169.757078555296
160.372926131523
151.393191245263
143.328235178712
135.206680816551
125.984949919227
116.007141924625
106.589502439874
98.3027860384905
90.2626132417325
81.3968934180981
72.0106203411867
63.5341269938937
56.7252566534675
50.6612618026828
43.8569859795799
36.0696749178451
28.4455484618378
21.8342864604874
15.5034468733297
7.96294769721345
-1.16145489670356
-10.6507473849389
-19.2346000534531
-27.1382681131394
-35.6247782340808
-45.1560562798435
-54.5990446321269
-62.5191374210561
-68.8671413640444
-74.8719445129292
-81.3258933119337
-87.5488985425902
-92.3840765056751
-95.8692274933047
-99.3340784857712
-103.766784576558
-108.593247040516
-112.473235181131
-115.057388485004
-117.393905489033
-120.481241984424
-123.928767691374
-126.533744866043
-128.011449792328
-129.546816644674
-132.373355775164
-136.206803002221
-139.584501734232
-141.666789987165
-143.135946628104
-145.035392917894
-147.139489782582
-148.082245650474
-147.130842654542
-145.264068189399
-144.086167908542
-143.959050103912
-143.79248374011
-142.753614450889
-141.599632215228
-141.810346091084
-143.622318664345
-145.576359379342
-146.231390089295
-145.811186558501
-145.581106516319
-145.742720275101
-144.671336538783
-140.649027493402
-133.969447465511
-126.711559320404
-120.444685418172
-114.817232117842
-108.843059721981
-103.145706701939
-100.083010497772
-101.374327716382
-106.142496155602
-111.864666724074
-117.067928542189
-122.409013208435
-128.898245683334
-135.731382473298
-140.670927726107
-142.546834360787
-142.623834972454
-143.008110751898
-144.096013749733
-144.302362433743
-142.32701391281
-138.926362748213
-135.868646514891
-133.521324578546
-130.355014038851
-125.09433454124
-118.666836186128
-113.283212998741
-109.767422674786
-106.648379196804
-102.264114628759
-97.1096769341024
-93.2390675256048
-91.417049227693
-89.8396512733785
-86.3351600912043
-81.3289889388548
-77.6043644783943
-76.9122792045961
-77.7097477517531
-77.0935650909343
-74.6155643507004
-72.9916744917232
-74.4532351756138
-77.1256983816107
-76.1310188357984
-68.4348178206591
-55.8119692373468
-42.5821863239951
-31.1576973784643
-20.8938264576113
-11.224269594926
-4.50698805842646
-4.58480479433966
-12.8607088886407
-26.9051943037683
-42.9725774508582
-58.4249664447256
-70.6618055178774
-75.2012841639338
-68.2056247750329
-52.7133103860001
-40.036087727894
-39.8990211400492
-45.7218297115004
-30.9002996260561
35.4781883189505
164.608836455708
337.789574014869
520.699569791688
688.755729059148
838.899765134841
977.401060255173
1098.33574252407
1176.59986953261
1183.14099997215
1106.60110647707
960.040539912528
768.516944447269
552.962394956824
326.689635207017
103.931936357567
-94.3012865847034
-247.29751015767
-348.289458020246
-409.496600888169
-452.200631205642
-491.300865079783
-528.738178967109
-559.699811757414
-582.32001352694
-600.024674696848
-615.805411611154
-626.907914650835
-626.778068861056
-611.998895900972
-586.477364267469
-558.780692701521
-535.94580845619
-519.774585595326
-507.786917150587
-496.21889947636
-481.932049053399
-462.914362475869
-438.728058496962
-411.059321192807
-383.086227625419
-357.345681976917
-333.952552567423
-311.157485358088
-287.696430731831
-264.253915665561
-242.422415503848
-222.576146163373
-203.332469772369
-183.219144034434
-162.421897395536
-142.470803070477
-124.354294329456
-107.454437431317
-90.5404030378294
-73.4219647178329
-57.1179229510703
-42.3901544387883
-28.598228816313
-14.371737545139
0.756186303041162
15.8163743109217
29.6005872706632
42.038249001787
54.052656633743
66.18692065973
77.8247688112367
87.985724189827
96.613067186753
104.667269809971
112.915813536886
120.989715075397
127.904664643008
133.350201051444
138.09627695987
143.045846113435
148.203342122977
152.882182844185
156.81863710138
160.678534992202
165.262474455522
170.439816826737
175.214529605078
178.867711918045
181.734769183686
184.656039046396
187.851664777093
190.689391820386
192.61916356738
194.010270326912
195.751180000013
198.095072751771
200.241666492867
201.222959180951
200.995566071472
200.383859672755
199.992857936762
199.50871222785
198.261442023414
196.265453394745
194.338674755645
193.118316127353
192.245606219758
190.790704126256
188.397980022872
185.716026901658
183.610749147303
182.214111956005
181.020439128071
179.829301823367
179.218435321366
179.8689735733
181.603882491042
183.408684356645
184.44426920412
184.788531117247
185.021590995047
185.287893435427
185.122257838347
184.263715160051
183.324501706564
183.345663937279
184.750110910058
187.032855662868
189.583032672416
192.542717887122
196.552760473447
201.716331524819
207.178577930983
211.936206790253
215.855444011119
219.555627159697
223.280807984147
226.238336116391
227.323570551749
226.352857384959
224.226136389391
221.785860004473
218.815433135723
214.446684271767
208.424485959272
201.563821578747
194.785951927123
187.979205496028
180.175719467634
170.838364657209
160.615546297774
150.614480454863
141.158424991194
131.631068822199
121.552263094926
111.404856303857
102.083104399585
93.6885729109565
85.2961971227629
76.0495130705339
66.1815847176053
56.6373665031845
47.8088998099053
39.0635170028551
29.6842464729379
19.9420447682892
10.8138002028752
2.6590332403606
-5.39635886362494
-14.4872207196504
-24.6425544898044
-34.7751934692814
-44.035357439268
-52.7556555577157
-61.7524917227862
-70.930514267641
-79.0951289175388
-85.3133214499647
-90.0982431400969
-94.8571336333899
-100.268596416867
-105.649081594756
-110.085570358456
-113.80876485367
-117.977043541498
-123.149540358828
-128.480787779124
-132.744438102262
-135.884974498473
-139.076212353205
-143.205169611971
-147.760760304226
-151.566866546693
-154.359033120747
-157.088893507242
-160.540939229312
-164.117039218783
-166.453711006276
-167.104308877336
-167.067399467083
-167.438461056254
-167.956921206426
-167.389506268806
-165.260292772654
-162.615494784003
-160.758812083223
-159.606284425554
-157.87409585431
-154.908965208089
-151.747132541048
-149.939857601738
-149.627742141874
-149.393270232576
-148.115822517065
-146.393048656553
-145.629703424287
-145.991113429434
-145.98519541081
-144.325591070031
-141.668574596944
-139.892958203232
-139.800462610898
-140.242621355309
-139.839694394019
-139.002222272502
-139.495285483427
-142.029150869496
-145.068931940008
-146.552468226246
-146.356516364863
-146.255522841286
-147.359805045175
-148.405247851278
-147.244361106235
-143.662797291478
-139.777701387757
-137.372661714024
-135.619021409682
-132.2550156636
-126.76774712671
-121.364895167695
-118.314305571889
-117.048000355794
-114.884553557373
-110.5327081088
-105.794458797001
-103.149258624074
-102.356434170053
-100.642034767498
-96.3606790625208
-91.3123974282914
-88.5108196895246
-88.211884806671
-87.4583195274319
-83.8146356300484
-78.312330172135
-73.5869521188986
-69.7513602631206
-63.9002022657386
-54.3736918240713
-44.1138548231763
-38.0659596010557
-37.4768657466918
-38.6946076361262
-38.5671470110038
-39.3493055292045
-45.7704021055002
-57.2262896964597
-65.8153277367042
-64.6267064312542
-56.8216858573856
-52.8762202842575
-57.3546418780066
-61.5014238698948
-53.2358251689519
-34.3059525296076
-21.6703739559812
-25.7505703406817
-27.4465327093018
16.4426637089977
137.620037445794
324.21877426814
527.502900371045
703.817600527228
849.504587677994
991.744016468842
1144.53985606977
1277.02113874469
1329.09490921272
1259.9023730274
1080.95043670445
843.341065367551
596.163164407991
358.918836338371
130.019330321218
-86.9984477517538
-272.708658110583
-406.599619970558
-486.980504946924
-532.165937491831
-563.003790219377
-587.498072884384
-602.870411669588
-608.564717819594
-612.528909351792
-623.888297093639
-642.384493853743
-657.811237424212
-659.749284230264
-646.282460195556
-623.20007770987
-596.909184017371
-569.984951098777
-542.703290552101
-516.010554786399
-491.182581901338
-467.485777789456
-442.27553241955
-414.174414309268
-385.158630607945
-358.490356314588
-334.948743195814
-312.167663698789
-287.87717591471
-262.817088743457
-239.645351755703
-219.432249287302
-200.342070414944
-180.068703690047
-158.694801777349
-138.288378329295
-119.970845042725
-102.429724791709
-83.763467342416
-64.0976414391708
-45.5007167069578
-29.3869351285994
-14.8575790528111
-0.0624977648193266
15.3536315117289
29.9632019334521
42.6742148382527
54.3140002134561
66.5541281112341
79.6572041070187
92.0688458563938
102.380956332238
111.062842752107
119.736935239476
129.064125116629
138.08207446538
145.805123055185
152.842562730704
160.79753923225
170.207130904946
179.743898271743
187.733075831017
194.000108452003
199.681258678364
205.361487196892
210.091112816749
212.60203948003
213.082396756395
213.12010097149
213.853630752725
214.730105815661
214.456473246761
212.852391773558
211.176650243898
210.554475667817
210.620830139083
210.14819023412
208.769343337574
207.481493896701
207.274147669708
207.717539859018
207.38238408032
205.53854894488
202.93034930846
200.691900591986
198.911521046576
196.738712854901
193.806006174364
190.981971505858
189.401569261332
189.048246821094
188.769176104202
187.707136302123
186.281222215074
185.491632523404
185.561061515355
185.758498236622
185.601232893029
185.744945906476
187.285244865451
190.342045554644
193.794134293728
196.536868694667
198.641528971481
200.951358576583
203.734422226758
206.241927661705
207.765643470661
208.741429384001
210.350947172313
213.06588459324
216.009007983088
217.967286759627
218.752315815811
219.183869303026
219.808670463176
220.114629351165
219.291806198153
217.494960566307
215.874574506347
215.268607736978
215.219676359975
214.559205020303
212.760898066416
210.311778911158
207.707033451578
204.500790790189
199.715118953112
193.043089457149
185.205678150901
176.969285493041
168.138757728599
157.874568010315
145.905467010011
133.015513727989
120.175246074002
107.514793130629
94.5303633030755
81.2124060768364
68.4926202885138
57.2987801044094
47.4085052786058
37.6388291457359
27.1883532989398
16.4317202576964
6.18624725376457
-3.50957834891022
-13.43475849241
-23.982307823063
-34.3637635671226
-43.376948079323
-50.8193190408978
-57.7300291793325
-65.1392124468165
-72.934955012943
-80.272192483981
-86.8917711806461
-93.5272658680626
-100.837089395424
-108.3229304774
-114.761959151723
-119.672980075654
-123.924078032152
-128.676905173597
-134.032691156387
-139.118609803806
-143.426077144753
-147.549133286656
-152.298257680261
-157.386774245354
-161.52137756459
-163.888574603619
-165.14271496935
-166.600801290207
-168.67811683015
-170.579334339528
-171.579604340548
-172.115161501731
-173.177366941304
-174.815968141754
-175.814747330867
-175.087581583316
-173.037844577692
-171.10926985041
-170.096950523397
-169.399839152694
-168.129946324848
-166.517481582697
-165.666670228058
-165.956328240359
-166.258390175841
-165.123264278054
-162.472892943966
-159.622268322484
-157.616378395028
-156.070617647346
-154.004578878698
-151.47774439895
-149.756000258532
-149.729325703606
-150.707219465226
-151.276551527389
-151.149154022634
-151.541455648912
-153.535164223402
-156.571491178218
-159.090133647377
-160.457593454593
-161.561075979727
-163.217226165217
-164.554637351705
-163.696885134288
-160.036590825876
-155.146972850078
-151.025003332438
-147.854076124835
-144.178120424084
-139.232582571685
-134.274416483062
-131.020506291883
-129.194272561599
-126.53770902137
-121.513404124516
-115.310370583964
-110.507918243682
-108.036238108195
-106.323487626771
-103.683389210644
-100.714177510391
-99.427124563905
-100.179796709299
-100.52925554275
-97.7169392413174
-91.7158039168807
-84.9630383656171
-79.2446252174517
-73.9446822986227
-67.9277124678032
-62.2124016232264
-59.3140832469002
-59.7019985447167
-60.1971002817863
-57.092268393502
-50.5481316540978
-44.6719246397089
-42.9436680299156
-44.6979817908222
-47.0147853991567
-49.082690495082
-52.7302032042584
-58.4704660832798
-63.6040987787632
-66.8072968354501
-73.3599327157984
-90.6229773811017
-113.675192782128
-116.164700703025
-61.5894599646154
69.5508629416884
261.131458156384
471.395623880533
663.996852203186
830.079659683582
979.883349583474
1114.39073064479
1208.80563344261
1226.64104823322
1150.0830345713
995.360932971316
798.88961397457
590.850357472927
383.367236482666
180.888441841934
-4.90695952493912
-155.701570940035
-261.669865003963
-332.072749673327
-387.809021142874
-443.566894080819
-498.484000402594
-543.451106521625
-574.458450479051
-596.55713804183
-615.9414454863
-631.554470072698
-636.527059038317
-626.866656228354
-606.553857008106
-583.594553522459
-562.585704972777
-542.422930610879
-520.462952757671
-496.864150069411
-473.949369731097
-452.529189688232
-430.626709866981
-406.149018356017
-379.662731749092
-353.614456169373
-329.272313194016
-305.516958790007
-280.858128236322
-255.726621372885
-231.952798556401
-210.284476036387
-189.389330573676
-167.686516583652
-145.542432601865
-124.925300996395
-106.990732158946
-90.7212922914362
-74.2666687046158
-57.1226459281443
-40.3610638168459
-24.8249376089668
-9.84093896525106
5.83749387420641
22.1869953809014
37.6728834173987
50.9553910232567
62.3470559983455
73.2174866130072
84.239252227102
94.7780294036005
104.089749308667
112.576817122162
121.357859345623
130.723350767616
139.557681444101
146.542541383742
151.637892759859
156.008679711285
160.59345768915
165.20055519213
169.211918529882
172.82409177611
177.099219045841
182.727248134575
189.114471720015
194.985103389516
199.734002583674
203.855825018126
208.019066823
212.064589477961
215.19058057391
216.973082844619
217.826960337515
218.338679143105
218.416073955178
217.400493060309
214.984867169932
211.742711501948
208.623584813116
206.106365653842
204.055465528434
202.314960930094
201.116477440332
200.723679886393
200.846300556248
200.700114066997
199.724199756754
198.082584956516
196.354629563565
194.861693122562
193.491153160099
192.148102569345
191.107952949801
190.710660192783
190.779756244251
190.582696493075
189.483069018045
187.545264804714
185.401538593781
183.603319701656
182.267819904579
181.370439993541
181.171107313444
182.126060582968
184.361335142104
187.390893505336
190.472054390863
193.210037854394
195.754507398131
198.4635679677
201.515188507903
204.883724792883
208.55010718567
212.543950114796
216.728878620477
220.643935953467
223.650319584995
225.23238544402
225.134346897428
223.277510847106
219.687234369108
214.564643502769
208.339240978963
201.504740662921
194.344838687028
186.860728062246
178.994867389545
170.872956546733
162.763425047259
154.824767522118
146.98367621575
139.09702068595
131.158417228639
123.248406361081
115.280815491443
106.89098509517
97.6506775019343
87.3913532196863
76.294999536306
64.7078752404169
52.9415174371032
41.2616483888199
29.9643946086788
19.3312104613549
9.46384425322012
0.205694061693748
-8.7352817791496
-17.5926961457492
-26.4616844214399
-35.3306210235518
-44.090958561282
-52.5027207107351
-60.2474702364966
-67.1218450315528
-73.1991513945641
-78.762155983215
-84.0752068109722
-89.2695205673756
-94.4515283786336
-99.8137209255022
-105.506099652161
-111.385172874535
-117.006935221699
-121.974060702838
-126.27692066868
-130.224787066733
-134.059515859858
-137.746192684296
-141.187518244863
-144.517981438134
-148.006476632394
-151.642981548277
-154.979406537976
-157.522793864141
-159.247474542305
-160.583164007516
-161.885238581916
-163.072850280556
-163.900480523787
-164.461352523092
-165.172403933818
-166.182707710705
-166.987632054659
-166.850868159749
-165.594511353467
-163.77915762892
-162.03650863017
-160.414238268238
-158.581549674508
-156.587297549257
-155.085312171953
-154.629843329696
-154.931631408928
-155.110358319895
-154.705773465021
-154.172588759105
-154.213320763326
-154.831860009951
-155.382090190293
-155.553326181391
-155.923876948186
-157.236235731906
-159.289779872381
-160.972419839597
-161.513919252118
-161.3779082937
-161.591336348652
-162.352505288908
-162.772893297519
-162.143950231359
-161.034236185917
-160.641957756078
-161.135745130187
-161.188384847732
-159.461013557393
-156.203250604339
-152.858146897281
-150.128377084885
-147.05800415852
-142.431208046307
-136.691239862006
-131.750991603177
-128.77412706865
-126.778202406698
-123.973880223968
-120.160786672867
-116.986353938199
-115.616191258473
-114.86020170858
-112.322245479842
-107.143977904016
-100.704989300341
-94.3592495954212
-87.4137787737057
-78.3686518095332
-67.8785213428459
-59.1251843082956
-54.5162923946078
-52.8844650292372
-51.2563947487814
-49.170136815887
-49.4287821740448
-53.439973979115
-57.1776918771022
-54.4333823623892
-44.898483935919
-36.7880719492507
-38.7087280393172
-49.1442599655185
-57.1021749845473
-55.0807580820084
-48.6958276186882
-47.9797231107027
-46.6363356442992
-13.9060061199848
85.3622450180377
257.649077876291
468.691256552178
668.521712002993
831.005332305928
967.670683133828
1100.9671974152
1225.03376977837
1296.25630331012
1265.14815972567
1118.17947287263
888.891019967284
630.436997943735
379.753822397622
146.877563850868
-68.0835301544507
-256.19432438746
-400.996133903385
-494.587033999861
-546.585264572708
-575.271407323875
-592.483942163063
-599.725542982807
-597.398931457885
-593.045982367782
-597.287653482375
-612.700224674123
-629.865477358315
-635.908817617073
-626.003037421694
-605.63200220062
-582.881108771863
-560.794774745148
-537.636477624098
-512.264221246116
-486.630465875543
-462.888185961442
-440.176277457207
-415.906218572017
-389.62048652927
-363.90438260852
-341.031995662386
-319.927255061841
-297.572742766236
-272.97857206726
-248.422481478018
-226.362456532985
-206.161909905943
-184.937004154058
-161.342867072403
-137.301158154206
-115.482540616569
-95.9443068711732
-76.3209332937998
-55.2058618431532
-34.2144796332897
-16.0625214316226
-1.24822314294086
12.3479262206277
26.5617927757578
40.6440839995831
52.515358841685
61.773074407967
70.413035988068
80.3581593934619
91.1126837614403
100.607402473263
108.032510154642
114.888395200681
122.947061606547
131.932081491372
140.02296897425
146.461096841258
152.728811624947
160.696948012009
170.179289504973
179.116276311825
186.129376730236
192.080675303141
198.631313451345
205.775261805166
211.65432468404
214.913090937303
216.484319502886
218.440042889934
221.386655891275
223.76068435526
223.872189531549
221.989004938493
219.799624563287
218.089570607765
215.770811048921
211.537507656992
205.927036009555
201.055894989441
198.374169208735
197.333734488123
196.575747160635
195.91214012752
196.431893897767
198.673955211186
201.422435594663
202.82254921009
202.390629631652
201.297434882704
200.609692973144
199.869648273093
197.883670317091
194.594275537026
191.453966012611
189.745054328533
189.070453438758
188.042941023757
186.276316168905
185.031597092075
185.640729209099
187.778905981519
189.866736121824
191.069381495786
192.251455430911
194.639585590802
197.991231330652
200.728801465928
201.895655596231
202.369861094086
203.733920951052
206.269484971708
208.672719960762
209.800208031912
210.09599468046
210.823333596008
212.170130795877
212.793506172486
211.443378966284
208.531803631964
205.577635579434
203.260558850546
200.637298442145
196.505832179875
191.052833106703
185.576858790631
180.682345271278
175.402423342959
168.473927294936
160.098693691997
151.83800566965
144.735016195351
138.101178093882
130.524645880597
121.721255611673
112.753111598586
104.345564568351
95.6076219286325
84.9641503488153
72.171217519405
58.7960209546191
46.4990970485373
35.3047927130089
24.0387824478405
12.2590973245371
1.06957257532126
-8.2724841363596
-16.085879518049
-23.9875744428701
-32.8961441724662
-41.8722130462078
-49.268353715397
-54.6695383044122
-59.1422482933407
-63.6012215402968
-67.5753744972282
-70.0437471289813
-71.1818593073716
-72.6111097274954
-75.7377474732986
-80.3231664674075
-85.1234400852145
-89.6859753648118
-94.8803171557189
-101.487168395075
-108.81827822042
-115.314901482544
-120.387668642577
-125.028289648271
-130.31697810378
-135.779816282826
-139.81417681958
-141.680650012173
-142.450711373366
-143.645376644797
-145.360483970098
-146.376116920489
-146.107897544728
-145.757569233413
-147.021874089523
-149.959826080596
-152.812347057538
-154.074424725145
-154.179871380123
-154.659477520824
-155.948355745319
-156.782574565776
-155.991149112553
-154.267104402127
-153.47536532896
-154.301264545263
-155.282276825886
-154.508030722475
-151.806686915489
-148.631157234195
-145.918142348224
-142.859706565686
-138.255214108034
-132.594997104812
-127.975099740513
-125.80382617742
-125.245655768883
-124.443576568465
-122.914015510336
-121.964901760097
-122.642510517822
-124.051066685497
-124.415876302887
-123.539660290009
-123.304502190018
-125.370722757268
-128.987246526585
-131.811074592096
-132.729261127526
-133.006694537852
-134.260185602539
-135.988688769402
-136.041942578774
-133.508013791768
-130.169056974989
-128.432211750461
-128.302548249896
-127.359978731431
-123.843228973582
-118.829700026297
-114.632884969128
-111.554901868075
-107.407268104305
-100.590735011652
-92.6814278925325
-86.9087216229718
-84.2740266505577
-82.3392456268912
-78.4029820006722
-73.0361268529872
-69.355043692761
-68.9484756908919
-69.8385102059223
-69.2152946416347
-67.2518486920964
-66.6715080380822
-68.3916699569724
-69.1747048368209
-65.0261210245758
-56.4536111117825
-48.6312620893178
-45.6273980858022
-45.720669606104
-44.0125843253712
-39.3795943034626
-36.8032684165246
-41.4951685835207
-51.7516832253731
-59.5898992079253
-58.4528584677719
-47.6465325566615
-26.6362637772439
14.2183984790418
93.1260585172261
222.948115339926
396.494252923475
586.8724121951
763.871959730336
910.463041499526
1023.72003839373
1101.63784867356
1132.06346349294
1096.32577109768
983.470500121128
800.573812465146
570.711726110267
323.452111337896
87.3550275945514
-113.10555198415
-260.950133649927
-352.595365028815
-400.660316717559
-427.3033554386
-450.84944355534
-476.76505417748
-500.571156252623
-518.153581432797
-531.945990825491
-547.411217143638
-565.629875453312
-581.287582337565
-587.830568721181
-583.056378056519
-569.031390504713
-548.045917615431
-520.845773358146
-489.280925787269
-458.843607690483
-436.30590865368
-424.078112405063
-417.595201778391
-408.960710967236
-393.096583866278
-370.28391862353
-343.648625226051
-315.649695574315
-287.464092816286
-260.503347454857
-236.684510961523
-216.584188556999
-198.225268187156
-178.768542291852
-157.456171119363
-136.215183774085
-117.142767955951
-100.031272052144
-82.9817124307637
-65.1438282298973
-47.9390633618354
-33.2003309079443
-20.7041707915135
-8.3123254441646
5.48396353958481
19.8818634218993
32.9882309114661
44.210751922212
54.711822738674
65.5085412383881
75.8998023339884
84.3614986110375
90.7075865908855
96.6321623829593
103.886825926746
112.419109271195
120.778891852245
128.110957034923
135.07337447337
142.584502278421
150.230418265103
156.565782523023
160.954303322071
164.506495334397
168.838768600006
174.218896940629
179.428126836633
183.403419870612
186.452775114733
189.517163902336
192.599674677346
194.560768330196
194.604042543163
193.486809076553
192.821789005913
193.321649103079
194.185515117747
194.300414174625
193.594866329381
192.805388804708
192.119862931052
190.663705433094
187.614824314721
183.491604967398
179.86688532729
177.805956197385
176.984610193617
176.525633928355
176.340031376129
177.163241645415
179.295800772237
181.835738984571
183.544599387463
184.281870485162
185.123514913395
186.961422564624
189.356920240708
191.089138605611
191.637139283299
191.658610761516
191.904656373393
192.096288612374
191.321103773888
189.455340941103
187.704019953089
187.457830879622
188.844691687898
190.751240370734
192.197238546964
193.252685708376
194.388968338422
195.279761751081
194.789730196207
192.268824992318
188.473744541517
184.858132602435
182.067062833296
179.488646124201
176.329197988072
172.722278770373
169.418154705038
166.545013771232
163.189826438709
158.448552987649
152.604008465395
146.855158496529
141.878035993217
137.019065953634
131.112491356645
123.833826901547
115.865415325111
107.763903465953
99.1372647457394
89.2991629087719
78.563683572473
68.4276071365445
60.2799194645974
54.1671994466364
49.0703419411035
44.2245354780508
39.7537700227084
35.9031989556886
32.0567714655788
27.0021387321334
20.2087667624998
12.481134743677
5.10234928028277
-1.49033508584956
-7.88044203808391
-14.5918826214416
-21.2488181141808
-27.0755027801388
-32.0060651401915
-36.8518362072422
-42.2425806997361
-47.7237047860845
-52.2357692788505
-55.4166842233532
-58.0944467582566
-61.3817143948733
-65.564731499308
-70.1695975006626
-74.9767099160254
-80.4996348851583
-87.2063182433285
-94.5060562654399
-100.915705394285
-105.317133307108
-107.802996608112
-109.146651662739
-109.705152675249
-109.225484750778
-107.719195891861
-106.070980033719
-105.383614664541
-105.801461704054
-106.355860540791
-106.113250780367
-105.21259981867
-104.508578660739
-104.358525508736
-104.208254127616
-103.541312918324
-102.880575668542
-103.382987332912
-105.412600947871
-107.908576767913
-109.441373396618
-109.699188383119
-109.563469583173
-109.727275092203
-109.685411203004
-108.428504557307
-105.921806308932
-103.37847497777
-101.881532594888
-101.087879545573
-99.7062131632682
-97.1842804256718
-94.4777292885331
-92.9462570290669
-92.8255075451145
-93.2332398405356
-93.6239236972495
-94.6919948335127
-97.4666084558374
-101.77379805453
-106.145523509171
-109.393224224297
-111.858900710397
-114.737695361855
-118.379144717301
-121.815746389078
-124.125041996766
-125.744739993838
-127.863920181329
-130.593739085621
-132.382052508139
-131.635438995403
-128.597647972608
-125.059794460623
-122.217590812741
-119.441095753125
-115.586527068726
-111.101543046121
-107.983722851094
-107.388075592766
-107.905239695227
-106.929145870599
-103.631215489035
-99.8334060868669
-97.5937925251071
-96.549474074992
-94.5155137315298
-90.6944991892423
-87.3105949898552
-87.2497245756519
-90.3514721241883
-92.9229486402745
-91.1976954304992
-84.6290382204936
-75.3013835148377
-64.8724784224978
-53.5408616109891
-42.3501889411874
-34.9301905207976
-34.9438332220737
-41.5393738878238
-49.044099051739
-52.7233786472033
-54.2445228455698
-59.3623488972521
-69.3736246233003
-76.7350232857917
-71.7717103826036
-53.7422183466073
-31.8492663729159
-11.5816059590473
19.9562437074336
90.8778719101541
221.643134489924
403.202243223966
599.299738620506
772.8644079537
911.007956141395
1023.57083575385
1117.4831113137
1174.92034032022
1159.65612787736
1046.69692997147
846.300534832568
599.634313062906
351.856279176484
128.717798875875
-64.7721692704548
-229.463449409891
-360.882055074186
-452.682364832284
-506.982701086645
-537.131419976122
-559.094841741799
-581.137319991026
-602.275112901452
-619.061435932958
-631.564179834345
-642.291130509721
-651.139655631901
-653.580787991311
-644.416023829182
-622.668147877973
-592.513233294661
-560.16752561689
-530.486985004395
-505.789949593421
-486.088795154226
-469.231053621099
-451.396299642777
-429.120000378164
-401.919368409957
-372.764173545317
-345.33059862538
-320.661384716889
-296.829270877482
-271.8441345602
-246.281969057128
-222.58974509183
-202.144230629808
-183.77581523485
-165.426897616301
-146.638780804378
-128.703727226606
-112.494718329284
-96.9683844151873
-80.3287725416432
-62.3010821274093
-44.5465691205062
-28.707748888291
-14.6103581806676
-0.838977683806846
13.225978302449
26.6304006876447
38.2637643749516
48.4975867619617
58.8617014981924
70.2238585752132
81.8686145168927
92.5927742488652
102.270391362709
111.860998507205
122.05643370227
132.55811707165
142.906914198184
153.428782344516
164.611381169204
175.563585051936
183.883557941989
187.696655734854
187.637382971163
186.190954346156
184.935080233208
183.007331346796
178.82224399002
173.023324146752
168.915178282785
169.559913681794
174.838215688033
181.923039579474
188.509164117953
194.846829165737
202.241372213007
210.159831677472
215.795758576609
216.764532733074
213.590990131909
208.889099556143
204.29397299475
199.00531667679
191.712124637405
183.362988761939
177.166913564527
175.68516476892
178.505161535845
183.245059272239
188.523371066566
195.197952421279
204.438120733455
215.115320686007
223.752379890654
227.126855445049
224.596915359069
217.870240854064
209.09403818161
199.756654951652
191.262188002894
185.661191678935
185.006896463861
189.88489827615
198.86839003665
209.442272478944
219.138038804724
225.735533770224
227.136588432116
222.262088147888
212.769986281859
203.509017037376
200.168888442954
205.416170039386
216.789890950038
228.367545618992
234.885247251422
234.974560194383
231.249067073672
227.722382825704
226.843884399069
228.190221215516
229.365622445385
228.18477068649
224.419775673496
219.665749412672
215.362313184098
210.849822851278
203.679586170975
192.27280811483
178.226171880904
165.378869121774
156.080626104598
148.572079485775
138.725600730261
124.691901259516
109.387544687884
97.7489478678225
91.4845714222645
87.1104827553444
79.5726768282526
67.5056441437245
54.3404934285478
44.2258581547829
37.5404607646022
30.944489563152
21.4645498484248
9.61334591816166
-1.85066414410079
-11.5339476693686
-20.857632753284
-31.8814259474566
-44.552889422882
-56.8221411518854
-67.2134799640223
-76.4497070070287
-86.2124261784568
-96.8643764640136
-107.08333605586
-115.660378380676
-122.931634004204
-130.015170474732
-137.051932183531
-142.898802711484
-146.652741716937
-148.90313133697
-151.034247837689
-153.55658896459
-155.707405498765
-156.777387370249
-157.273950180734
-158.309259221029
-160.08622952522
-161.632796222676
-162.241337002364
-162.695224090525
-164.55787041651
-168.359895589607
-173.021353825784
-177.235397866017
-180.937505551193
-184.88444662997
-188.941944084585
-191.492093843022
-190.94586749832
-187.523388929384
-183.009120739172
-178.769598039434
-174.559594850898
-169.56565974557
-164.152686909671
-159.853463093113
-157.52561936641
-156.127974776616
-153.834631072721
-150.128496603811
-146.176681181831
-143.018375337878
-139.982171130926
-135.456225906652
-129.008263410331
-122.028285430087
-116.00426376176
-110.710957868149
-104.772163015169
-97.9393110279575
-92.0981118469075
-89.5816553414038
-90.8286448898573
-94.2570947603286
-98.3447740092516
-103.11184116874
-109.142688675933
-115.647561687271
-120.342739294518
-121.445167773608
-119.2137530023
-115.097059934024
-109.794131095428
-102.952997238489
-94.8485842935695
-87.4624144242763
-83.0459853867206
-81.7562291882571
-81.5243259639726
-80.5806764601625
-79.4864842511243
-79.9906472382886
-82.1711063206747
-83.7081074456339
-82.4218709003776
-78.8072248928623
-75.1180666972745
-72.0775165847702
-67.6134764723066
-59.532152235584
-48.7741388758708
-38.8490729680415
-31.9117231466478
-26.498745195224
-20.0045455274407
-12.7603546907903
-8.21785423801163
-8.63831128359257
-11.6860870892917
-12.4477663734719
-8.48622627836622
-1.57278640027951
5.85110025053821
14.3022665188958
25.6064553272275
38.0402035817256
45.5020776848909
43.2168110907762
33.3218404911258
22.5186664100117
13.6852219334609
2.07940886194061
-17.745503630369
-41.8959658951063
-57.2813599749714
-53.9741277933142
-35.7476718223688
-14.3064528619317
8.94782073049613
53.0465906634321
144.886981255374
293.766249994681
478.72352604007
662.632615616828
819.19380090504
945.527382806529
1048.91680142093
1123.91217364261
1145.42743485652
1085.50922902692
936.83020267548
720.731283185009
474.804375989723
233.958310113628
20.5563149316313
-154.04042976131
-285.041789145279
-373.468925724925
-427.218696703135
-459.179471938083
-482.296651500665
-505.71346591602
-534.143720153009
-568.313079851734
-604.358820714423
-634.039303827741
-648.713032971117
-645.464502704878
-629.396888329598
-608.878861850412
-588.27696588799
-565.967087801054
-539.46540713461
-511.088618778723
-486.96345577561
-470.393006071657
-457.616475013334
-441.258494504787
-417.634555980139
-389.684323056769
-362.748653475651
-338.738217935706
-315.405432989055
-290.630909775751
-265.724846989875
-243.760731713723
-225.63630916186
-209.160321915094
-192.093580286104
-174.867717584348
-159.418948377404
-145.911478809801
-131.881530321036
-115.012975056564
-95.9269565131514
-77.388284016421
-61.0227693188802
-45.7658593719524
-29.8419447337653
-13.4543919491064
1.38827033928918
13.5611976826254
24.3702856237329
35.9022713753445
48.3766128383546
59.9617337094035
69.231978606431
77.0265495054539
85.3712394818142
95.0117910808775
104.81329451788
113.667549464006
122.207417205514
131.976714551668
143.172992986492
153.999611803488
162.526832027112
168.672414012374
173.824296123838
178.773646638794
182.77866710489
184.930961377091
185.837751349155
187.211679640395
189.805357050282
192.403873928403
193.24786531506
192.088238315627
190.277088629932
188.906758764618
187.541268213403
185.203704115192
182.207128726347
180.25907838422
180.565514086637
182.351305694601
183.729115875442
183.826049660916
183.494162197788
183.835247321506
184.612290929921
184.664572215514
183.697572331603
182.963505121924
183.831350946882
186.068083511952
188.065241545674
188.717845897659
188.547244983915
188.719762305505
189.392591979712
189.626365913522
188.921570454134
188.221363871365
188.934152007841
191.19610407699
193.646657889549
195.025803190477
195.53396539005
196.25526962988
197.52344294433
198.463768721536
198.296333716553
197.572873168326
197.586028911954
198.651258215427
199.522864859279
198.762857096964
196.333531958201
193.409115580381
190.758542093126
187.904398169069
184.15557453784
180.037690908512
177.060779205946
175.974780549318
175.737006094621
174.569948426719
171.802898610191
168.19944227855
164.48339702486
160.129609574748
154.073079830114
146.370415861398
138.513859126028
131.843693677247
126.035791569021
119.602062273416
111.75901851087
103.278149782877
95.3087684432786
87.8269399161734
79.8003147488998
70.8185270315643
61.9485735752547
54.5841922982672
48.7302547919009
42.9509711048905
36.0618147919142
28.3936347384031
21.0658311496023
14.3445523588177
7.32513081531592
-0.658346991535417
-8.85576817718909
-15.835487800718
-21.2495289463411
-26.323497923836
-32.3970788790159
-39.3842748256022
-46.1056235257566
-51.9566921547153
-57.6283232593376
-63.9142957559388
-70.2657071479723
-75.1531690433545
-77.8991644269196
-79.6208307804089
-82.0049625757905
-85.4438490902079
-88.8914449538358
-91.5335009396444
-93.9844148302934
-97.387539171637
-101.63876571036
-105.194576987158
-106.873231646372
-107.389127832871
-108.618418325375
-111.490798918424
-115.15662986446
-118.385622853824
-121.239974201039
-124.767009933484
-129.153878201719
-132.89265596618
-134.208106242027
-133.001199761131
-130.832955330739
-128.998437168024
-127.194331321577
-124.429746995646
-120.819504752093
-117.74732784739
-116.128276031951
-115.128209299951
-113.16125147417
-109.952597280803
-106.970599538031
-105.634180164536
-105.640147515187
-105.603953387026
-105.117630548044
-105.404232267233
-107.608026103825
-110.980578882752
-113.481556776819
