Value(μV)
64.5657196044922
237.090667724609
396.835998535156
524.155395507813
609.225708007813
659.581298828125
708.315490722656
687.429382324219
506.225769042969
262.745300292969
128.749954223633
91.7462692260742
41.4860992431641
-65.137939453125
-207.716598510742
-312.910095214844
-347.243408203125
-342.474884033203
-313.863800048828
-267.704528808594
-230.70085144043
-239.47492980957
-288.495269775391
-328.836944580078
-335.41748046875
-321.398040771484
-288.209167480469
-220.400848388672
-154.309204101563
-112.632369995117
-78.394416809082
-72.0999755859375
-91.5555267333984
-114.825889587402
-135.330505371094
-132.278656005859
-119.59440612793
-103.476821899414
-65.3286819458008
-32.9027671813965
-21.839807510376
-18.0249938964844
-22.4120292663574
-35.382396697998
-48.6388740539551
-56.2685012817383
-46.9222068786621
-20.3138828277588
-2.09814739227295
7.53425693511963
22.8888816833496
30.5185089111328
25.3685111999512
17.2620315551758
5.05462789535522
-3.71944332122803
1.14444410800934
9.537034034729
18.787956237793
32.3305435180664
39.7694320678711
38.0527648925781
27.8481388092041
23.7472152709961
30.70924949646
29.5648059844971
26.4175834655762
31.3768424987793
36.2407302856445
37.7666549682617
43.3935050964355
53.8842430114746
57.6036834716797
56.0777587890625
52.453685760498
46.2546157836914
44.7286911010742
45.9685020446777
51.5953521728516
55.5055389404297
56.3638725280762
62.2768325805664
61.323127746582
59.0342407226563
61.6092376708984
57.6990547180176
54.5518341064453
53.5981292724609
44.7286911010742
38.7203598022461
38.2435073852539
33.761100769043
33.761100769043
34.4286918640137
31.5675830841064
39.6740608215332
45.9685020446777
44.6333198547363
54.8379440307617
54.0749816894531
35.5731353759766
26.8944358825684
24.5101776123047
24.891658782959
30.6138782501221
36.1453590393066
38.4342460632324
38.0527648925781
38.2435073852539
35.9546165466309
24.3194370269775
16.1175880432129
14.4962921142578
15.1638841629028
35.1916542053223
51.7860946655273
49.9740562438965
51.9768333435059
50.5462799072266
41.962947845459
31.5675830841064
26.1314735412598
26.3222141265869
21.5536975860596
28.2296199798584
45.9685020446777
51.8814659118652
51.2138710021973
47.1129493713379
39.1018409729004
30.3277683258057
27.7527694702148
38.3388748168945
37.8620262145996
36.6222114562988
61.6092376708984
71.0509033203125
63.4212760925293
66.9499816894531
59.4157218933105
47.1129493713379
44.251838684082
37.4805450439453
31.9490642547607
33.3796195983887
38.0527648925781
42.630542755127
44.3472061157227
46.2546157836914
39.197208404541
27.4666576385498
24.3194370269775
17.9296245574951
8.67870044708252
6.29444265365601
11.7305517196655
18.3111057281494
14.1148099899292
10.7768487930298
12.0166625976563
4.38703584671021
-6.58055353164673
-15.8314762115479
-19.1694374084473
-14.5916624069214
-8.86944198608398
-3.24259161949158
0.190740674734116
-9.44166374206543
-20.6953639984131
-27.943510055542
-43.2027626037598
-42.2490615844727
-31.8536930084229
-39.7694320678711
-41.5814666748047
-33.9518394470215
-31.7583236694336
-32.04443359375
-36.9083213806152
-37.099063873291
-28.9925842285156
-23.7472152709961
-36.431468963623
-58.652759552002
-58.1759071350098
-53.6935005187988
-54.170352935791
-42.630542755127
-41.8675804138184
-48.066650390625
-45.5870208740234
-49.9740562438965
-61.4184989929199
-62.9444236755371
-44.4425773620605
-30.1370277404785
-36.1453590393066
-41.0092468261719
-38.148136138916
-41.1046180725098
-48.8296127319336
-50.4509086608887
-53.121280670166
-52.9305381774902
-49.0203552246094
-66.854606628418
-74.2934951782227
-50.0694274902344
-39.864803314209
-38.148136138916
-32.6166572570801
-36.431468963623
-38.7203598022461
-34.810173034668
-29.6601753234863
-32.9981384277344
-39.1018409729004
-39.2925796508789
-41.2953567504883
-39.3879508972168
-38.148136138916
-43.0120239257813
-35.6685066223145
-23.8425846099854
-38.7203598022461
-44.4425773620605
-20.409252166748
-23.6518440246582
-41.2953567504883
-36.2407302856445
-33.761100769043
-33.761100769043
-27.2759170532227
-31.6629524230957
-38.0527648925781
-24.9870281219482
-11.3490705490112
-16.4990692138672
-19.8370304107666
-13.1611070632935
-11.635181427002
-20.9814739227295
-26.6083240509033
-16.30832862854
-2.76573991775513
-7.34351634979248
-25.8453617095947
-31.1861019134521
-19.9324016571045
-11.9212923049927
-13.9240694046021
-8.10647869110107
-8.0111083984375
-30.8999900817871
-16.5944385528564
14.7824029922485
-6.38981294631958
-21.1722145080566
-4.38703584671021
-2.38425850868225
-24.4148063659668
-40.2462844848633
-21.9351787567139
-16.2129573822021
-11.3490705490112
-3.5287024974823
-30.1370277404785
-31.5675830841064
-19.074068069458
-11.5398111343384
15.1638841629028
19.2648086547852
6.48518323898315
27.1805477142334
53.2166481018066
47.6851692199707
35.0962867736816
22.3166599273682
9.82314491271973
5.62685012817383
6.58055353164673
20.6953639984131
30.70924949646
28.1342506408691
35.382396697998
34.3333206176758
19.5509204864502
14.4009208679199
13.0657367706299
8.10647869110107
4.95925760269165
2.28888821601868
-4.67314672470093
-6.58055353164673
1.23981440067291
4.48240613937378
5.1499981880188
9.06018257141113
7.91573810577393
6.48518323898315
12.3981437683105
16.6898097991943
15.1638841629028
17.4527721405029
20.1231422424316
16.6898097991943
5.05462789535522
-6.58055353164673
-3.91018390655518
-1.81203651428223
-14.4962921142578
-22.2212886810303
-11.8259220123291
-6.1037015914917
-17.8342533111572
-28.8018417358398
-33.4749908447266
-42.0583190917969
-50.355541229248
-50.6416511535645
-51.8814659118652
-56.5546112060547
-70.1925735473633
-108.245338439941
-129.703659057617
-113.20458984375
-100.043487548828
-80.111083984375
-5.81759071350098
129.512924194336
286.3017578125
433.267456054688
542.180358886719
605.792419433594
671.884033203125
715.945129394531
641.651672363281
455.488739013672
264.461944580078
152.878662109375
107.482376098633
37.8620262145996
-105.670333862305
-248.821212768555
-313.959167480469
-325.308227539063
-308.427673339844
-265.0341796875
-222.212890625
-218.0166015625
-255.973999023438
-292.119354248047
-305.375823974609
-302.419342041016
-273.712860107422
-226.218444824219
-174.336975097656
-114.062927246094
-66.3777542114258
-52.5490570068359
-62.3722038269043
-85.4518280029297
-109.866630554199
-121.69255065918
-118.831443786621
-106.910148620605
-82.0184936523438
-43.7749862670898
-18.1203651428223
-12.8749961853027
-9.44166374206543
-19.1694374084473
-40.913875579834
-48.6388740539551
-48.9249839782715
-42.2490615844727
-21.4583263397217
0.858333051204681
19.7416610717773
29.7555465698242
25.0823993682861
16.5944385528564
6.96203470230103
-1.23981440067291
-0.667592406272888
5.1499981880188
17.6435127258301
29.3740653991699
34.9055442810059
37.3851737976074
36.0499877929688
33.761100769043
31.7583236694336
29.6601753234863
26.8944358825684
23.9379558563232
27.0851764678955
34.0472106933594
33.0935096740723
24.2240657806396
25.177770614624
34.5240631103516
35.4777679443359
34.5240631103516
36.431468963623
34.3333206176758
32.2351760864258
28.8018417358398
28.7064723968506
38.5296173095703
42.9166526794434
39.9601707458496
42.7259140014648
48.9249839782715
47.6851692199707
42.630542755127
43.7749862670898
40.8185043334961
31.2814712524414
24.1286964416504
18.8833274841309
19.7416610717773
25.4638805389404
33.0935096740723
41.7722091674805
43.2981338500977
38.2435073852539
35.4777679443359
28.5157318115234
16.022216796875
10.8722190856934
5.34073925018311
0.286111027002335
13.5425882339478
31.9490642547607
38.8157272338867
39.7694320678711
35.9546165466309
25.5592517852783
15.5453653335571
13.8286991119385
16.6898097991943
20.2185115814209
28.3249912261963
38.2435073852539
45.7777633666992
40.8185043334961
26.3222141265869
26.0361022949219
28.5157318115234
22.7935104370117
26.9898052215576
33.0935096740723
35.0962867736816
40.0555419921875
41.962947845459
45.3962821960449
50.832389831543
45.1101722717285
33.0935096740723
26.1314735412598
23.4611034393311
22.8888816833496
25.3685111999512
31.5675830841064
43.1073951721191
48.734245300293
42.9166526794434
39.3879508972168
40.1509132385254
39.7694320678711
41.8675804138184
42.1536903381348
43.679615020752
50.355541229248
52.5490570068359
51.7860946655273
47.3990592956543
35.1916542053223
23.3657341003418
12.2074031829834
3.8148136138916
9.82314491271973
20.1231422424316
23.1749935150146
26.5129547119141
20.9814739227295
4.67314672470093
-9.15555286407471
-13.6379585266113
-13.6379585266113
-10.0138854980469
4.00555419921875
0.762962698936462
-10.204626083374
-1.9074068069458
0
-5.53147983551025
-7.43888664245605
-20.0277709960938
-33.5703582763672
-34.3333206176758
-33.761100769043
-28.7064723968506
-19.1694374084473
-20.9814739227295
-26.6083240509033
-20.8861045837402
-15.7361059188843
-24.891658782959
-36.3360977172852
-39.7694320678711
-41.0092468261719
-39.197208404541
-35.0009155273438
-24.4148063659668
-17.1666603088379
-27.3712882995605
-33.761100769043
-27.7527694702148
-29.7555465698242
-40.3416519165039
-39.2925796508789
-35.2870254516602
-44.3472061157227
-43.0120239257813
-37.4805450439453
-48.734245300293
-53.5981292724609
-46.3499870300293
-51.1185035705566
-54.3610954284668
-41.8675804138184
-40.6277656555176
-51.404613494873
-53.5027618408203
-45.6823921203613
-35.4777679443359
-29.7555465698242
-22.6981410980225
-19.6462898254395
-27.4666576385498
-29.3740653991699
-25.5592517852783
-34.4286918640137
-44.5379486083984
-34.3333206176758
-27.1805477142334
-34.3333206176758
-29.5648059844971
-26.7036952972412
-33.4749908447266
-27.1805477142334
-18.1203651428223
-18.5018463134766
-16.8805503845215
-11.5398111343384
-12.588885307312
-13.4472179412842
-9.9185152053833
-10.3953666687012
-11.2537002563477
-8.10647869110107
-7.82036781311035
-11.9212923049927
-18.0249938964844
-16.30832862854
-12.0166625976563
-21.9351787567139
-21.5536975860596
-9.63240432739258
-14.2101802825928
-15.8314762115479
-11.4444408416748
-10.0138854980469
-2.47962880134583
-3.8148136138916
-11.1583299636841
-12.588885307312
-9.15555286407471
0
3.5287024974823
1.62129580974579
3.33796191215515
1.33518481254578
-9.537034034729
-12.3981437683105
-2.5749990940094
0.9537034034729
-3.71944332122803
-9.44166374206543
-7.82036781311035
-0.572222054004669
-3.62407302856445
-7.15277528762817
-8.10647869110107
-12.302773475647
-13.3518476486206
-16.9759197235107
-22.5074005126953
-24.0333251953125
-15.6407356262207
0.47685170173645
8.3925895690918
14.8777732849121
23.1749935150146
28.8972129821777
28.8972129821777
16.4036979675293
7.6296272277832
5.91296100616455
1.81203651428223
0.0953703373670578
-3.24259161949158
-5.53147983551025
0.190740674734116
1.81203651428223
0.858333051204681
2.95648050308228
0.762962698936462
0.286111027002335
5.53147983551025
6.86666440963745
3.91018390655518
1.43055510520935
0.667592406272888
1.62129580974579
5.24536848068237
7.0574049949646
3.24259161949158
0.667592406272888
1.23981440067291
2.95648050308228
9.9185152053833
13.3518476486206
10.3953666687012
8.58333015441895
-0.286111027002335
-9.63240432739258
-11.635181427002
-13.9240694046021
-16.4036979675293
-14.7824029922485
-12.8749961853027
-18.0249938964844
-27.1805477142334
-31.5675830841064
-37.3851737976074
-55.9823913574219
-63.9934997558594
-61.7046089172363
-78.7759017944336
-92.7953414916992
-110.343482971191
-125.125885009766
-89.9342269897461
-46.9222068786621
-17.6435127258301
66.0916442871094
215.155487060547
366.985076904297
508.228546142578
618.190551757813
665.589599609375
715.277526855469
748.752563476563
653.572937011719
445.474853515625
237.662887573242
122.455513000488
80.111083984375
13.3518476486206
-121.311073303223
-263.794372558594
-346.385070800781
-372.421173095703
-355.349884033203
-312.528594970703
-278.195281982422
-274.761962890625
-302.800842285156
-330.648956298828
-337.324890136719
-332.460998535156
-312.528594970703
-270.947143554688
-224.883255004883
-182.443466186523
-144.104583740234
-122.169403076172
-127.986999511719
-147.44255065918
-153.73698425293
-150.494400024414
-148.586990356445
-142.101806640625
-126.556442260742
-101.664779663086
-70.3833084106445
-47.1129493713379
-43.7749862670898
-56.8407211303711
-79.06201171875
-85.7379379272461
-71.4323883056641
-54.2657241821289
-39.5786895751953
-23.4611034393311
-2.67036962509155
6.38981294631958
0.47685170173645
-3.8148136138916
-6.6759238243103
-10.5861072540283
-12.588885307312
-7.24814605712891
11.3490705490112
25.7499923706055
28.3249912261963
32.7120246887207
35.9546165466309
31.1861019134521
19.2648086547852
11.5398111343384
18.787956237793
34.1425819396973
37.2898025512695
35.6685066223145
42.5351715087891
39.3879508972168
34.5240631103516
37.3851737976074
33.9518394470215
32.1398048400879
37.6712837219238
42.630542755127
46.1592445373535
49.783317565918
50.5462799072266
55.0286865234375
62.9444236755371
63.7073860168457
64.4703521728516
64.5657196044922
64.4703521728516
65.7101669311523
63.4212760925293
60.7509078979492
57.8897972106934
54.8379440307617
50.6416511535645
50.2601699829102
53.8842430114746
53.5981292724609
60.1786842346191
70.2879409790039
65.4240493774414
55.6009063720703
55.0286865234375
51.8814659118652
43.2027626037598
43.5842437744141
50.9277610778809
57.2222023010254
61.323127746582
63.3259048461914
64.756462097168
57.5083160400391
42.9166526794434
33.2842483520508
26.7036952972412
23.5564746856689
30.8046188354492
45.5870208740234
55.6962776184082
58.4620170593262
58.8434982299805
58.652759552002
56.6499824523926
53.4073905944824
49.9740562438965
48.2573928833008
56.4592399597168
66.5684967041016
68.9527587890625
71.8138656616211
67.903678894043
60.3694267272949
56.936092376709
53.5981292724609
54.3610954284668
53.8842430114746
53.3120193481445
62.2768325805664
69.0481262207031
71.4323883056641
74.1027526855469
72.6721954345703
68.8573837280273
64.5657196044922
65.7101669311523
62.8490524291992
50.7370223999023
47.6851692199707
49.6879463195801
51.7860946655273
58.7481307983398
57.2222023010254
44.1564674377441
32.9981384277344
27.657398223877
21.1722145080566
20.9814739227295
24.6055469512939
22.6027698516846
24.0333251953125
21.4583263397217
7.53425693511963
1.33518481254578
1.62129580974579
-5.05462789535522
-15.2592544555664
-18.0249938964844
-8.86944198608398
0.667592406272888
0.190740674734116
-3.43333220481873
-4.57777643203735
-9.15555286407471
-15.5453653335571
-20.9814739227295
-29.3740653991699
-31.5675830841064
-23.2703628540039
-17.0712909698486
-15.2592544555664
-15.35462474823
-18.6925868988037
-27.943510055542
-42.4398002624512
-44.1564674377441
-36.0499877929688
-40.1509132385254
-46.7314682006836
-41.8675804138184
-30.70924949646
-25.9407329559326
-29.8509159088135
-32.5212860107422
-36.5268402099609
-46.7314682006836
-53.4073905944824
-51.1185035705566
-54.4564628601074
-59.9879455566406
-53.6935005187988
-45.300910949707
-42.3444290161133
-44.5379486083984
-47.6851692199707
-50.9277610778809
-59.5110931396484
-63.3259048461914
-57.8897972106934
-55.0286865234375
-56.936092376709
-55.887020111084
-39.3879508972168
-23.7472152709961
-30.6138782501221
-34.3333206176758
-29.0879535675049
-35.0009155273438
-43.3935050964355
-43.3935050964355
-40.913875579834
-42.2490615844727
-45.1101722717285
-41.7722091674805
-34.9055442810059
-39.9601707458496
-47.5897979736328
-40.2462844848633
-29.7555465698242
-29.3740653991699
-38.9110984802246
-47.2083168029785
-49.783317565918
-50.1647987365723
-45.0148010253906
-41.2953567504883
-40.8185043334961
-35.9546165466309
-29.4694347381592
-25.7499923706055
-27.2759170532227
-31.5675830841064
-35.0009155273438
-36.6222114562988
-40.0555419921875
-40.8185043334961
-35.2870254516602
-28.9925842285156
-23.6518440246582
-20.8861045837402
-15.2592544555664
-8.77407169342041
-12.8749961853027
-16.30832862854
-14.2101802825928
-13.5425882339478
-14.0194396972656
-11.8259220123291
-4.1962947845459
-4.10092449188232
-16.2129573822021
-24.2240657806396
-23.2703628540039
-19.7416610717773
-15.6407356262207
-11.2537002563477
-8.3925895690918
-6.6759238243103
-4.38703584671021
-7.72499752044678
-20.1231422424316
-24.1286964416504
-17.6435127258301
-23.3657341003418
-29.278694152832
-15.5453653335571
-5.1499981880188
-8.3925895690918
-3.33796191215515
6.48518323898315
9.537034034729
5.81759071350098
-0.190740674734116
-4.29166507720947
-9.34629344940186
-7.15277528762817
-2.47962880134583
-5.1499981880188
5.43610954284668
16.8805503845215
14.4009208679199
15.9268465042114
8.86944198608398
-7.43888664245605
-7.91573810577393
-4.00555419921875
-9.82314491271973
-8.0111083984375
1.62129580974579
3.24259161949158
-1.52592539787292
0.572222054004669
6.48518323898315
1.52592539787292
-2.8611102104187
-1.14444410800934
-2.95648050308228
-7.34351634979248
-9.82314491271973
-3.8148136138916
0.381481349468231
-3.91018390655518
-5.05462789535522
-7.34351634979248
-13.5425882339478
-15.7361059188843
-24.4148063659668
-32.04443359375
-34.3333206176758
-42.1536903381348
-37.2898025512695
-33.1888771057129
-47.6851692199707
-68.0944213867188
-99.2805252075195
-103.858299255371
-69.1434936523438
-44.1564674377441
0.190740674734116
104.144409179688
236.518447875977
374.900817871094
506.893341064453
588.625732421875
632.2099609375
686.571105957031
698.68310546875
589.579467773438
384.8193359375
207.907333374023
139.526809692383
107.577743530273
10.4907369613647
-138.95458984375
-255.497146606445
-313.005462646484
-322.82861328125
-286.492492675781
-242.908248901367
-227.267517089844
-237.376770019531
-258.930480957031
-278.862884521484
-289.162872314453
-277.527679443359
-251.205474853516
-222.880477905273
-181.299011230469
-136.76106262207
-114.921257019043
-111.678665161133
-119.785148620605
-132.755508422852
-140.480514526367
-146.011993408203
-135.807357788086
-107.291633605957
-81.9231185913086
-59.701831817627
-41.3907279968262
-34.7148017883301
-37.2898025512695
-47.3990592956543
-59.5110931396484
-62.3722038269043
-60.8462753295898
-52.1675758361816
-29.278694152832
-14.687032699585
-10.7768487930298
-2.09814739227295
0.286111027002335
-8.58333015441895
-20.3138828277588
-25.9407329559326
-18.787956237793
-6.96203470230103
2.95648050308228
10.5861072540283
14.9731435775757
25.5592517852783
28.9925842285156
14.1148099899292
9.82314491271973
18.6925868988037
23.4611034393311
23.1749935150146
20.5046234130859
21.6490669250488
28.6111011505127
29.8509159088135
23.7472152709961
22.9842510223389
27.7527694702148
26.7990646362305
23.8425846099854
24.4148063659668
32.4259147644043
41.2953567504883
38.2435073852539
38.3388748168945
42.8212814331055
36.8129501342773
35.2870254516602
44.5379486083984
47.8759117126465
43.4888763427734
35.8592491149902
33.2842483520508
41.4860992431641
42.4398002624512
36.431468963623
36.2407302856445
37.0036926269531
44.5379486083984
57.1268348693848
58.8434982299805
49.1157264709473
42.1536903381348
43.4888763427734
43.679615020752
37.9573936462402
38.148136138916
43.2981338500977
45.5870208740234
51.7860946655273
54.9333152770996
50.355541229248
48.8296127319336
48.6388740539551
45.7777633666992
40.913875579834
37.6712837219238
42.630542755127
56.5546112060547
67.1407165527344
64.8518295288086
54.5518341064453
48.5435028076172
49.6879463195801
50.355541229248
49.6879463195801
46.2546157836914
43.4888763427734
47.2083168029785
52.453685760498
56.0777587890625
57.9851684570313
54.0749816894531
45.6823921203613
41.1046180725098
37.9573936462402
35.8592491149902
44.6333198547363
60.3694267272949
74.3888626098633
85.9286727905273
89.7434921264648
87.5499725341797
87.5499725341797
81.6370086669922
63.3259048461914
51.1185035705566
54.3610954284668
58.0805358886719
58.7481307983398
60.274055480957
59.8925743103027
57.3175735473633
51.9768333435059
43.679615020752
38.8157272338867
37.9573936462402
28.3249912261963
17.1666603088379
20.5046234130859
26.5129547119141
26.5129547119141
19.074068069458
7.15277528762817
2.28888821601868
-2.95648050308228
-11.1583299636841
-10.204626083374
-3.43333220481873
0.9537034034729
3.147221326828
4.7685170173645
5.53147983551025
1.52592539787292
-11.0629596710205
-20.3138828277588
-18.5018463134766
-18.787956237793
-22.0305480957031
-24.0333251953125
-24.3194370269775
-23.7472152709961
-30.3277683258057
-39.0064697265625
-43.3935050964355
-49.4018363952637
-55.5055389404297
-54.6472053527832
-45.1101722717285
-40.2462844848633
-50.4509086608887
-50.1647987365723
-34.7148017883301
-29.8509159088135
-38.6249885559082
-47.4944305419922
-48.9249839782715
-53.3120193481445
-61.7046089172363
-63.6120147705078
-61.8953514099121
-57.2222023010254
-51.5953521728516
-51.7860946655273
-53.8842430114746
-53.6935005187988
-53.0259094238281
-55.1240577697754
-54.0749816894531
-50.5462799072266
-49.6879463195801
-47.7805404663086
-52.1675758361816
-54.4564628601074
-42.8212814331055
-39.864803314209
-52.453685760498
-57.7944259643555
-55.5055389404297
-56.6499824523926
-58.0805358886719
-59.3203506469727
-57.7944259643555
-52.0722045898438
-52.8351669311523
-53.3120193481445
-46.3499870300293
-43.5842437744141
-42.8212814331055
-40.7231369018555
-42.3444290161133
-41.1999855041504
-41.8675804138184
-45.6823921203613
-40.8185043334961
-36.6222114562988
-38.8157272338867
-35.382396697998
-26.0361022949219
-24.6055469512939
-32.6166572570801
-34.3333206176758
-26.8944358825684
-24.4148063659668
-26.5129547119141
-23.6518440246582
-17.4527721405029
-17.9296245574951
-22.0305480957031
-18.1203651428223
-14.3055505752563
-15.7361059188843
-19.7416610717773
-29.3740653991699
-30.8999900817871
-25.9407329559326
-26.9898052215576
-24.6055469512939
-18.6925868988037
-11.2537002563477
-2.1935179233551
-2.38425850868225
-10.1092557907104
-14.5916624069214
-16.5944385528564
-15.4499950408936
-8.77407169342041
-1.9074068069458
0
-4.48240613937378
-7.53425693511963
-12.0166625976563
-15.35462474823
-10.9675893783569
-11.3490705490112
-7.34351634979248
3.43333220481873
10.1092557907104
20.0277709960938
26.1314735412598
23.3657341003418
20.0277709960938
16.4990692138672
15.5453653335571
16.8805503845215
15.4499950408936
12.588885307312
11.1583299636841
9.15555286407471
13.0657367706299
21.839807510376
26.1314735412598
23.1749935150146
14.4009208679199
9.25092315673828
6.00833129882813
6.48518323898315
17.4527721405029
25.177770614624
24.7009181976318
24.9870281219482
22.6981410980225
14.687032699585
9.63240432739258
8.67870044708252
3.62407302856445
0.762962698936462
4.10092449188232
2.8611102104187
-3.05185079574585
-8.58333015441895
-6.19907188415527
1.62129580974579
-3.8148136138916
-14.0194396972656
-16.8805503845215
-20.8861045837402
-23.1749935150146
-23.0796222686768
-31.8536930084229
-38.148136138916
-33.0935096740723
-40.5323944091797
-51.4999847412109
-60.0833129882813
-95.4657135009766
-107.100891113281
-81.16015625
-72.0046081542969
-29.4694347381592
76.7731246948242
200.086975097656
330.744323730469
474.181335449219
583.761840820313
637.741455078125
683.900695800781
699.922912597656
614.947937011719
425.065612792969
222.689743041992
133.327728271484
123.313850402832
45.6823921203613
-102.046264648438
-222.022155761719
-293.168426513672
-313.863800048828
-282.582305908203
-242.812881469727
-226.313812255859
-232.703628540039
-251.873062133789
-271.805480957031
-279.625823974609
-271.710083007813
-254.161956787109
-219.92399597168
-172.620315551758
-135.235137939453
-116.256446838379
-110.915702819824
-119.308296203613
-141.720321655273
-161.557357788086
-166.421249389648
-161.461990356445
-139.240692138672
-102.713859558105
-75.0564575195313
-57.3175735473633
-49.0203552246094
-59.0342407226563
-75.3425674438477
-84.0212707519531
-83.925895690918
-78.6805267333984
-64.5657196044922
-42.0583190917969
-25.8453617095947
-14.7824029922485
-5.53147983551025
-10.5861072540283
-17.738883972168
-16.8805503845215
-23.1749935150146
-26.6083240509033
-14.3055505752563
5.24536848068237
19.8370304107666
24.1286964416504
22.6027698516846
20.6953639984131
27.1805477142334
29.278694152832
16.7851791381836
10.9675893783569
16.4990692138672
22.0305480957031
29.4694347381592
37.5759124755859
38.148136138916
33.5703582763672
35.1916542053223
43.1073951721191
43.3935050964355
36.431468963623
36.7175827026367
38.148136138916
32.4259147644043
31.9490642547607
36.1453590393066
35.7638778686523
33.9518394470215
31.8536930084229
38.8157272338867
48.1620216369629
44.4425773620605
44.6333198547363
43.3935050964355
31.6629524230957
29.3740653991699
33.6657295227051
38.2435073852539
46.7314682006836
51.404613494873
46.5407257080078
47.1129493713379
56.3638725280762
53.121280670166
44.4425773620605
45.7777633666992
46.3499870300293
45.3962821960449
46.3499870300293
43.4888763427734
39.0064697265625
39.197208404541
40.4370231628418
36.431468963623
37.099063873291
44.7286911010742
48.8296127319336
47.2083168029785
43.679615020752
46.4453544616699
51.1185035705566
53.0259094238281
56.2685012817383
49.0203552246094
35.8592491149902
31.0907306671143
26.0361022949219
29.5648059844971
39.3879508972168
40.8185043334961
52.1675758361816
65.2333145141602
64.4703521728516
66.2823867797852
65.5194244384766
54.5518341064453
48.8296127319336
49.4972076416016
50.9277610778809
55.6009063720703
57.5083160400391
57.0314636230469
65.5194244384766
74.198127746582
71.1462707519531
66.2823867797852
63.039794921875
57.6990547180176
54.0749816894531
53.2166481018066
55.7916488647461
64.756462097168
71.0509033203125
62.7536849975586
53.8842430114746
50.2601699829102
40.913875579834
35.0962867736816
36.1453590393066
38.2435073852539
47.9712791442871
51.2138710021973
38.7203598022461
31.4722118377686
27.4666576385498
13.256477355957
2.47962880134583
-3.147221326828
-9.06018257141113
-5.43610954284668
5.24536848068237
13.0657367706299
14.2101802825928
3.05185079574585
-11.9212923049927
-22.7935104370117
-38.148136138916
-45.6823921203613
-42.8212814331055
-43.2981338500977
-35.5731353759766
-22.6981410980225
-22.4120292663574
-29.1833248138428
-34.7148017883301
-34.7148017883301
-36.1453590393066
-44.0610961914063
-53.8842430114746
-57.2222023010254
-47.6851692199707
-42.8212814331055
-47.4944305419922
-42.4398002624512
-40.7231369018555
-46.6360969543457
-46.5407257080078
-52.0722045898438
-61.0370178222656
-64.6610870361328
-63.5166473388672
-58.652759552002
-60.274055480957
-68.1897964477539
-72.0046081542969
-74.6749725341797
-80.3971939086914
-78.394416809082
-70.6694183349609
-72.8629379272461
-74.3888626098633
-64.5657196044922
-52.453685760498
-50.4509086608887
-53.9796104431152
-51.5953521728516
-49.1157264709473
-42.4398002624512
-36.1453590393066
-37.3851737976074
-34.9055442810059
-34.7148017883301
-33.5703582763672
-26.226842880249
-30.3277683258057
-35.0009155273438
-29.278694152832
-25.2731399536133
-21.7444381713867
-24.9870281219482
-34.9055442810059
-36.6222114562988
-30.995361328125
-30.6138782501221
-29.278694152832
-26.1314735412598
-32.8073959350586
-35.2870254516602
-23.6518440246582
-15.9268465042114
-18.8833274841309
-24.5101776123047
-25.6546211242676
-22.3166599273682
-21.6490669250488
-21.3629570007324
-19.7416610717773
-22.3166599273682
-20.409252166748
-15.9268465042114
-20.409252166748
-27.657398223877
-31.0907306671143
-31.5675830841064
-27.7527694702148
-20.6953639984131
-20.6953639984131
-22.5074005126953
-13.4472179412842
-7.91573810577393
-10.1092557907104
-11.5398111343384
-14.0194396972656
-14.9731435775757
-12.6842555999756
-5.7222204208374
2.28888821601868
3.24259161949158
0.286111027002335
0.190740674734116
-0.9537034034729
-3.62407302856445
-1.04907369613647
-2.8611102104187
-15.0685138702393
-16.6898097991943
-6.96203470230103
0.858333051204681
9.15555286407471
15.4499950408936
16.8805503845215
13.5425882339478
4.57777643203735
-1.14444410800934
5.7222204208374
8.29721927642822
-0.572222054004669
1.23981440067291
4.57777643203735
2.67036962509155
7.91573810577393
13.6379585266113
16.6898097991943
11.2537002563477
0
-3.05185079574585
-1.81203651428223
-2.1935179233551
-3.62407302856445
-6.29444265365601
-6.38981294631958
-2.8611102104187
3.05185079574585
3.24259161949158
-5.24536848068237
-11.2537002563477
-12.6842555999756
-12.1120328903198
-8.10647869110107
-4.7685170173645
-2.1935179233551
1.9074068069458
3.24259161949158
-2.67036962509155
-8.96481227874756
-15.2592544555664
-20.1231422424316
-19.074068069458
-24.2240657806396
-32.9027671813965
-37.2898025512695
-40.7231369018555
-35.9546165466309
-37.8620262145996
-52.7397994995117
-76.296272277832
-96.9916381835938
-81.4462738037109
-59.6064605712891
-41.3907279968262
27.8481388092041
145.058288574219
278.481384277344
421.441528320313
537.125732421875
594.1572265625
649.185913085938
695.631286621094
648.899780273438
497.928558349609
296.792510986328
151.63883972168
117.019409179688
84.9749755859375
-40.913875579834
-189.786972045898
-286.206390380859
-330.553588867188
-318.632293701172
-265.511016845703
-222.022155761719
-218.684188842773
-237.281402587891
-258.072143554688
-276.669342041016
-281.247131347656
-268.944366455078
-237.853622436523
-187.116607666016
-135.425888061523
-107.86385345459
-101.474044799805
-101.283302307129
-115.779594421387
-142.769393920898
-155.167541503906
-149.254577636719
-130.657363891602
-102.904594421387
-78.1083068847656
-59.6064605712891
-49.2110939025879
-46.2546157836914
-53.0259094238281
-69.5249786376953
-70.4786834716797
-59.6064605712891
-57.8897972106934
-43.9657249450684
-22.5074005126953
-13.7333288192749
-2.1935179233551
4.1962947845459
-2.1935179233551
-2.76573991775513
-4.86388731002808
-13.5425882339478
-12.302773475647
-1.43055510520935
5.62685012817383
11.0629596710205
16.8805503845215
18.6925868988037
16.8805503845215
13.3518476486206
6.96203470230103
3.33796191215515
8.77407169342041
21.7444381713867
34.9055442810059
37.2898025512695
33.8564720153809
30.8999900817871
26.9898052215576
27.3712882995605
29.1833248138428
29.7555465698242
35.4777679443359
37.4805450439453
34.3333206176758
37.8620262145996
42.7259140014648
47.4944305419922
54.9333152770996
62.3722038269043
66.6638641357422
61.1323890686035
58.4620170593262
58.9388694763184
48.8296127319336
42.630542755127
37.8620262145996
36.2407302856445
48.5435028076172
44.4425773620605
41.1999855041504
57.8897972106934
55.0286865234375
49.0203552246094
48.734245300293
36.431468963623
34.9055442810059
39.0064697265625
43.1073951721191
53.2166481018066
51.0231323242188
51.0231323242188
57.8897972106934
50.0694274902344
43.2027626037598
47.8759117126465
45.0148010253906
39.197208404541
39.197208404541
36.431468963623
36.1453590393066
43.0120239257813
48.5435028076172
50.2601699829102
50.0694274902344
49.0203552246094
41.6768379211426
34.2379531860352
34.2379531860352
34.1425819396973
45.3962821960449
59.701831817627
55.6009063720703
57.4129447937012
62.2768325805664
54.0749816894531
47.9712791442871
44.8240585327148
42.7259140014648
42.2490615844727
40.3416519165039
45.7777633666992
54.9333152770996
61.99072265625
68.9527587890625
62.3722038269043
50.9277610778809
50.6416511535645
46.0638732910156
43.0120239257813
46.6360969543457
47.6851692199707
52.5490570068359
53.4073905944824
49.4972076416016
50.7370223999023
49.5925750732422
47.4944305419922
41.4860992431641
34.9055442810059
39.3879508972168
31.8536930084229
23.0796222686768
32.7120246887207
33.8564720153809
27.8481388092041
23.5564746856689
8.0111083984375
-7.82036781311035
-8.67870044708252
-4.10092449188232
-5.05462789535522
-10.1092557907104
-12.4935140609741
-15.35462474823
-21.3629570007324
-26.7990646362305
-40.5323944091797
-50.0694274902344
-44.0610961914063
-39.197208404541
-35.7638778686523
-34.2379531860352
-31.6629524230957
-21.0768451690674
-21.7444381713867
-27.2759170532227
-30.5185089111328
-45.7777633666992
-53.2166481018066
-49.3064651489258
-42.4398002624512
-31.5675830841064
-36.3360977172852
-43.9657249450684
-35.7638778686523
-31.3768424987793
-38.6249885559082
-47.6851692199707
-49.9740562438965
-47.5897979736328
-56.0777587890625
-61.6092376708984
-53.5027618408203
-51.2138710021973
-46.8268356323242
-47.8759117126465
-60.274055480957
-62.3722038269043
-62.0860900878906
-56.5546112060547
-49.2110939025879
-58.2712783813477
-59.6064605712891
-51.6907234191895
-51.3092422485352
-54.8379440307617
-60.6555366516113
-62.1814613342285
-64.3749771118164
-66.3777542114258
-54.7425765991211
-44.5379486083984
-43.8703575134277
-40.0555419921875
-34.3333206176758
-33.1888771057129
-28.4203605651855
-24.1286964416504
-29.5648059844971
-37.7666549682617
-41.8675804138184
-44.6333198547363
-35.2870254516602
-24.1286964416504
-34.3333206176758
-40.913875579834
-35.2870254516602
-35.9546165466309
-30.8046188354492
-22.6027698516846
-25.8453617095947
-25.7499923706055
-18.5018463134766
-23.4611034393311
-25.7499923706055
-14.9731435775757
-17.1666603088379
-24.3194370269775
-18.3111057281494
-12.7796258926392
-16.7851791381836
-22.5074005126953
-18.1203651428223
-14.7824029922485
-18.5018463134766
-15.0685138702393
-12.1120328903198
-14.4009208679199
-12.2074031829834
-4.00555419921875
-2.95648050308228
-10.0138854980469
-2.67036962509155
-2.1935179233551
-16.6898097991943
-9.82314491271973
-3.24259161949158
-6.38981294631958
0.190740674734116
-5.53147983551025
-16.8805503845215
-16.4036979675293
-23.3657341003418
-24.5101776123047
-13.8286991119385
-9.72777462005615
2.5749990940094
15.8314762115479
15.7361059188843
20.409252166748
29.6601753234863
25.5592517852783
11.9212923049927
-0.667592406272888
-7.0574049949646
-0.190740674734116
8.58333015441895
5.62685012817383
2.38425850868225
11.3490705490112
24.7009181976318
27.4666576385498
27.0851764678955
24.7009181976318
10.204626083374
1.04907369613647
7.24814605712891
12.7796258926392
13.8286991119385
14.7824029922485
9.82314491271973
3.91018390655518
6.29444265365601
9.82314491271973
8.0111083984375
3.147221326828
-3.71944332122803
-1.04907369613647
5.34073925018311
-0.381481349468231
-2.1935179233551
8.20184898376465
10.7768487930298
3.71944332122803
-10.3953666687012
-23.6518440246582
-28.0388793945313
-37.8620262145996
-41.1999855041504
-34.7148017883301
-38.148136138916
-37.7666549682617
-32.9027671813965
-39.3879508972168
-50.5462799072266
-71.6231231689453
-92.0323791503906
-78.4897918701172
-53.2166481018066
-30.5185089111328
41.7722091674805
178.819381713867
324.735992431641
459.303558349609
572.794250488281
633.163696289063
681.993286132813
718.043273925781
660.248840332031
491.634094238281
286.3017578125
161.652725219727
123.409217834473
64.0888671875
-59.4157218933105
-199.896224975586
-294.408233642578
-332.651733398438
-323.019348144531
-275.715637207031
-234.611038208008
-234.134185791016
-258.45361328125
-280.198059082031
-293.931396484375
-300.130462646484
-290.307312011719
-259.311950683594
-213.534194946289
-170.236053466797
-144.104583740234
-133.899963378906
-138.191619873047
-150.303649902344
-155.549026489258
-157.074951171875
-160.41291809082
-148.968475341797
-121.787925720215
-92.1277465820313
-67.3314590454102
-61.7999801635742
-64.756462097168
-67.1407165527344
-79.06201171875
-84.7842330932617
-76.8684921264648
-71.2416458129883
-62.2768325805664
-39.197208404541
-18.3111057281494
-15.9268465042114
-20.5046234130859
-22.3166599273682
-24.891658782959
-24.1286964416504
-24.7009181976318
-21.9351787567139
-14.1148099899292
-7.72499752044678
7.53425693511963
24.9870281219482
28.7064723968506
24.0333251953125
23.7472152709961
24.9870281219482
22.7935104370117
25.3685111999512
38.2435073852539
49.5925750732422
41.1999855041504
30.6138782501221
39.864803314209
48.6388740539551
46.0638732910156
46.9222068786621
47.6851692199707
42.8212814331055
42.4398002624512
52.1675758361816
60.7509078979492
56.4592399597168
56.1731300354004
63.3259048461914
57.2222023010254
55.3147964477539
58.2712783813477
51.5953521728516
54.5518341064453
62.7536849975586
59.8925743103027
55.4101676940918
54.170352935791
56.1731300354004
60.3694267272949
63.3259048461914
59.4157218933105
48.2573928833008
45.3962821960449
51.9768333435059
53.5027618408203
49.9740562438965
46.6360969543457
43.3935050964355
43.3935050964355
52.1675758361816
62.2768325805664
64.5657196044922
64.6610870361328
65.6147918701172
60.8462753295898
54.4564628601074
51.6907234191895
48.5435028076172
49.6879463195801
54.0749816894531
60.4647941589355
71.1462707519531
68.6666412353516
51.9768333435059
45.8731346130371
45.9685020446777
36.2407302856445
30.0416564941406
32.8073959350586
37.6712837219238
41.1046180725098
46.8268356323242
50.832389831543
41.3907279968262
32.9027671813965
34.0472106933594
38.2435073852539
36.6222114562988
31.5675830841064
39.5786895751953
52.0722045898438
54.5518341064453
59.8925743103027
65.4240493774414
57.0314636230469
46.4453544616699
41.962947845459
38.3388748168945
34.0472106933594
35.6685066223145
45.1101722717285
56.3638725280762
60.9416465759277
53.9796104431152
41.0092468261719
29.0879535675049
20.409252166748
11.8259220123291
3.5287024974823
8.29721927642822
16.1175880432129
10.9675893783569
8.29721927642822
4.1962947845459
-6.58055353164673
-9.82314491271973
-15.6407356262207
-27.0851764678955
-29.1833248138428
-22.125919342041
-13.3518476486206
-4.86388731002808
-6.48518323898315
-18.8833274841309
-16.30832862854
-11.5398111343384
-24.5101776123047
-38.4342460632324
-50.4509086608887
-52.8351669311523
-46.4453544616699
-45.8731346130371
-48.8296127319336
-48.1620216369629
-40.2462844848633
-38.148136138916
-46.4453544616699
-46.4453544616699
-44.7286911010742
-46.7314682006836
-37.7666549682617
-30.5185089111328
-33.1888771057129
-31.4722118377686
-26.1314735412598
-24.2240657806396
-30.2323970794678
-37.9573936462402
-40.5323944091797
-39.864803314209
-37.099063873291
-36.2407302856445
-36.8129501342773
-35.5731353759766
-32.1398048400879
-26.4175834655762
-28.3249912261963
-36.5268402099609
-35.9546165466309
-36.2407302856445
-44.251838684082
-46.8268356323242
-44.9194297790527
-42.7259140014648
-42.2490615844727
-42.3444290161133
-35.6685066223145
-37.4805450439453
-43.679615020752
-36.2407302856445
-32.8073959350586
-33.0935096740723
-31.3768424987793
-34.810173034668
-32.5212860107422
-32.3305435180664
-35.2870254516602
-33.761100769043
-43.3935050964355
-48.5435028076172
-36.7175827026367
-30.995361328125
-33.1888771057129
-35.6685066223145
-39.864803314209
-42.630542755127
-34.3333206176758
-21.839807510376
-19.6462898254395
-22.7935104370117
-25.9407329559326
-27.4666576385498
-26.5129547119141
-24.1286964416504
-21.5536975860596
-23.6518440246582
-20.9814739227295
-9.63240432739258
-5.7222204208374
-5.53147983551025
-5.05462789535522
-5.34073925018311
1.23981440067291
-0.381481349468231
-8.77407169342041
-7.0574049949646
-9.25092315673828
-10.4907369613647
-3.71944332122803
-0.572222054004669
0
-1.14444410800934
-13.1611070632935
-26.9898052215576
-29.7555465698242
-27.3712882995605
-21.3629570007324
-18.4064750671387
-25.9407329559326
-25.9407329559326
-26.1314735412598
-42.9166526794434
-46.8268356323242
-29.1833248138428
-19.2648086547852
-16.5944385528564
-5.34073925018311
3.71944332122803
10.0138854980469
14.687032699585
5.1499981880188
1.14444410800934
3.71944332122803
-3.05185079574585
-3.71944332122803
-6.48518323898315
-15.6407356262207
-11.4444408416748
-0.190740674734116
4.00555419921875
11.3490705490112
23.5564746856689
29.5648059844971
30.8999900817871
24.6055469512939
18.5018463134766
25.3685111999512
25.4638805389404
13.8286991119385
9.72777462005615
19.2648086547852
30.6138782501221
28.3249912261963
20.2185115814209
15.5453653335571
6.38981294631958
2.1935179233551
6.6759238243103
9.63240432739258
11.1583299636841
7.34351634979248
8.20184898376465
13.1611070632935
0.572222054004669
-16.4990692138672
-20.7907333374023
-22.2212886810303
-28.5157318115234
-29.4694347381592
-23.8425846099854
-26.5129547119141
-32.4259147644043
-39.1018409729004
-47.6851692199707
-55.6009063720703
-77.6314544677734
-84.5934906005859
-62.6583137512207
-39.9601707458496
11.3490705490112
117.49626159668
248.916580200195
384.056365966797
508.800750732422
576.227600097656
618.190551757813
681.89794921875
681.230346679688
561.82666015625
360.309143066406
183.015686035156
123.027740478516
89.7434921264648
-13.5425882339478
-150.685134887695
-266.655456542969
-328.073974609375
-330.076751708984
-298.890655517578
-255.973999023438
-229.747146606445
-241.57307434082
-264.080474853516
-277.432312011719
-288.39990234375
-284.20361328125
-259.788818359375
-225.264739990234
-183.301788330078
-145.344390869141
-126.461067199707
-127.224029541016
-137.428665161133
-148.110137939453
-153.641616821289
-153.069396972656
-146.965698242188
-126.365699768066
-94.6073760986328
-72.0046081542969
-59.2249794006348
-53.2166481018066
-62.3722038269043
-74.2934951782227
-77.1546020507813
-80.8740463256836
-72.1953506469727
-49.3064651489258
-38.4342460632324
-30.2323970794678
-16.1175880432129
-9.9185152053833
-16.022216796875
-22.3166599273682
-20.2185115814209
-19.1694374084473
-11.8259220123291
-0.572222054004669
0.47685170173645
7.34351634979248
18.4064750671387
17.5481433868408
14.8777732849121
13.1611070632935
7.0574049949646
4.95925760269165
11.4444408416748
21.2675857543945
27.943510055542
34.7148017883301
41.4860992431641
38.2435073852539
33.4749908447266
41.6768379211426
55.1240577697754
58.2712783813477
56.4592399597168
59.4157218933105
57.7944259643555
54.7425765991211
54.2657241821289
48.8296127319336
49.4972076416016
51.404613494873
49.783317565918
53.9796104431152
48.066650390625
39.5786895751953
44.1564674377441
44.4425773620605
39.9601707458496
39.6740608215332
39.4833221435547
41.4860992431641
43.7749862670898
52.6444282531738
64.8518295288086
55.887020111084
42.2490615844727
42.4398002624512
36.3360977172852
29.9462871551514
40.7231369018555
55.4101676940918
56.3638725280762
50.355541229248
48.3527641296387
50.0694274902344
52.5490570068359
48.4481315612793
38.0527648925781
34.0472106933594
39.2925796508789
44.6333198547363
48.1620216369629
51.4999847412109
54.2657241821289
58.1759071350098
63.6120147705078
64.0888671875
53.4073905944824
42.4398002624512
42.7259140014648
51.5953521728516
60.1786842346191
64.4703521728516
65.0425720214844
65.2333145141602
64.2796096801758
59.2249794006348
51.404613494873
46.3499870300293
42.630542755127
41.0092468261719
46.0638732910156
55.219425201416
63.7073860168457
69.4296035766602
73.9120101928711
73.1490478515625
68.9527587890625
67.8083114624023
60.0833129882813
46.2546157836914
49.4018363952637
59.6064605712891
55.3147964477539
51.7860946655273
54.7425765991211
47.9712791442871
35.1916542053223
31.8536930084229
30.1370277404785
18.6925868988037
14.2101802825928
16.30832862854
15.35462474823
18.2157344818115
19.8370304107666
20.0277709960938
16.5944385528564
3.5287024974823
-4.29166507720947
-4.38703584671021
-7.24814605712891
-14.687032699585
-14.687032699585
-8.20184898376465
-12.6842555999756
-21.3629570007324
-25.9407329559326
-31.8536930084229
-40.4370231628418
-39.864803314209
-26.9898052215576
-28.6111011505127
-41.1999855041504
-36.7175827026367
-25.5592517852783
-30.1370277404785
-40.5323944091797
-42.1536903381348
-48.9249839782715
-54.9333152770996
-52.3583183288574
-57.7944259643555
-59.4157218933105
-51.2138710021973
-47.8759117126465
-43.4888763427734
-43.3935050964355
-50.5462799072266
-55.0286865234375
-63.8027572631836
-69.7157211303711
-64.3749771118164
-61.6092376708984
-57.6036834716797
-47.3036880493164
-45.9685020446777
-51.3092422485352
-49.783317565918
-44.3472061157227
-41.962947845459
-41.5814666748047
-39.7694320678711
-35.382396697998
-34.6194343566895
-39.2925796508789
-38.148136138916
-36.431468963623
-45.6823921203613
-45.7777633666992
-37.9573936462402
-39.0064697265625
-36.5268402099609
-36.9083213806152
-49.3064651489258
-55.9823913574219
-49.8786888122559
-42.9166526794434
-41.6768379211426
-41.7722091674805
-37.6712837219238
-31.6629524230957
-28.5157318115234
-33.761100769043
-36.9083213806152
-28.8018417358398
-26.0361022949219
-29.0879535675049
-24.6055469512939
-20.5046234130859
-22.125919342041
-19.1694374084473
-18.9786968231201
-24.7962875366211
-26.9898052215576
-26.7036952972412
-30.0416564941406
-31.3768424987793
-27.1805477142334
-24.7009181976318
-22.9842510223389
-20.1231422424316
-20.5046234130859
-20.2185115814209
-15.5453653335571
-15.35462474823
-15.2592544555664
-4.1962947845459
4.7685170173645
2.8611102104187
-3.24259161949158
-6.6759238243103
0.47685170173645
6.48518323898315
0.762962698936462
-3.91018390655518
0
5.7222204208374
0.572222054004669
-2.47962880134583
10.7768487930298
14.3055505752563
0.9537034034729
-1.23981440067291
5.81759071350098
2.47962880134583
-7.82036781311035
-12.9703664779663
-22.2212886810303
-38.9110984802246
-41.7722091674805
-31.1861019134521
-17.738883972168
-4.1962947845459
0.667592406272888
0.47685170173645
0.667592406272888
-0.667592406272888
-4.38703584671021
-6.86666440963745
-4.10092449188232
-7.24814605712891
-15.2592544555664
-12.9703664779663
-13.7333288192749
-21.5536975860596
-20.7907333374023
-16.4036979675293
-11.3490705490112
-3.71944332122803
6.38981294631958
15.7361059188843
17.8342533111572
15.6407356262207
3.91018390655518
-7.43888664245605
-3.43333220481873
3.62407302856445
5.62685012817383
5.34073925018311
6.58055353164673
12.6842555999756
21.1722145080566
25.8453617095947
22.7935104370117
18.8833274841309
15.5453653335571
13.1611070632935
20.9814739227295
21.9351787567139
11.635181427002
12.1120328903198
11.4444408416748
1.33518481254578
-0.762962698936462
-1.14444410800934
-10.5861072540283
-21.0768451690674
-30.5185089111328
-35.0962867736816
-30.3277683258057
-34.9055442810059
-46.5407257080078
-62.3722038269043
-87.2638626098633
-89.5527496337891
-76.6777496337891
-50.7370223999023
22.7935104370117
136.188842773438
259.693420410156
386.345245361328
503.841491699219
571.172973632813
618.762756347656
674.363647460938
659.962768554688
523.106323242188
308.141571044922
147.061065673828
112.060150146484
88.7897872924805
-23.6518440246582
-167.279571533203
-263.889739990234
-296.601745605469
-277.623046875
-239.093444824219
-213.248077392578
-220.591598510742
-240.237884521484
-247.009185791016
-255.401763916016
-265.701751708984
-259.216583251953
-232.98974609375
-195.318450927734
-160.22216796875
-135.807357788086
-126.842552185059
-129.703659057617
-128.749954223633
-131.897186279297
-145.821243286133
-147.251800537109
-133.041625976563
-118.545333862305
-102.427742004395
-82.1138610839844
-62.1814613342285
-48.5435028076172
-53.4073905944824
-74.3888626098633
-87.0731201171875
-82.6860809326172
-68.9527587890625
-50.1647987365723
-33.1888771057129
-21.5536975860596
-16.7851791381836
-17.738883972168
-17.5481433868408
-19.9324016571045
-26.0361022949219
-24.6055469512939
-16.4990692138672
-9.06018257141113
-0.858333051204681
7.72499752044678
14.1148099899292
13.4472179412842
8.67870044708252
2.00277709960938
-2.00277709960938
0.47685170173645
6.29444265365601
16.6898097991943
21.2675857543945
20.5999927520752
32.7120246887207
43.1073951721191
43.9657249450684
43.0120239257813
29.3740653991699
16.9759197235107
25.4638805389404
39.0064697265625
44.7286911010742
44.3472061157227
46.3499870300293
54.4564628601074
56.0777587890625
52.7397994995117
54.8379440307617
54.170352935791
50.2601699829102
50.9277610778809
51.8814659118652
52.5490570068359
57.1268348693848
58.2712783813477
51.4999847412109
44.1564674377441
44.9194297790527
45.300910949707
39.1018409729004
36.6222114562988
34.3333206176758
30.8999900817871
30.3277683258057
24.5101776123047
22.2212886810303
26.9898052215576
36.2407302856445
48.5435028076172
49.5925750732422
45.8731346130371
47.2083168029785
47.3990592956543
43.3935050964355
36.5268402099609
34.5240631103516
39.0064697265625
41.0092468261719
44.1564674377441
53.5027618408203
58.652759552002
57.1268348693848
50.832389831543
40.2462844848633
37.4805450439453
43.3935050964355
48.5435028076172
54.5518341064453
61.6092376708984
64.5657196044922
65.0425720214844
63.8981285095215
61.7999801635742
60.9416465759277
55.9823913574219
46.4453544616699
43.2981338500977
55.5055389404297
66.1870193481445
64.0888671875
64.2796096801758
64.6610870361328
59.4157218933105
57.2222023010254
58.4620170593262
56.3638725280762
54.3610954284668
57.5083160400391
63.7073860168457
68.9527587890625
66.6638641357422
60.1786842346191
56.0777587890625
49.4972076416016
40.0555419921875
32.04443359375
25.5592517852783
25.4638805389404
29.6601753234863
29.9462871551514
30.5185089111328
30.2323970794678
22.4120292663574
14.687032699585
12.302773475647
6.1037015914917
-0.667592406272888
-0.190740674734116
-0.572222054004669
0.572222054004669
2.76573991775513
2.76573991775513
1.14444410800934
-5.53147983551025
-16.022216796875
-26.9898052215576
-26.4175834655762
-23.8425846099854
-26.8944358825684
-21.0768451690674
-19.7416610717773
-22.7935104370117
-24.4148063659668
-37.5759124755859
-50.5462799072266
-48.2573928833008
-41.1999855041504
-38.5296173095703
-35.5731353759766
-39.0064697265625
-46.0638732910156
-45.6823921203613
-44.3472061157227
-49.5925750732422
-59.701831817627
-61.7046089172363
-55.1240577697754
-53.0259094238281
-50.7370223999023
-46.2546157836914
-46.6360969543457
-47.017578125
-48.8296127319336
-59.9879455566406
-70.0018310546875
-69.9064559936523
-67.903678894043
-68.9527587890625
-69.4296035766602
-67.903678894043
-65.9009017944336
-61.5138702392578
-60.6555366516113
-62.5629425048828
-56.1731300354004
-49.783317565918
-51.9768333435059
-57.1268348693848
-57.9851684570313
-53.2166481018066
-47.7805404663086
-47.1129493713379
-49.9740562438965
-51.6907234191895
-48.3527641296387
-42.8212814331055
-47.4944305419922
-53.2166481018066
-43.3935050964355
-36.3360977172852
-40.1509132385254
-41.7722091674805
-41.6768379211426
-39.197208404541
-30.5185089111328
-26.6083240509033
-32.6166572570801
-34.9055442810059
-27.8481388092041
-20.0277709960938
-19.6462898254395
-20.5999927520752
-15.2592544555664
-10.2999963760376
-12.4935140609741
-10.1092557907104
-5.05462789535522
-10.204626083374
-12.4935140609741
-9.9185152053833
-14.5916624069214
-21.5536975860596
-20.0277709960938
-13.1611070632935
-10.204626083374
-11.0629596710205
-8.20184898376465
-0.572222054004669
3.05185079574585
0.9537034034729
-6.48518323898315
-17.8342533111572
-17.4527721405029
-7.43888664245605
-5.43610954284668
-5.34073925018311
2.95648050308228
8.3925895690918
6.38981294631958
3.62407302856445
-1.52592539787292
-7.53425693511963
-7.15277528762817
-2.8611102104187
2.09814739227295
4.57777643203735
1.33518481254578
-2.09814739227295
-8.3925895690918
-13.8286991119385
-7.53425693511963
2.00277709960938
3.43333220481873
-1.04907369613647
2.28888821601868
15.8314762115479
25.2731399536133
25.5592517852783
20.5046234130859
17.8342533111572
11.0629596710205
-1.62129580974579
-1.71666610240936
3.8148136138916
-1.71666610240936
-7.43888664245605
-4.00555419921875
4.10092449188232
13.8286991119385
22.2212886810303
20.1231422424316
12.0166625976563
12.4935140609741
8.0111083984375
-2.67036962509155
-1.62129580974579
-0.858333051204681
-7.24814605712891
-8.10647869110107
2.00277709960938
13.3518476486206
16.2129573822021
14.4009208679199
11.1583299636841
3.5287024974823
-6.86666440963745
-9.72777462005615
-3.91018390655518
-4.38703584671021
-0.47685170173645
12.7796258926392
11.8259220123291
-0.47685170173645
-9.25092315673828
-12.6842555999756
-16.022216796875
-16.2129573822021
-11.2537002563477
-21.0768451690674
-29.6601753234863
-27.5620288848877
-42.7259140014648
-58.7481307983398
-80.778678894043
-104.239784240723
-90.4110794067383
-68.8573837280273
-28.5157318115234
69.5249786376953
190.073089599609
313.100830078125
442.518371582031
542.085021972656
595.587768554688
645.466430664063
686.761840820313
644.226623535156
478.282257080078
263.412872314453
136.570327758789
118.354591369629
77.345344543457
-58.652759552002
-201.994384765625
-288.495269775391
-318.060089111328
-288.304534912109
-240.428619384766
-219.161041259766
-229.747146606445
-247.676773071289
-262.173065185547
-281.151763916016
-280.674896240234
-255.783248901367
-218.684188842773
-177.29345703125
-143.15087890625
-116.733299255371
-112.918479919434
-125.411994934082
-132.183288574219
-141.052734375
-148.300872802734
-140.480514526367
-120.73885345459
-96.9916381835938
-72.1953506469727
-57.2222023010254
-59.7972030639648
-65.137939453125
-68.9527587890625
-75.9147872924805
-80.6833038330078
-76.296272277832
-65.9009017944336
-59.4157218933105
-48.734245300293
-26.1314735412598
-11.1583299636841
-14.7824029922485
-25.177770614624
-34.1425819396973
-39.2925796508789
-38.7203598022461
-32.9027671813965
-16.4990692138672
-1.43055510520935
2.76573991775513
7.91573810577393
10.204626083374
11.2537002563477
10.204626083374
1.71666610240936
8.86944198608398
24.5101776123047
25.3685111999512
26.8944358825684
36.2407302856445
42.3444290161133
43.5842437744141
43.5842437744141
43.8703575134277
41.1046180725098
37.9573936462402
43.9657249450684
47.2083168029785
40.1509132385254
36.1453590393066
36.431468963623
38.3388748168945
45.1101722717285
49.6879463195801
44.7286911010742
43.8703575134277
47.3036880493164
45.4916534423828
46.8268356323242
46.7314682006836
43.8703575134277
46.7314682006836
54.6472053527832
61.6092376708984
58.7481307983398
54.9333152770996
60.274055480957
58.652759552002
48.066650390625
39.864803314209
36.431468963623
34.5240631103516
28.2296199798584
24.6055469512939
33.6657295227051
45.8731346130371
46.6360969543457
43.679615020752
40.0555419921875
33.0935096740723
31.7583236694336
30.70924949646
27.7527694702148
32.7120246887207
41.6768379211426
47.9712791442871
56.5546112060547
65.137939453125
61.4184989929199
51.404613494873
42.4398002624512
35.0009155273438
33.8564720153809
38.148136138916
42.9166526794434
45.2055397033691
47.017578125
45.4916534423828
39.197208404541
37.3851737976074
35.9546165466309
33.8564720153809
38.5296173095703
39.5786895751953
37.5759124755859
43.3935050964355
55.3147964477539
61.5138702392578
58.8434982299805
51.9768333435059
42.8212814331055
42.9166526794434
51.1185035705566
55.219425201416
58.1759071350098
60.1786842346191
62.0860900878906
63.6120147705078
53.4073905944824
45.8731346130371
51.0231323242188
44.9194297790527
33.0935096740723
31.0907306671143
30.3277683258057
33.8564720153809
39.7694320678711
36.9083213806152
34.1425819396973
34.1425819396973
24.3194370269775
10.8722190856934
5.05462789535522
1.43055510520935
-0.667592406272888
-0.47685170173645
-0.858333051204681
5.7222204208374
10.6814785003662
1.43055510520935
-7.6296272277832
-12.1120328903198
-22.9842510223389
-36.1453590393066
-42.630542755127
-45.3962821960449
-43.5842437744141
-37.9573936462402
-39.1018409729004
-43.2027626037598
-46.6360969543457
-52.5490570068359
-51.3092422485352
-49.3064651489258
-52.6444282531738
-52.0722045898438
-50.1647987365723
-46.5407257080078
-45.7777633666992
-45.8731346130371
-47.6851692199707
-63.5166473388672
-63.9934997558594
-53.0259094238281
-59.7972030639648
-60.1786842346191
-54.170352935791
-52.9305381774902
-48.8296127319336
-53.9796104431152
-60.7509078979492
-58.0805358886719
-61.1323890686035
-64.5657196044922
-58.0805358886719
-51.5953521728516
-52.5490570068359
-56.3638725280762
-52.6444282531738
-47.2083168029785
-48.734245300293
-40.4370231628418
-35.1916542053223
-44.8240585327148
-43.2981338500977
-34.7148017883301
-32.4259147644043
-28.8972129821777
-23.9379558563232
-26.7036952972412
-37.4805450439453
-42.0583190917969
-39.7694320678711
-36.5268402099609
-31.0907306671143
-28.4203605651855
-26.6083240509033
-28.2296199798584
-30.6138782501221
-19.5509204864502
-6.58055353164673
-9.537034034729
-18.6925868988037
-19.6462898254395
-21.839807510376
-24.2240657806396
-16.30832862854
-14.5916624069214
-21.6490669250488
-19.5509204864502
-18.1203651428223
-18.0249938964844
-9.25092315673828
-7.6296272277832
-13.1611070632935
-8.20184898376465
0.858333051204681
-6.1037015914917
-17.357400894165
-16.5944385528564
-17.1666603088379
-15.6407356262207
-6.96203470230103
-5.24536848068237
-13.8286991119385
-22.8888816833496
-22.3166599273682
-19.7416610717773
-18.0249938964844
-16.30832862854
-17.9296245574951
-16.8805503845215
-11.635181427002
-6.00833129882813
-5.53147983551025
-6.6759238243103
-6.96203470230103
-10.204626083374
-10.8722190856934
-9.34629344940186
-4.00555419921875
-2.00277709960938
-3.43333220481873
10.8722190856934
20.5999927520752
16.8805503845215
15.0685138702393
7.24814605712891
0.0953703373670578
-1.71666610240936
-11.7305517196655
-16.7851791381836
-2.47962880134583
0.381481349468231
-8.77407169342041
6.38981294631958
24.1286964416504
22.7935104370117
17.8342533111572
11.0629596710205
0.0953703373670578
-2.5749990940094
2.67036962509155
1.62129580974579
2.28888821601868
9.9185152053833
17.9296245574951
20.1231422424316
10.4907369613647
5.62685012817383
7.91573810577393
1.33518481254578
0.286111027002335
9.34629344940186
7.72499752044678
3.147221326828
4.57777643203735
-0.762962698936462
0.286111027002335
5.53147983551025
2.67036962509155
4.10092449188232
6.48518323898315
9.44166374206543
10.2999963760376
6.96203470230103
10.9675893783569
15.5453653335571
14.9731435775757
20.1231422424316
26.0361022949219
19.4555492401123
3.8148136138916
-6.29444265365601
-8.0111083984375
-4.86388731002808
-3.05185079574585
-17.9296245574951
-34.0472106933594
-35.2870254516602
-33.2842483520508
-32.9981384277344
-43.7749862670898
-61.1323890686035
-82.5907135009766
-88.5036773681641
-61.6092376708984
-43.7749862670898
-19.2648086547852
67.0453491210938
194.174011230469
323.400817871094
461.020233154297
570.696105957031
620.002563476563
675.03125
716.708129882813
645.752563476563
457.205413818359
253.971221923828
149.063842773438
120.548110961914
62.8490524291992
-69.5249786376953
-212.961975097656
-298.509155273438
-327.883239746094
-307.092498779297
-260.456390380859
-236.518447875977
-242.240661621094
-257.023071289063
-273.903625488281
-289.067504882813
-294.885101318359
-279.435089111328
-242.812881469727
-200.75456237793
-159.936065673828
-128.463851928711
-121.69255065918
-139.049957275391
-158.791610717773
-169.091613769531
-175.862899780273
-165.086059570313
-131.038848876953
-100.52033996582
-85.9286727905273
-74.8657150268555
-69.0481262207031
-74.9610900878906
-81.827751159668
-85.6425628662109
-88.5036773681641
-83.2583084106445
-70.0018310546875
-56.7453536987305
-38.6249885559082
-23.1749935150146
-21.4583263397217
-17.8342533111572
-16.4036979675293
-24.6055469512939
-30.4231376647949
-33.0935096740723
-28.2296199798584
-12.8749961853027
1.52592539787292
8.77407169342041
13.3518476486206
21.4583263397217
21.3629570007324
11.5398111343384
9.34629344940186
13.9240694046021
12.302773475647
13.9240694046021
30.3277683258057
41.8675804138184
39.864803314209
36.3360977172852
41.962947845459
53.121280670166
54.8379440307617
48.2573928833008
42.2490615844727
44.4425773620605
48.066650390625
39.1018409729004
38.6249885559082
50.6416511535645
48.9249839782715
49.4018363952637
58.0805358886719
56.4592399597168
53.7888717651367
48.2573928833008
38.148136138916
36.7175827026367
35.6685066223145
27.943510055542
24.4148063659668
31.2814712524414
40.0555419921875
45.5870208740234
49.1157264709473
50.2601699829102
46.8268356323242
47.5897979736328
51.2138710021973
45.7777633666992
41.6768379211426
51.5953521728516
64.4703521728516
62.5629425048828
47.3990592956543
48.9249839782715
53.4073905944824
39.4833221435547
32.5212860107422
28.8972129821777
30.2323970794678
41.6768379211426
41.962947845459
34.1425819396973
33.2842483520508
47.1129493713379
52.453685760498
32.8073959350586
26.0361022949219
34.6194343566895
36.6222114562988
48.734245300293
62.0860900878906
60.0833129882813
65.6147918701172
69.9064559936523
61.323127746582
58.0805358886719
48.2573928833008
31.5675830841064
31.9490642547607
43.7749862670898
51.7860946655273
53.5027618408203
59.9879455566406
73.2444229125977
70.3833084106445
55.0286865234375
50.6416511535645
43.4888763427734
35.5731353759766
48.2573928833008
62.0860900878906
60.7509078979492
60.1786842346191
64.8518295288086
55.887020111084
41.3907279968262
38.148136138916
35.4777679443359
31.0907306671143
23.8425846099854
24.3194370269775
33.761100769043
30.3277683258057
22.0305480957031
15.2592544555664
8.48795986175537
4.10092449188232
-4.48240613937378
-7.53425693511963
-3.24259161949158
-8.29721927642822
-12.9703664779663
-7.0574049949646
-8.96481227874756
-15.5453653335571
-11.0629596710205
-7.82036781311035
-10.2999963760376
-15.2592544555664
-23.6518440246582
-28.4203605651855
-31.7583236694336
-33.761100769043
-32.9027671813965
-36.3360977172852
-40.913875579834
-43.2981338500977
-50.6416511535645
-55.7916488647461
-44.5379486083984
-34.810173034668
-42.0583190917969
-48.8296127319336
-45.8731346130371
-45.2055397033691
-42.1536903381348
-35.382396697998
-43.8703575134277
-51.0231323242188
-47.3036880493164
-53.8842430114746
-64.1842422485352
-67.1407165527344
-60.0833129882813
-48.5435028076172
-46.3499870300293
-44.7286911010742
-41.4860992431641
-46.4453544616699
-46.0638732910156
-38.8157272338867
-37.9573936462402
-36.8129501342773
-30.8999900817871
-28.1342506408691
-27.2759170532227
-32.9981384277344
-39.197208404541
-33.8564720153809
-26.6083240509033
-27.5620288848877
-29.6601753234863
-29.0879535675049
-40.5323944091797
-52.453685760498
-46.6360969543457
-37.2898025512695
-32.2351760864258
-30.5185089111328
-33.1888771057129
-34.6194343566895
-30.995361328125
-27.5620288848877
-18.1203651428223
-6.77129411697388
-5.34073925018311
-6.19907188415527
-11.635181427002
-19.1694374084473
-18.0249938964844
-17.4527721405029
-23.3657341003418
-28.2296199798584
-23.7472152709961
-20.5999927520752
-22.2212886810303
-18.787956237793
-21.1722145080566
-24.5101776123047
-21.7444381713867
-25.9407329559326
-32.04443359375
-28.5157318115234
-22.8888816833496
-23.4611034393311
-24.6055469512939
-21.4583263397217
-16.4990692138672
-14.1148099899292
-15.1638841629028
-19.8370304107666
-28.4203605651855
-30.70924949646
-20.5046234130859
-15.5453653335571
-23.0796222686768
-25.0823993682861
-21.2675857543945
-19.1694374084473
-15.6407356262207
-14.8777732849121
-16.4036979675293
-7.72499752044678
1.81203651428223
-1.71666610240936
-7.43888664245605
-6.38981294631958
-4.57777643203735
-1.81203651428223
8.10647869110107
12.6842555999756
2.47962880134583
-3.24259161949158
-0.762962698936462
-1.52592539787292
-5.62685012817383
-6.86666440963745
-2.1935179233551
6.19907188415527
9.25092315673828
7.72499752044678
15.35462474823
25.0823993682861
20.8861045837402
8.20184898376465
1.23981440067291
-3.147221326828
-7.72499752044678
-0.9537034034729
6.58055353164673
5.1499981880188
2.5749990940094
2.47962880134583
6.96203470230103
9.34629344940186
10.8722190856934
17.357400894165
17.738883972168
9.9185152053833
0.762962698936462
-2.1935179233551
6.58055353164673
10.6814785003662
4.1962947845459
1.52592539787292
6.58055353164673
10.6814785003662
10.204626083374
11.3490705490112
8.77407169342041
8.0111083984375
20.3138828277588
27.1805477142334
22.5074005126953
24.0333251953125
26.4175834655762
19.2648086547852
12.588885307312
6.6759238243103
-4.29166507720947
-12.2074031829834
-16.9759197235107
-22.9842510223389
-24.7009181976318
-28.4203605651855
-35.0009155273438
-37.099063873291
-43.4888763427734
-58.4620170593262
-79.729606628418
-94.3212661743164
-76.296272277832
-50.0694274902344
-26.7036952972412
43.5842437744141
170.045318603516
316.438781738281
460.066528320313
568.788696289063
622.291442871094
676.461791992188
735.2099609375
694.677551269531
512.7109375
286.683227539063
154.118469238281
109.294410705566
40.3416519165039
-80.0157165527344
-210.005493164063
-306.806396484375
-344.09619140625
-328.073974609375
-291.451751708984
-257.213806152344
-247.581405639648
-277.432312011719
-312.433227539063
-325.594329833984
-326.071197509766
-313.863800048828
-280.961029052734
-234.515670776367
-185.686050415039
-144.390701293945
-129.799026489258
-142.292541503906
-164.51383972168
-186.162902832031
-197.798080444336
-189.119384765625
-165.849014282227
-142.292541503906
-113.586074829102
-87.8360824584961
-74.2934951782227
-67.3314590454102
-76.5823822021484
-84.4027481079102
-79.3481216430664
-78.8712692260742
-73.2444229125977
-59.1296119689941
-44.7286911010742
-21.3629570007324
-1.9074068069458
-1.62129580974579
-3.91018390655518
-7.72499752044678
-17.738883972168
-19.360179901123
-7.34351634979248
11.9212923049927
25.3685111999512
32.9027671813965
44.8240585327148
50.7370223999023
42.5351715087891
31.3768424987793
27.1805477142334
29.278694152832
31.2814712524414
31.8536930084229
38.8157272338867
50.2601699829102
54.0749816894531
46.0638732910156
41.2953567504883
42.5351715087891
35.5731353759766
37.099063873291
50.355541229248
54.5518341064453
59.2249794006348
58.5573883056641
44.8240585327148
45.4916534423828
57.6990547180176
60.9416465759277
59.2249794006348
61.2277565002441
61.1323890686035
56.7453536987305
57.2222023010254
51.404613494873
39.1018409729004
45.4916534423828
59.9879455566406
68.7620162963867
74.3888626098633
71.0509033203125
70.1925735473633
70.3833084106445
58.652759552002
50.832389831543
46.7314682006836
42.5351715087891
46.7314682006836
49.3064651489258
48.6388740539551
53.9796104431152
58.2712783813477
54.170352935791
39.864803314209
25.3685111999512
25.4638805389404
32.04443359375
26.9898052215576
23.9379558563232
36.0499877929688
46.4453544616699
51.2138710021973
57.0314636230469
60.274055480957
58.4620170593262
53.3120193481445
45.7777633666992
36.6222114562988
32.2351760864258
37.7666549682617
49.9740562438965
60.7509078979492
62.3722038269043
59.9879455566406
57.4129447937012
51.404613494873
45.9685020446777
40.8185043334961
41.1046180725098
52.9305381774902
61.323127746582
64.5657196044922
69.8110885620117
64.5657196044922
54.5518341064453
49.3064651489258
38.6249885559082
33.4749908447266
39.0064697265625
40.7231369018555
41.6768379211426
44.251838684082
45.300910949707
48.6388740539551
41.8675804138184
21.2675857543945
12.302773475647
11.3490705490112
4.1962947845459
8.20184898376465
22.9842510223389
31.6629524230957
32.4259147644043
26.7036952972412
21.1722145080566
14.4962921142578
4.00555419921875
-4.38703584671021
-4.67314672470093
0
-1.81203651428223
-4.38703584671021
-6.86666440963745
-11.5398111343384
-16.1175880432129
-26.1314735412598
-39.2925796508789
-46.2546157836914
-46.2546157836914
-44.4425773620605
-42.630542755127
-39.9601707458496
-34.6194343566895
-39.5786895751953
-46.7314682006836
-39.7694320678711
-41.8675804138184
-50.4509086608887
-43.679615020752
-35.7638778686523
-31.5675830841064
-24.0333251953125
-21.6490669250488
-20.5999927520752
-18.5018463134766
-28.4203605651855
-36.1453590393066
-36.2407302856445
-44.5379486083984
-47.3036880493164
-39.9601707458496
-40.5323944091797
-41.2953567504883
-38.4342460632324
-39.5786895751953
-35.382396697998
-34.3333206176758
-44.6333198547363
-48.1620216369629
-42.5351715087891
-41.5814666748047
-45.3962821960449
-49.0203552246094
-48.8296127319336
-46.9222068786621
-48.734245300293
-47.1129493713379
-39.4833221435547
-37.2898025512695
-44.3472061157227
-49.0203552246094
-45.7777633666992
-45.5870208740234
-48.734245300293
-47.7805404663086
-45.2055397033691
-39.3879508972168
-33.8564720153809
-32.5212860107422
-30.8046188354492
-34.4286918640137
-36.6222114562988
-33.5703582763672
-37.6712837219238
-38.2435073852539
-34.3333206176758
-31.6629524230957
-30.8999900817871
-38.6249885559082
-38.8157272338867
-28.9925842285156
-18.3111057281494
-9.44166374206543
-21.5536975860596
-33.5703582763672
-19.4555492401123
-10.6814785003662
-17.1666603088379
-20.9814739227295
-20.6953639984131
-18.5018463134766
-14.0194396972656
-14.687032699585
-21.2675857543945
-23.4611034393311
-24.4148063659668
-23.8425846099854
-20.3138828277588
-17.0712909698486
-13.6379585266113
-10.6814785003662
-8.77407169342041
-12.0166625976563
-14.4009208679199
-11.1583299636841
-14.687032699585
-16.7851791381836
-6.1037015914917
-4.86388731002808
-7.34351634979248
-3.33796191215515
-5.53147983551025
-1.04907369613647
5.24536848068237
0.9537034034729
-3.147221326828
-8.96481227874756
-8.20184898376465
2.8611102104187
7.24814605712891
5.62685012817383
2.76573991775513
-2.00277709960938
-4.95925760269165
-11.9212923049927
-21.839807510376
-20.5046234130859
-14.2101802825928
-15.1638841629028
-12.9703664779663
-7.72499752044678
0.286111027002335
7.91573810577393
5.1499981880188
8.58333015441895
20.6953639984131
21.7444381713867
16.6898097991943
23.4611034393311
30.2323970794678
21.839807510376
16.7851791381836
18.3111057281494
12.302773475647
10.8722190856934
13.256477355957
11.4444408416748
12.9703664779663
14.1148099899292
14.3055505752563
15.8314762115479
16.4036979675293
16.7851791381836
17.9296245574951
13.1611070632935
3.71944332122803
4.10092449188232
6.86666440963745
2.5749990940094
9.34629344940186
23.3657341003418
23.9379558563232
15.2592544555664
8.58333015441895
4.29166507720947
9.537034034729
18.5018463134766
15.2592544555664
10.0138854980469
10.6814785003662
7.91573810577393
3.24259161949158
-2.09814739227295
-14.3055505752563
-25.3685111999512
-27.943510055542
-33.9518394470215
-48.6388740539551
-46.4453544616699
-30.4231376647949
-37.3851737976074
-59.9879455566406
-87.8360824584961
-100.711082458496
-78.2990493774414
-61.7999801635742
-28.3249912261963
64.4703521728516
181.394393920898
308.427673339844
446.905426025391
551.0498046875
597.209045410156
645.180358886719
692.007202148438
648.327575683594
485.244293212891
274.571197509766
149.254577636719
129.131439208984
82.3046035766602
-48.2573928833008
-190.931427001953
-287.827697753906
-326.071197509766
-305.566558837891
-267.418426513672
-249.584182739258
-253.780471801758
-271.423980712891
-292.405456542969
-303.945281982422
-304.040649414063
-297.07861328125
-267.990661621094
-220.973083496094
-186.449020385742
-167.947174072266
-159.840682983398
-162.51106262207
-166.898101806641
-171.285125732422
-171.952728271484
-161.557357788086
-142.292541503906
-113.299964904785
-82.3046035766602
-63.8027572631836
-53.3120193481445
-53.7888717651367
-69.8110885620117
-78.012939453125
-71.2416458129883
-64.4703521728516
-59.0342407226563
-50.6416511535645
-39.197208404541
-26.9898052215576
-15.9268465042114
-12.8749961853027
-18.1203651428223
-24.4148063659668
-28.5157318115234
-22.8888816833496
-7.82036781311035
2.95648050308228
11.5398111343384
23.3657341003418
34.9055442810059
39.0064697265625
29.6601753234863
18.8833274841309
14.2101802825928
17.1666603088379
26.7036952972412
26.1314735412598
22.125919342041
30.2323970794678
41.6768379211426
46.8268356323242
46.8268356323242
43.3935050964355
32.9027671813965
28.2296199798584
38.9110984802246
45.1101722717285
38.4342460632324
33.0935096740723
37.8620262145996
41.5814666748047
39.9601707458496
39.197208404541
43.7749862670898
49.783317565918
49.4018363952637
49.6879463195801
48.066650390625
35.0962867736816
27.2759170532227
37.5759124755859
42.9166526794434
39.7694320678711
48.5435028076172
55.7916488647461
50.4509086608887
45.8731346130371
42.5351715087891
37.2898025512695
36.1453590393066
40.2462844848633
40.4370231628418
37.1944313049316
39.197208404541
44.0610961914063
48.734245300293
52.1675758361816
50.6416511535645
38.7203598022461
25.6546211242676
27.1805477142334
34.1425819396973
42.5351715087891
53.9796104431152
58.652759552002
61.99072265625
62.3722038269043
57.2222023010254
57.2222023010254
52.9305381774902
48.8296127319336
49.6879463195801
48.066650390625
51.404613494873
51.404613494873
47.3036880493164
52.7397994995117
56.4592399597168
57.4129447937012
58.652759552002
49.1157264709473
42.7259140014648
47.8759117126465
51.3092422485352
59.701831817627
72.2907180786133
75.247200012207
72.8629379272461
67.5222015380859
61.99072265625
63.039794921875
67.4268264770508
70.0018310546875
67.4268264770508
65.9009017944336
67.2360916137695
68.0944213867188
65.0425720214844
59.6064605712891
60.1786842346191
57.5083160400391
49.783317565918
45.6823921203613
47.1129493713379
52.0722045898438
50.355541229248
42.8212814331055
35.0009155273438
25.3685111999512
16.022216796875
9.34629344940186
5.1499981880188
0.286111027002335
-4.38703584671021
-7.24814605712891
-8.3925895690918
-2.00277709960938
-4.10092449188232
-17.738883972168
-13.9240694046021
-10.8722190856934
-23.5564746856689
-29.7555465698242
-37.1944313049316
-45.4916534423828
-37.1944313049316
-26.6083240509033
-28.0388793945313
-30.1370277404785
-35.5731353759766
-43.4888763427734
-41.3907279968262
-41.5814666748047
-51.1185035705566
-54.5518341064453
-49.2110939025879
-45.300910949707
-47.2083168029785
-49.3064651489258
-46.0638732910156
-42.5351715087891
-44.251838684082
-47.2083168029785
-49.2110939025879
-50.0694274902344
-53.0259094238281
-61.1323890686035
-60.9416465759277
-50.4509086608887
-49.0203552246094
-54.9333152770996
-54.6472053527832
-53.4073905944824
-62.2768325805664
-72.0999755859375
-64.6610870361328
-53.2166481018066
-55.6009063720703
-58.4620170593262
-56.2685012817383
-56.5546112060547
-56.2685012817383
-49.0203552246094
-42.2490615844727
-43.3935050964355
-45.8731346130371
-45.8731346130371
-43.8703575134277
-39.5786895751953
-40.0555419921875
-44.7286911010742
-43.9657249450684
-36.8129501342773
-30.8999900817871
-32.9027671813965
-39.9601707458496
-37.8620262145996
-29.1833248138428
-25.9407329559326
-21.839807510376
-19.9324016571045
-23.7472152709961
-19.5509204864502
-11.9212923049927
-14.7824029922485
-18.9786968231201
-16.30832862854
-14.4962921142578
-18.8833274841309
-27.0851764678955
-24.7962875366211
-17.6435127258301
-19.8370304107666
-22.9842510223389
-22.0305480957031
-16.9759197235107
-14.0194396972656
-23.6518440246582
-32.9027671813965
-28.8972129821777
-21.5536975860596
-22.7935104370117
-30.4231376647949
-32.8073959350586
-28.5157318115234
-24.9870281219482
-26.3222141265869
-24.7009181976318
-17.0712909698486
-17.357400894165
-20.2185115814209
-16.6898097991943
-16.30832862854
-12.8749961853027
-7.15277528762817
-10.8722190856934
-9.34629344940186
-0.190740674734116
0.9537034034729
-9.72777462005615
-17.5481433868408
-12.9703664779663
-13.256477355957
-13.3518476486206
-5.43610954284668
2.28888821601868
15.0685138702393
23.0796222686768
14.4009208679199
3.8148136138916
4.48240613937378
5.81759071350098
-0.9537034034729
-5.1499981880188
-14.1148099899292
-30.0416564941406
-25.9407329559326
-8.0111083984375
-1.14444410800934
1.04907369613647
4.95925760269165
10.8722190856934
21.1722145080566
24.7962875366211
22.5074005126953
19.2648086547852
12.7796258926392
13.1611070632935
14.5916624069214
8.10647869110107
5.34073925018311
5.81759071350098
12.7796258926392
23.2703628540039
22.6981410980225
24.5101776123047
35.1916542053223
32.5212860107422
21.2675857543945
16.8805503845215
10.1092557907104
6.96203470230103
9.9185152053833
6.58055353164673
8.0111083984375
15.1638841629028
13.7333288192749
12.3981437683105
16.5944385528564
13.1611070632935
6.48518323898315
4.57777643203735
5.7222204208374
11.1583299636841
20.1231422424316
20.6953639984131
11.4444408416748
4.10092449188232
-3.71944332122803
-10.1092557907104
-14.8777732849121
-21.2675857543945
-20.2185115814209
-20.5046234130859
-25.2731399536133
-19.7416610717773
-24.1286964416504
-45.7777633666992
-65.9009017944336
-82.4953460693359
-77.2499771118164
-61.323127746582
-36.7175827026367
37.5759124755859
154.881439208984
274.380462646484
401.127655029297
526.825744628906
590.342407226563
629.825744628906
688.096984863281
680.467346191406
553.72021484375
341.044342041016
167.374938964844
127.128662109375
104.335151672363
-18.3111057281494
-167.947174072266
-272.282318115234
-327.311004638672
-314.14990234375
-272.377685546875
-252.349914550781
-249.393432617188
-256.450836181641
-263.412872314453
-271.137878417969
-279.148986816406
-269.707305908203
-245.483261108398
-214.011047363281
-177.198089599609
-144.104583740234
-130.27587890625
-135.044403076172
-142.101806640625
-154.023101806641
-166.325866699219
-166.61198425293
-156.311981201172
-133.041625976563
-104.812004089355
-84.3073806762695
-68.9527587890625
-65.2333145141602
-73.7212753295898
-81.827751159668
-86.3101577758789
-85.1657104492188
-72.6721954345703
-50.4509086608887
-29.8509159088135
-13.3518476486206
-3.8148136138916
-6.6759238243103
-13.7333288192749
-19.9324016571045
-27.4666576385498
-33.761100769043
-33.9518394470215
-22.6027698516846
-4.1962947845459
7.24814605712891
10.1092557907104
11.4444408416748
10.0138854980469
6.1037015914917
6.38981294631958
14.5916624069214
20.409252166748
15.6407356262207
14.4009208679199
24.9870281219482
30.8999900817871
26.3222141265869
29.1833248138428
37.0036926269531
34.2379531860352
36.5268402099609
41.1046180725098
36.8129501342773
40.913875579834
41.2953567504883
37.2898025512695
46.1592445373535
49.1157264709473
41.2953567504883
37.6712837219238
39.2925796508789
41.1046180725098
38.3388748168945
38.148136138916
39.197208404541
33.3796195983887
29.6601753234863
30.8999900817871
29.1833248138428
27.5620288848877
35.0962867736816
47.2083168029785
48.2573928833008
41.5814666748047
37.4805450439453
32.9027671813965
29.0879535675049
29.3740653991699
34.6194343566895
40.913875579834
40.0555419921875
39.6740608215332
45.4916534423828
44.1564674377441
37.099063873291
31.1861019134521
23.4611034393311
24.7009181976318
33.8564720153809
34.9055442810059
36.2407302856445
43.679615020752
43.0120239257813
37.6712837219238
38.3388748168945
37.7666549682617
33.6657295227051
31.5675830841064
36.6222114562988
45.8731346130371
48.4481315612793
53.6935005187988
63.8027572631836
60.3694267272949
49.4018363952637
50.1647987365723
49.4972076416016
41.7722091674805
42.9166526794434
44.251838684082
51.3092422485352
68.4759063720703
71.2416458129883
70.1925735473633
78.7759017944336
77.5360870361328
67.3314590454102
63.5166473388672
65.2333145141602
66.2823867797852
65.2333145141602
65.2333145141602
65.3286819458008
59.6064605712891
54.5518341064453
52.1675758361816
42.8212814331055
34.7148017883301
33.9518394470215
28.0388793945313
26.226842880249
34.2379531860352
36.8129501342773
36.6222114562988
30.995361328125
15.8314762115479
8.20184898376465
10.204626083374
9.06018257141113
6.58055353164673
9.44166374206543
14.7824029922485
18.2157344818115
15.7361059188843
7.34351634979248
0.0953703373670578
-5.81759071350098
-16.8805503845215
-23.8425846099854
-18.0249938964844
-12.3981437683105
-10.8722190856934
-10.1092557907104
-18.8833274841309
-31.2814712524414
-32.4259147644043
-30.8999900817871
-35.382396697998
-42.7259140014648
-40.2462844848633
-27.3712882995605
-23.5564746856689
-28.8018417358398
-33.3796195983887
-37.6712837219238
-43.2027626037598
-47.7805404663086
-47.4944305419922
-51.5953521728516
-55.9823913574219
-56.5546112060547
-65.0425720214844
-64.756462097168
-53.9796104431152
-53.4073905944824
-51.8814659118652
-47.6851692199707
-52.6444282531738
-59.5110931396484
-61.1323890686035
-59.9879455566406
-62.7536849975586
-63.8027572631836
-55.6009063720703
-48.4481315612793
-49.3064651489258
-49.8786888122559
-46.3499870300293
-44.5379486083984
-39.6740608215332
-26.8944358825684
-24.7009181976318
-33.3796195983887
-37.7666549682617
-37.1944313049316
-40.7231369018555
-43.2981338500977
-37.8620262145996
-38.8157272338867
-43.4888763427734
-38.5296173095703
-35.1916542053223
-37.1944313049316
-35.2870254516602
-31.1861019134521
-25.8453617095947
-22.0305480957031
-28.4203605651855
-31.5675830841064
-23.9379558563232
-19.7416610717773
-18.787956237793
-20.5046234130859
-30.4231376647949
-35.8592491149902
-30.8046188354492
-26.8944358825684
-25.3685111999512
-25.177770614624
-28.7064723968506
-28.4203605651855
-21.0768451690674
-17.2620315551758
-19.2648086547852
-24.1286964416504
-29.1833248138428
-27.3712882995605
-24.1286964416504
-26.8944358825684
-26.226842880249
-24.9870281219482
-31.8536930084229
-32.9027671813965
-29.3740653991699
-31.3768424987793
-27.7527694702148
-22.6027698516846
-18.2157344818115
-10.9675893783569
-10.204626083374
-10.9675893783569
-11.5398111343384
-14.4009208679199
-12.3981437683105
-10.0138854980469
-9.537034034729
-8.29721927642822
-1.52592539787292
5.34073925018311
9.25092315673828
12.4935140609741
5.24536848068237
-0.190740674734116
-1.33518481254578
-6.1037015914917
-1.71666610240936
0.9537034034729
-7.72499752044678
-15.2592544555664
-15.35462474823
-18.0249938964844
-26.9898052215576
-28.3249912261963
-23.8425846099854
-18.9786968231201
-12.0166625976563
-4.1962947845459
7.43888664245605
13.6379585266113
12.302773475647
17.4527721405029
25.0823993682861
23.4611034393311
19.1694374084473
19.074068069458
17.8342533111572
15.6407356262207
16.2129573822021
22.2212886810303
34.6194343566895
47.9712791442871
54.0749816894531
53.8842430114746
43.7749862670898
28.1342506408691
25.5592517852783
22.2212886810303
13.0657367706299
20.0277709960938
29.8509159088135
26.7036952972412
20.8861045837402
20.409252166748
23.0796222686768
23.2703628540039
26.7036952972412
31.8536930084229
29.4694347381592
24.7962875366211
19.5509204864502
16.5944385528564
21.1722145080566
25.0823993682861
22.3166599273682
15.4499950408936
7.53425693511963
1.9074068069458
-11.7305517196655
-26.0361022949219
-29.9462871551514
-38.5296173095703
-32.6166572570801
-22.0305480957031
-39.197208404541
-59.2249794006348
-84.2120132446289
-99.0897827148438
-80.4925689697266
-65.9962768554688
-29.6601753234863
66.3777542114258
185.590682983398
312.623962402344
455.298004150391
558.870178222656
601.023864746094
649.28125
688.096984863281
628.395141601563
454.630401611328
254.352691650391
150.780502319336
133.613845825195
64.3749771118164
-82.5907135009766
-217.444381713867
-302.610076904297
-330.458221435547
-302.037872314453
-262.745300292969
-253.303619384766
-263.794372558594
-271.32861328125
-281.151763916016
-287.255462646484
-274.857330322266
-255.973999023438
-225.360107421875
-182.824935913086
-150.589767456055
-128.749954223633
-123.790702819824
-144.486068725586
-167.279571533203
-179.010131835938
-184.350860595703
-174.146240234375
-149.826797485352
-122.93236541748
-94.5120086669922
-72.0046081542969
-62.7536849975586
-69.1434936523438
-83.5444183349609
-91.8416366577148
-93.367561340332
-92.8907089233398
-82.876823425293
-57.7944259643555
-35.382396697998
-24.891658782959
-15.35462474823
-13.1611070632935
-16.30832862854
-11.0629596710205
-11.7305517196655
-13.9240694046021
-1.33518481254578
3.91018390655518
-0.667592406272888
6.86666440963745
16.4990692138672
18.1203651428223
20.0277709960938
20.0277709960938
18.5018463134766
16.6898097991943
9.72777462005615
12.0166625976563
28.3249912261963
35.382396697998
40.5323944091797
51.404613494873
45.1101722717285
36.2407302856445
42.0583190917969
42.2490615844727
39.197208404541
41.7722091674805
39.4833221435547
35.7638778686523
35.8592491149902
33.5703582763672
37.2898025512695
44.1564674377441
41.1046180725098
40.0555419921875
46.3499870300293
48.066650390625
42.8212814331055
42.0583190917969
47.3990592956543
48.4481315612793
43.8703575134277
39.9601707458496
38.8157272338867
41.7722091674805
47.3990592956543
47.5897979736328
39.5786895751953
29.0879535675049
29.1833248138428
37.6712837219238
33.3796195983887
26.9898052215576
31.0907306671143
37.2898025512695
47.1129493713379
56.0777587890625
60.7509078979492
55.0286865234375
35.6685066223145
25.8453617095947
29.0879535675049
32.04443359375
40.913875579834
46.2546157836914
41.2953567504883
41.8675804138184
41.7722091674805
36.5268402099609
35.1916542053223
33.9518394470215
28.4203605651855
31.4722118377686
50.1647987365723
60.274055480957
55.887020111084
59.701831817627
63.4212760925293
55.6009063720703
52.0722045898438
54.3610954284668
53.3120193481445
59.4157218933105
67.4268264770508
57.5083160400391
52.2629470825195
65.5194244384766
71.3370132446289
66.9499816894531
64.1842422485352
61.323127746582
53.5027618408203
46.5407257080078
50.2601699829102
55.5055389404297
56.1731300354004
61.7046089172363
64.9472045898438
58.0805358886719
47.9712791442871
40.2462844848633
40.1509132385254
42.0583190917969
38.0527648925781
38.0527648925781
41.962947845459
41.1999855041504
35.9546165466309
25.8453617095947
16.7851791381836
12.588885307312
6.29444265365601
0
-3.43333220481873
-4.10092449188232
0.572222054004669
-0.47685170173645
-8.20184898376465
-11.2537002563477
-19.7416610717773
-29.6601753234863
-30.2323970794678
-29.278694152832
-26.7990646362305
-26.8944358825684
-34.810173034668
-35.2870254516602
-30.70924949646
-33.3796195983887
-36.7175827026367
-40.7231369018555
-49.1157264709473
-50.355541229248
-43.3935050964355
-41.4860992431641
-37.7666549682617
-31.0907306671143
-40.2462844848633
-55.6009063720703
-57.7944259643555
-57.8897972106934
-66.2823867797852
-70.1925735473633
-63.4212760925293
-55.4101676940918
-50.0694274902344
-45.5870208740234
-43.2981338500977
-43.8703575134277
-43.5842437744141
-48.2573928833008
-55.4101676940918
-49.0203552246094
-46.6360969543457
-50.6416511535645
-44.251838684082
-41.3907279968262
-43.9657249450684
-43.0120239257813
-42.9166526794434
-47.7805404663086
-52.1675758361816
-50.4509086608887
-43.8703575134277
-35.1916542053223
-33.3796195983887
-38.3388748168945
-38.8157272338867
-36.0499877929688
-37.099063873291
-42.9166526794434
-49.4972076416016
-50.9277610778809
-44.251838684082
-35.6685066223145
-35.0962867736816
-33.761100769043
-28.1342506408691
-30.5185089111328
-34.6194343566895
-26.0361022949219
-17.357400894165
-23.6518440246582
-26.6083240509033
-21.839807510376
-29.0879535675049
-36.7175827026367
-30.8046188354492
-26.7036952972412
-26.7036952972412
-19.4555492401123
-16.9759197235107
-25.6546211242676
-27.2759170532227
-24.4148063659668
-30.4231376647949
-34.1425819396973
-29.0879535675049
-25.5592517852783
-22.6027698516846
-15.0685138702393
-8.67870044708252
-8.86944198608398
-12.4935140609741
-16.4990692138672
-20.1231422424316
-17.8342533111572
-16.5944385528564
-14.8777732849121
-7.6296272277832
-6.58055353164673
-9.06018257141113
-6.58055353164673
-4.57777643203735
-4.7685170173645
-9.72777462005615
-14.0194396972656
-11.3490705490112
-13.256477355957
-19.6462898254395
-18.787956237793
-9.82314491271973
-0.572222054004669
2.76573991775513
5.91296100616455
12.7796258926392
15.6407356262207
10.0138854980469
0.667592406272888
-1.43055510520935
3.5287024974823
2.95648050308228
-4.38703584671021
-3.33796191215515
8.67870044708252
14.7824029922485
13.3518476486206
4.7685170173645
-12.6842555999756
-21.3629570007324
-20.1231422424316
-17.357400894165
-7.72499752044678
2.5749990940094
15.0685138702393
28.7064723968506
30.3277683258057
24.5101776123047
17.1666603088379
11.0629596710205
13.3518476486206
20.409252166748
19.1694374084473
15.0685138702393
17.1666603088379
11.7305517196655
2.00277709960938
3.43333220481873
8.67870044708252
10.9675893783569
14.7824029922485
17.357400894165
14.9731435775757
11.8259220123291
6.58055353164673
-1.62129580974579
-2.47962880134583
3.5287024974823
-0.0953703373670578
-4.95925760269165
7.43888664245605
18.1203651428223
13.6379585266113
14.8777732849121
21.7444381713867
17.9296245574951
13.9240694046021
14.7824029922485
17.8342533111572
20.2185115814209
16.8805503845215
20.0277709960938
20.409252166748
7.82036781311035
6.00833129882813
10.4907369613647
0.381481349468231
-9.537034034729
-18.8833274841309
-30.70924949646
-28.8018417358398
-34.9055442810059
-53.3120193481445
-70.8601608276367
-95.8471908569336
-98.899040222168
-81.7323837280273
-57.4129447937012
15.5453653335571
140.861999511719
273.331390380859
402.367462158203
525.5859375
601.119262695313
655.289611816406
717.947937011719
701.258117675781
554.387756347656
338.373962402344
175.481430053711
126.842552185059
89.8388595581055
-24.7009181976318
-162.51106262207
-265.224914550781
-317.678588867188
-306.997131347656
-270.088806152344
-242.812881469727
-230.79621887207
-242.622146606445
-264.652679443359
-281.151763916016
-289.830474853516
-284.489715576172
-259.025848388672
-216.109191894531
-169.282348632813
-139.240692138672
-135.807357788086
-141.529586791992
-151.543472290039
-170.712905883789
-176.530502319336
-164.323089599609
-150.017547607422
-131.515701293945
-103.858299255371
-77.6314544677734
-61.99072265625
-57.3175735473633
-66.7592391967773
-80.3018264770508
-81.0647888183594
-78.012939453125
-77.0592346191406
-66.0916442871094
-48.1620216369629
-24.7962875366211
1.43055510520935
8.20184898376465
-4.67314672470093
-13.5425882339478
-18.5972156524658
-21.0768451690674
-18.0249938964844
-11.5398111343384
2.1935179233551
14.0194396972656
26.226842880249
36.5268402099609
28.8018417358398
16.30832862854
15.35462474823
20.0277709960938
26.226842880249
31.1861019134521
32.5212860107422
30.5185089111328
31.3768424987793
36.7175827026367
36.5268402099609
30.995361328125
35.0009155273438
46.8268356323242
49.9740562438965
44.4425773620605
37.6712837219238
32.7120246887207
32.1398048400879
31.2814712524414
25.5592517852783
22.4120292663574
21.9351787567139
21.3629570007324
24.1286964416504
25.8453617095947
27.1805477142334
28.4203605651855
33.0935096740723
44.1564674377441
44.251838684082
39.3879508972168
39.3879508972168
36.7175827026367
36.431468963623
37.8620262145996
38.8157272338867
38.8157272338867
32.5212860107422
29.5648059844971
39.0064697265625
47.7805404663086
50.9277610778809
48.6388740539551
38.7203598022461
30.8046188354492
30.3277683258057
31.8536930084229
30.8999900817871
28.1342506408691
28.4203605651855
34.7148017883301
45.6823921203613
50.5462799072266
52.3583183288574
53.3120193481445
49.5925750732422
47.4944305419922
42.9166526794434
37.0036926269531
33.761100769043
33.6657295227051
43.5842437744141
54.4564628601074
58.1759071350098
56.2685012817383
50.9277610778809
50.4509086608887
51.4999847412109
47.9712791442871
45.2055397033691
43.2027626037598
43.8703575134277
53.8842430114746
69.6203460693359
78.8712692260742
77.0592346191406
74.1027526855469
67.0453491210938
53.0259094238281
55.6962776184082
65.9962768554688
64.1842422485352
66.3777542114258
72.6721954345703
71.9092330932617
67.7129440307617
63.5166473388672
57.4129447937012
49.3064651489258
45.2055397033691
43.1073951721191
41.7722091674805
40.6277656555176
40.0555419921875
45.300910949707
42.1536903381348
31.0907306671143
25.4638805389404
14.1148099899292
2.1935179233551
-4.29166507720947
-14.3055505752563
-14.4009208679199
-2.67036962509155
-0.9537034034729
-9.25092315673828
-18.5972156524658
-26.6083240509033
-25.0823993682861
-24.9870281219482
-32.1398048400879
-30.8046188354492
-24.1286964416504
-23.1749935150146
-25.6546211242676
-28.5157318115234
-33.4749908447266
-37.5759124755859
-40.913875579834
-47.1129493713379
-55.3147964477539
-61.0370178222656
-59.701831817627
-57.4129447937012
-52.1675758361816
-42.9166526794434
-49.2110939025879
-65.9962768554688
-67.7129440307617
-65.7101669311523
-75.5333099365234
-74.9610900878906
-61.4184989929199
-52.2629470825195
-50.832389831543
-55.6962776184082
-57.2222023010254
-53.6935005187988
-48.1620216369629
-41.3907279968262
-38.4342460632324
-42.630542755127
-46.6360969543457
-45.7777633666992
-39.197208404541
-29.1833248138428
-32.9027671813965
-43.7749862670898
-45.1101722717285
-53.9796104431152
-65.6147918701172
-59.6064605712891
-53.7888717651367
-54.9333152770996
-49.4018363952637
-44.3472061157227
-45.1101722717285
-43.3935050964355
-35.2870254516602
-25.6546211242676
-25.0823993682861
-34.7148017883301
-42.3444290161133
-41.962947845459
-39.3879508972168
-37.2898025512695
-35.6685066223145
-38.2435073852539
-41.2953567504883
-44.7286911010742
-52.1675758361816
-50.1647987365723
-41.1046180725098
-38.6249885559082
-35.5731353759766
-32.5212860107422
-30.995361328125
-27.8481388092041
-30.70924949646
-28.9925842285156
-11.3490705490112
-5.34073925018311
-18.3111057281494
-24.6055469512939
-22.7935104370117
-22.0305480957031
-19.9324016571045
-19.9324016571045
-21.9351787567139
-18.3111057281494
-15.6407356262207
-16.1175880432129
-9.537034034729
-6.86666440963745
-11.635181427002
-15.9268465042114
-14.7824029922485
-5.91296100616455
-4.67314672470093
-5.34073925018311
2.1935179233551
4.95925760269165
4.29166507720947
0
-4.95925760269165
-5.1499981880188
-4.95925760269165
2.47962880134583
15.2592544555664
15.8314762115479
10.2999963760376
10.8722190856934
13.8286991119385
15.0685138702393
16.4036979675293
15.9268465042114
8.96481227874756
6.58055353164673
9.72777462005615
6.86666440963745
8.0111083984375
14.9731435775757
17.6435127258301
18.4064750671387
15.35462474823
7.91573810577393
5.43610954284668
6.00833129882813
0.667592406272888
-6.86666440963745
-8.58333015441895
-10.3953666687012
-16.4036979675293
-17.0712909698486
-6.19907188415527
4.10092449188232
6.96203470230103
13.7333288192749
19.8370304107666
16.30832862854
16.7851791381836
17.5481433868408
13.1611070632935
15.7361059188843
17.0712909698486
13.5425882339478
12.0166625976563
11.8259220123291
12.7796258926392
11.2537002563477
14.4962921142578
33.9518394470215
52.0722045898438
51.7860946655273
45.300910949707
36.2407302856445
20.2185115814209
8.3925895690918
0.858333051204681
1.43055510520935
16.022216796875
22.3166599273682
22.4120292663574
24.6055469512939
21.9351787567139
27.1805477142334
34.4286918640137
27.5620288848877
14.0194396972656
4.38703584671021
3.05185079574585
9.72777462005615
14.5916624069214
10.1092557907104
5.24536848068237
3.91018390655518
-5.62685012817383
-19.1694374084473
-22.2212886810303
-27.1805477142334
-40.1509132385254
-44.7286911010742
-34.3333206176758
-29.6601753234863
-44.6333198547363
-69.0481262207031
-95.9425582885742
-98.1360778808594
-81.0647888183594
-64.5657196044922
-5.24536848068237
104.907371520996
224.215667724609
352.870269775391
492.206329345703
582.903503417969
623.054443359375
683.423828125
718.043273925781
627.727600097656
423.444305419922
224.120300292969
136.856430053711
109.103668212891
21.0768451690674
-127.510147094727
-255.592514038086
-323.591552734375
-332.079528808594
-301.27490234375
-270.184173583984
-263.508239746094
-275.334167480469
-282.773071289063
-285.443420410156
-291.165649414063
-285.157318115234
-262.077697753906
-228.125854492188
-186.544387817383
-154.023101806641
-137.333282470703
-132.755508422852
-149.54069519043
-170.80827331543
-174.146240234375
-171.094390869141
-165.944396972656
-145.916625976563
-115.684219360352
-87.2638626098633
-72.9583129882813
-76.2009048461914
-74.0073852539063
-74.6749725341797
-92.986083984375
-99.948112487793
-87.3592300415039
-71.1462707519531
-56.0777587890625
-44.3472061157227
-31.1861019134521
-15.7361059188843
-11.7305517196655
-18.787956237793
-22.3166599273682
-23.7472152709961
-25.4638805389404
-18.3111057281494
-0.667592406272888
14.3055505752563
20.5046234130859
27.5620288848877
30.8046188354492
23.0796222686768
18.4064750671387
20.5046234130859
19.6462898254395
23.5564746856689
35.4777679443359
41.7722091674805
38.3388748168945
34.0472106933594
37.0036926269531
41.8675804138184
39.3879508972168
36.431468963623
37.3851737976074
35.9546165466309
35.9546165466309
43.679615020752
46.6360969543457
42.630542755127
47.3990592956543
51.9768333435059
44.4425773620605
40.8185043334961
39.4833221435547
36.2407302856445
40.8185043334961
41.6768379211426
32.1398048400879
27.0851764678955
28.6111011505127
36.1453590393066
42.9166526794434
46.7314682006836
56.5546112060547
57.1268348693848
52.3583183288574
51.8814659118652
41.7722091674805
34.4286918640137
40.8185043334961
46.5407257080078
50.6416511535645
56.0777587890625
61.2277565002441
63.2305335998535
55.1240577697754
43.2981338500977
34.3333206176758
30.0416564941406
24.2240657806396
16.8805503845215
23.6518440246582
33.0935096740723
32.6166572570801
33.2842483520508
34.0472106933594
35.1916542053223
38.2435073852539
37.6712837219238
35.0009155273438
36.431468963623
43.4888763427734
53.4073905944824
65.3286819458008
71.1462707519531
63.6120147705078
56.6499824523926
62.7536849975586
65.9009017944336
52.7397994995117
43.3935050964355
49.6879463195801
58.7481307983398
71.1462707519531
80.8740463256836
76.4870147705078
69.8110885620117
67.2360916137695
71.3370132446289
82.3046035766602
81.827751159668
72.1953506469727
68.8573837280273
68.5712738037109
69.7157211303711
67.3314590454102
56.5546112060547
52.5490570068359
46.3499870300293
31.7583236694336
27.1805477142334
32.4259147644043
37.9573936462402
35.9546165466309
31.3768424987793
31.5675830841064
23.7472152709961
11.1583299636841
3.5287024974823
-1.52592539787292
-2.5749990940094
-5.34073925018311
-13.4472179412842
-17.738883972168
-12.3981437683105
-7.82036781311035
-18.787956237793
-35.9546165466309
-37.5759124755859
-30.3277683258057
-36.1453590393066
-46.3499870300293
-48.5435028076172
-44.1564674377441
-36.1453590393066
-34.3333206176758
-36.0499877929688
-35.7638778686523
-35.1916542053223
-37.5759124755859
-46.0638732910156
-53.5027618408203
-58.4620170593262
-57.1268348693848
-49.4972076416016
-46.1592445373535
-44.5379486083984
-46.6360969543457
-50.2601699829102
-48.9249839782715
-51.404613494873
-53.2166481018066
-49.8786888122559
-45.8731346130371
-39.5786895751953
-41.8675804138184
-44.9194297790527
-35.8592491149902
-38.8157272338867
-50.2601699829102
-45.4916534423828
-41.4860992431641
-47.7805404663086
-43.2027626037598
-40.2462844848633
-50.0694274902344
-49.6879463195801
-44.6333198547363
-43.5842437744141
-36.5268402099609
-33.8564720153809
-38.148136138916
-41.0092468261719
-42.5351715087891
-43.2981338500977
-41.962947845459
-40.1509132385254
-42.0583190917969
-43.9657249450684
-37.7666549682617
-28.9925842285156
-23.3657341003418
-21.4583263397217
-26.3222141265869
-32.7120246887207
-30.3277683258057
-27.8481388092041
-34.2379531860352
-36.6222114562988
-32.9981384277344
-27.0851764678955
-22.9842510223389
-29.0879535675049
-33.1888771057129
-34.9055442810059
-38.8157272338867
-35.0962867736816
-27.943510055542
-23.4611034393311
-30.5185089111328
-39.197208404541
-34.1425819396973
-34.7148017883301
-38.3388748168945
-26.3222141265869
-17.357400894165
-24.1286964416504
-27.2759170532227
-25.2731399536133
-27.7527694702148
-19.9324016571045
-12.3981437683105
-14.687032699585
-15.7361059188843
-22.125919342041
-24.4148063659668
-22.9842510223389
-26.9898052215576
-24.891658782959
-25.4638805389404
-22.8888816833496
-9.25092315673828
-4.00555419921875
-6.00833129882813
-6.19907188415527
-10.0138854980469
-16.022216796875
-14.2101802825928
-9.72777462005615
-6.6759238243103
0.47685170173645
5.91296100616455
4.00555419921875
5.7222204208374
13.3518476486206
12.6842555999756
11.635181427002
18.5018463134766
15.1638841629028
4.29166507720947
7.91573810577393
13.5425882339478
3.24259161949158
1.62129580974579
6.96203470230103
-4.29166507720947
-14.1148099899292
-10.4907369613647
-11.3490705490112
-23.9379558563232
-28.2296199798584
-12.9703664779663
1.14444410800934
2.8611102104187
11.4444408416748
27.3712882995605
27.1805477142334
18.5018463134766
19.9324016571045
25.177770614624
21.6490669250488
15.1638841629028
17.1666603088379
18.4064750671387
13.3518476486206
14.3055505752563
17.4527721405029
16.4990692138672
21.5536975860596
24.6055469512939
19.9324016571045
17.5481433868408
8.3925895690918
-7.0574049949646
-9.82314491271973
-8.96481227874756
-6.96203470230103
-0.381481349468231
-0.572222054004669
3.8148136138916
12.3981437683105
14.2101802825928
19.4555492401123
24.9870281219482
28.9925842285156
24.7009181976318
10.8722190856934
13.1611070632935
23.9379558563232
22.6981410980225
14.687032699585
0.858333051204681
-4.67314672470093
-2.00277709960938
-13.5425882339478
-26.5129547119141
-25.3685111999512
-26.9898052215576
-35.6685066223145
-31.8536930084229
-25.5592517852783
-40.7231369018555
-54.8379440307617
-73.1490478515625
-88.2175674438477
-59.5110931396484
-32.3305435180664
-13.3518476486206
62.4675712585449
196.176788330078
343.619323730469
485.911895751953
601.405334472656
661.679443359375
716.517333984375
773.167358398438
711.176635742188
499.263732910156
281.533233642578
168.996246337891
112.155517578125
39.1018409729004
-75.9147872924805
-212.294372558594
-299.844360351563
-329.218414306641
-325.785095214844
-291.547119140625
-253.017517089844
-239.379547119141
-266.083251953125
-308.236938476563
-328.741546630859
-339.804534912109
-330.935089111328
-281.819366455078
-228.316589355469
-184.636978149414
-141.529586791992
-127.319404602051
-136.379592895508
-144.772171020508
-160.794387817383
-169.091613769531
-158.314758300781
-141.720321655273
-124.267555236816
-108.626815795898
-88.3129348754883
-67.0453491210938
-62.1814613342285
-71.0509033203125
-78.7759017944336
-80.778678894043
-81.16015625
-73.4351654052734
-55.1240577697754
-38.148136138916
-19.5509204864502
0.9537034034729
5.53147983551025
-5.81759071350098
-16.4036979675293
-24.5101776123047
-18.9786968231201
-3.05185079574585
-1.23981440067291
2.38425850868225
9.72777462005615
10.3953666687012
13.3518476486206
11.5398111343384
17.2620315551758
26.6083240509033
25.0823993682861
24.0333251953125
24.891658782959
28.8972129821777
32.04443359375
29.5648059844971
32.04443359375
31.0907306671143
25.4638805389404
31.7583236694336
38.3388748168945
35.4777679443359
32.9981384277344
35.4777679443359
45.2055397033691
50.2601699829102
45.5870208740234
42.8212814331055
40.4370231628418
41.6768379211426
43.3935050964355
42.9166526794434
49.9740562438965
53.2166481018066
41.4860992431641
34.5240631103516
42.3444290161133
44.1564674377441
41.1046180725098
47.5897979736328
52.5490570068359
47.6851692199707
41.0092468261719
37.099063873291
34.7148017883301
35.4777679443359
40.5323944091797
45.4916534423828
48.2573928833008
54.3610954284668
60.7509078979492
60.4647941589355
57.7944259643555
56.2685012817383
44.5379486083984
27.657398223877
30.1370277404785
35.9546165466309
32.8073959350586
43.0120239257813
51.7860946655273
53.121280670166
62.7536849975586
63.9934997558594
53.5981292724609
42.8212814331055
39.3879508972168
46.6360969543457
48.1620216369629
46.2546157836914
54.5518341064453
57.4129447937012
53.7888717651367
52.7397994995117
48.1620216369629
45.9685020446777
46.2546157836914
44.1564674377441
47.4944305419922
54.6472053527832
50.832389831543
47.5897979736328
60.7509078979492
62.6583137512207
45.4916534423828
32.8073959350586
28.8972129821777
25.3685111999512
29.0879535675049
40.3416519165039
46.9222068786621
54.6472053527832
59.1296119689941
49.6879463195801
43.8703575134277
45.5870208740234
38.8157272338867
24.4148063659668
18.5972156524658
24.2240657806396
23.1749935150146
15.9268465042114
13.7333288192749
16.7851791381836
21.6490669250488
16.8805503845215
3.62407302856445
-5.24536848068237
-6.1037015914917
-4.57777643203735
-7.72499752044678
-9.15555286407471
-7.53425693511963
-11.2537002563477
-16.1175880432129
-16.4036979675293
-16.4990692138672
-16.1175880432129
-17.4527721405029
-20.9814739227295
-12.3981437683105
-1.14444410800934
-4.7685170173645
-9.72777462005615
-17.357400894165
-27.657398223877
-27.7527694702148
-33.4749908447266
-41.962947845459
-39.864803314209
-42.2490615844727
-50.355541229248
-48.5435028076172
-43.3935050964355
-43.679615020752
-41.962947845459
-38.4342460632324
-40.7231369018555
-46.3499870300293
-47.7805404663086
-46.1592445373535
-48.3527641296387
-51.1185035705566
-51.0231323242188
-50.7370223999023
-48.066650390625
-50.1647987365723
-56.5546112060547
-56.6499824523926
-55.1240577697754
-58.1759071350098
-60.3694267272949
-54.170352935791
-49.5925750732422
-54.8379440307617
-51.5953521728516
-41.7722091674805
-41.1999855041504
-46.1592445373535
-44.4425773620605
-42.0583190917969
-49.0203552246094
-46.4453544616699
-39.3879508972168
-43.0120239257813
-40.5323944091797
-38.0527648925781
-44.251838684082
-43.679615020752
-37.099063873291
-37.5759124755859
-30.70924949646
-11.7305517196655
-8.48795986175537
-15.0685138702393
-14.4962921142578
-17.2620315551758
-17.8342533111572
-13.5425882339478
-16.5944385528564
-17.4527721405029
-18.5972156524658
-27.5620288848877
-30.8999900817871
-30.0416564941406
-27.4666576385498
-24.6055469512939
-23.5564746856689
-23.5564746856689
-24.7962875366211
-15.7361059188843
-7.72499752044678
-11.8259220123291
-16.022216796875
-22.7935104370117
-27.3712882995605
-21.839807510376
-18.2157344818115
-14.2101802825928
-6.77129411697388
-13.4472179412842
-17.8342533111572
-7.24814605712891
-14.7824029922485
-26.9898052215576
-18.787956237793
-12.3981437683105
-1.62129580974579
7.15277528762817
-1.33518481254578
-2.67036962509155
-2.28888821601868
-4.00555419921875
-1.9074068069458
-6.38981294631958
-6.00833129882813
1.14444410800934
8.20184898376465
9.63240432739258
7.82036781311035
15.4499950408936
20.5046234130859
11.0629596710205
1.43055510520935
1.52592539787292
5.62685012817383
5.81759071350098
5.62685012817383
4.10092449188232
-6.58055353164673
-15.8314762115479
-10.8722190856934
-4.48240613937378
-2.67036962509155
11.3490705490112
24.2240657806396
15.2592544555664
10.7768487930298
12.0166625976563
4.86388731002808
10.4907369613647
17.2620315551758
17.6435127258301
24.0333251953125
20.6953639984131
13.1611070632935
12.3981437683105
7.72499752044678
6.29444265365601
16.5944385528564
29.9462871551514
28.2296199798584
11.3490705490112
2.5749990940094
-2.47962880134583
-11.0629596710205
-6.6759238243103
-1.62129580974579
-6.58055353164673
-4.48240613937378
3.05185079574585
6.86666440963745
6.6759238243103
4.57777643203735
8.20184898376465
12.3981437683105
6.48518323898315
1.04907369613647
5.81759071350098
9.63240432739258
4.1962947845459
-3.8148136138916
-8.20184898376465
-13.9240694046021
-20.2185115814209
-29.278694152832
-40.5323944091797
-43.8703575134277
-48.066650390625
-50.9277610778809
-48.2573928833008
-54.8379440307617
-65.3286819458008
-85.2610855102539
-95.3703384399414
-72.2907180786133
-46.5407257080078
-3.43333220481873
85.8333053588867
204.474014282227
336.085083007813
475.039672851563
584.620178222656
633.449768066406
688.955322265625
745.796081542969
687.238647460938
499.645202636719
282.677673339844
159.173095703125
120.929588317871
52.2629470825195
-73.8166427612305
-209.337890625
-303.659149169922
-338.660064697266
-327.120269775391
-287.827697753906
-257.786041259766
-261.028625488281
-275.906402587891
-286.492492675781
-299.748992919922
-300.416564941406
-285.443420410156
-265.987884521484
-229.842514038086
-193.983276367188
-172.811050415039
-155.739761352539
-156.121246337891
-171.857345581055
-178.914764404297
-174.909210205078
-167.851791381836
-147.824020385742
-119.499038696289
-97.9453353881836
-81.7323837280273
-72.0046081542969
-72.0046081542969
-78.5851593017578
-82.2092361450195
-81.827751159668
-79.06201171875
-67.5222015380859
-50.9277610778809
-35.5731353759766
-23.4611034393311
-12.3981437683105
-5.53147983551025
-10.7768487930298
-19.2648086547852
-22.0305480957031
-20.5046234130859
-15.0685138702393
-3.43333220481873
10.0138854980469
15.2592544555664
18.9786968231201
24.891658782959
25.177770614624
24.1286964416504
26.7036952972412
25.7499923706055
21.3629570007324
28.6111011505127
39.0064697265625
34.0472106933594
31.0907306671143
40.1509132385254
46.0638732910156
45.5870208740234
42.1536903381348
38.8157272338867
38.8157272338867
35.4777679443359
39.197208404541
49.4972076416016
48.066650390625
48.2573928833008
54.6472053527832
51.2138710021973
45.6823921203613
47.5897979736328
47.4944305419922
46.4453544616699
51.5953521728516
53.3120193481445
45.9685020446777
44.7286911010742
52.8351669311523
57.3175735473633
61.5138702392578
62.4675712585449
53.4073905944824
51.8814659118652
55.6962776184082
49.6879463195801
41.8675804138184
36.431468963623
37.1944313049316
46.0638732910156
50.7370223999023
46.3499870300293
40.5323944091797
41.6768379211426
45.6823921203613
42.1536903381348
30.6138782501221
18.4064750671387
18.6925868988037
31.4722118377686
43.3935050964355
51.3092422485352
55.0286865234375
51.0231323242188
44.9194297790527
42.9166526794434
42.5351715087891
34.6194343566895
28.4203605651855
38.7203598022461
56.2685012817383
62.7536849975586
59.701831817627
65.9962768554688
72.0046081542969
61.0370178222656
55.5055389404297
61.1323890686035
63.039794921875
64.1842422485352
66.6638641357422
67.903678894043
68.8573837280273
76.4870147705078
85.9286727905273
80.778678894043
73.4351654052734
75.5333099365234
69.8110885620117
63.5166473388672
68.6666412353516
70.9555358886719
64.4703521728516
59.9879455566406
59.5110931396484
53.5027618408203
47.8759117126465
45.4916534423828
38.4342460632324
36.7175827026367
42.3444290161133
40.2462844848633
33.5703582763672
28.8972129821777
24.891658782959
22.5074005126953
18.9786968231201
7.34351634979248
-6.48518323898315
-10.2999963760376
-10.6814785003662
-13.256477355957
-17.1666603088379
-15.9268465042114
-11.1583299636841
-15.35462474823
-22.5074005126953
-29.8509159088135
-36.2407302856445
-37.6712837219238
-39.6740608215332
-38.6249885559082
-36.7175827026367
-40.8185043334961
-42.4398002624512
-40.3416519165039
-43.1073951721191
-46.2546157836914
-47.017578125
-49.6879463195801
-52.9305381774902
-48.2573928833008
-45.6823921203613
-53.8842430114746
-55.5055389404297
-50.832389831543
-52.0722045898438
-58.5573883056641
-65.5194244384766
-63.4212760925293
-60.6555366516113
-64.6610870361328
-64.6610870361328
-61.7046089172363
-58.3666496276855
-56.5546112060547
-58.1759071350098
-56.5546112060547
-57.6036834716797
-64.8518295288086
-64.9472045898438
-63.3259048461914
-67.1407165527344
-63.4212760925293
-58.4620170593262
-61.0370178222656
-57.9851684570313
-46.6360969543457
-40.4370231628418
-40.3416519165039
-38.0527648925781
-39.197208404541
-39.2925796508789
-32.9027671813965
-40.3416519165039
-52.0722045898438
-50.355541229248
-51.4999847412109
-52.7397994995117
-46.7314682006836
-42.8212814331055
-41.0092468261719
-40.8185043334961
-42.7259140014648
-39.6740608215332
-31.4722118377686
-24.4148063659668
-25.9407329559326
-31.4722118377686
-29.278694152832
-17.4527721405029
-7.72499752044678
-12.3981437683105
-21.5536975860596
-22.3166599273682
-18.6925868988037
-13.0657367706299
-8.29721927642822
-13.1611070632935
-18.3111057281494
-12.8749961853027
-11.0629596710205
-18.2157344818115
-22.125919342041
-20.2185115814209
-16.1175880432129
-12.7796258926392
-11.1583299636841
-10.3953666687012
-11.3490705490112
-11.5398111343384
-9.63240432739258
-4.86388731002808
-2.09814739227295
-7.43888664245605
-10.9675893783569
-9.537034034729
-11.2537002563477
-11.9212923049927
-6.29444265365601
0.190740674734116
-0.762962698936462
-1.04907369613647
4.00555419921875
-0.762962698936462
-6.1037015914917
-1.81203651428223
-1.52592539787292
-5.91296100616455
-7.91573810577393
-5.1499981880188
3.5287024974823
9.06018257141113
6.6759238243103
3.43333220481873
0.286111027002335
1.14444410800934
9.44166374206543
13.5425882339478
16.9759197235107
27.5620288848877
33.2842483520508
29.1833248138428
21.5536975860596
11.9212923049927
0.47685170173645
-8.58333015441895
-7.53425693511963
4.00555419921875
8.58333015441895
5.53147983551025
10.4907369613647
15.1638841629028
11.7305517196655
9.9185152053833
8.3925895690918
7.0574049949646
7.6296272277832
9.537034034729
13.9240694046021
15.35462474823
17.738883972168
20.5046234130859
11.5398111343384
4.00555419921875
12.3981437683105
21.839807510376
25.7499923706055
28.3249912261963
19.074068069458
4.57777643203735
6.96203470230103
15.0685138702393
14.9731435775757
15.6407356262207
16.2129573822021
15.1638841629028
16.1175880432129
20.6953639984131
23.9379558563232
17.5481433868408
13.256477355957
15.5453653335571
9.72777462005615
0.572222054004669
0
1.62129580974579
0.381481349468231
-0.286111027002335
-8.48795986175537
-22.7935104370117
-31.9490642547607
-36.3360977172852
-37.0036926269531
-44.0610961914063
-47.017578125
-38.7203598022461
-38.9110984802246
-49.4018363952637
-80.6833038330078
-108.340705871582
-90.8879318237305
-61.7999801635742
-18.787956237793
71.8138656616211
184.732345581055
305.661926269531
443.758178710938
556.009094238281
605.983154296875
653.000732421875
706.026611328125
674.935913085938
520.912780761719
308.618408203125
171.189758300781
140.289764404297
83.5444183349609
-57.6990547180176
-198.65641784668
-292.59619140625
-338.755432128906
-324.259155273438
-285.634155273438
-267.513793945313
-267.513793945313
-271.423980712891
-273.617492675781
-281.342498779297
-291.451751708984
-283.249908447266
-251.110107421875
-205.999938964844
-168.042541503906
-152.497177124023
-150.780502319336
-153.83235168457
-165.753646850586
-175.576797485352
-173.383270263672
-168.996246337891
-155.358276367188
-128.559219360352
-106.242561340332
-89.7434921264648
-77.0592346191406
-77.5360870361328
-84.5934906005859
-89.3620071411133
-93.8444137573242
-88.5036773681641
-70.4786834716797
-55.5055389404297
-39.3879508972168
-20.8861045837402
-14.4009208679199
-10.6814785003662
-7.53425693511963
-10.2999963760376
-10.8722190856934
-13.256477355957
-13.8286991119385
-2.47962880134583
6.48518323898315
13.0657367706299
22.4120292663574
23.4611034393311
18.9786968231201
20.409252166748
23.0796222686768
18.8833274841309
18.8833274841309
20.409252166748
11.2537002563477
12.3981437683105
25.0823993682861
29.1833248138428
27.3712882995605
21.9351787567139
15.6407356262207
19.1694374084473
25.2731399536133
23.3657341003418
24.4148063659668
30.4231376647949
28.8018417358398
20.5999927520752
13.5425882339478
15.8314762115479
24.3194370269775
28.6111011505127
31.7583236694336
34.6194343566895
40.7231369018555
49.6879463195801
46.6360969543457
36.9083213806152
37.5759124755859
48.6388740539551
58.0805358886719
57.3175735473633
56.6499824523926
57.6990547180176
50.2601699829102
45.5870208740234
49.4018363952637
51.5953521728516
45.6823921203613
43.9657249450684
51.0231323242188
51.2138710021973
45.300910949707
42.1536903381348
41.1046180725098
38.148136138916
