Value(μV)
119.767488681609
262.022243839251
395.929545629947
497.80115920377
575.388083684269
636.422086375541
660.030639542354
610.254344371488
479.603092757103
311.020089291253
167.287983892208
76.2211943932765
9.88508414771177
-79.0759623290314
-202.531573173425
-321.280035572007
-383.309483479734
-373.749998634792
-325.857784016885
-287.082261324792
-279.560413582042
-292.763187595076
-306.29940274476
-311.480714575484
-310.531552010988
-302.981718978609
-281.22905645447
-240.738554567504
-189.872543529279
-145.608950856434
-119.892377096639
-112.111546791364
-114.078217598362
-118.823294961084
-122.797687558593
-122.440981982841
-113.614401522061
-96.3922881432931
-77.9205906324223
-67.0809367672829
-65.6574150088482
-66.5651652166536
-61.8424366579167
-51.1680118549875
-41.0101441249863
-36.0992143938266
-34.0489774191869
-29.3167438101122
-20.6950107092475
-12.5832668496128
-8.90421582420574
-8.03920866036084
-5.34626489336917
0.402460619116539
5.33777840327681
5.71846089607165
3.06219230293658
2.42012100189882
6.10065025605633
11.0076076620764
12.8820254340929
11.7509487965595
11.5531309517526
14.7132068710701
18.9604188000928
20.5030322685197
19.2190251701031
18.9725680880179
22.6824008140285
28.6225051273136
32.6906870409191
33.5349790304931
33.8518999085185
36.3877492342376
40.1262510210999
41.7104827354595
40.0985208723741
38.1968238733005
39.2785612016893
42.8790969197353
45.4879487612522
45.0252314753746
43.2188176852801
42.9154743371222
44.0692606119337
43.7818610345041
40.2936872927504
35.5752908480922
33.0465144235534
33.3827126371587
33.8481381954628
31.9380727742346
28.5228296197767
26.4772565662032
26.7758144289407
27.2827276564669
25.7787383515033
23.1242612297597
22.3126531085934
24.6207911888043
27.8732159496977
29.0354981287705
27.7186814865637
26.1181472043384
25.6986881279513
25.1690628485912
22.4338009745021
17.8447534508157
14.3388380462325
14.1758407773271
16.4622740733779
18.5822715583922
19.5437055716951
20.8582507981704
23.9699663469051
27.8314726713602
29.9389077526139
29.4577020946554
28.2701638975074
28.5390971421751
29.9853496423884
30.4159157441782
28.7236140607841
26.3677596368083
25.449915231582
26.0442782561824
26.370241682821
25.5275104926372
25.055300783261
27.1378750162251
31.7597252933812
36.5429554520123
39.4853369423059
41.0336885562054
42.8754673539433
45.2121862553688
46.2560820734534
44.660316442606
41.613402217624
39.7076186341817
39.9359311091712
40.6596274018046
39.8291763017205
37.5196987430148
35.5176983073716
34.6485305663997
33.5051865607732
30.316440121241
25.4676252938608
21.2794541569252
19.2543198166371
18.3345837045478
16.3840887859011
12.8923770864654
9.37736863659049
7.08911730213334
5.19846851981595
1.94397009756518
-2.80077188632649
-7.02264487444246
-8.89983494677462
-8.98185152408335
-9.41720819398937
-11.2986721409009
-13.615869345198
-15.089812263278
-16.2964940302317
-19.1244042746043
-24.2222217959441
-29.8479968844091
-33.7383828630575
-35.6387169839379
-37.2514253667123
-39.7515092086112
-42.1936558568967
-42.8951021405684
-41.8853041173541
-41.0832217041055
-41.9010254706297
-43.4392815017069
-43.7089894341596
-42.3287362848343
-41.1740975501784
-42.1243669832848
-44.8460591373438
-47.4664121925338
-49.1490282755385
-51.080649398246
-54.5290817076849
-58.5827085465638
-60.6822117767845
-59.4128581835527
-56.034425228789
-52.8362631814584
-50.5057103784856
-47.9021221643641
-44.3795193095957
-41.4108805828774
-41.2112742053493
-44.0711133919736
-47.8806691300603
-50.5117563413786
-52.0286942179966
-53.9734425067093
-56.8141935450147
-58.9898977057327
-58.7861094888302
-56.5044719164015
-54.0315653330561
-52.391765055512
-50.5345481906648
-46.94335715453
-41.9100251383559
-37.4677011955419
-35.0996269989604
-34.2500404991551
-33.5133575251801
-32.7699241176066
-33.3207889278285
-35.8460374098767
-39.0078752870398
-40.694141181761
-40.3548412916877
-39.3910901123717
-39.1338967925779
-39.1464516052781
-38.0985907881571
-35.9407591275466
-34.3008389989492
-34.4176600060329
-35.3297110726862
-34.8375414742488
-32.1222261998949
-28.6530465865439
-26.2175532750523
-24.6972748194738
-22.5432828416915
-19.2817784765876
-16.6062387041688
-16.4399890768994
-18.4218165011288
-20.1562803918822
-20.0066248760316
-18.8537413391295
-18.5736363923797
-19.3037326947823
-19.169827476431
-16.8637324619106
-13.6149123719954
-11.8285263723905
-12.0779009092003
-12.4061301757405
-10.930364929457
-8.3886696673171
-7.28519584013403
-8.72800581014347
-11.0975627592295
-12.2844025989071
-12.5115502536506
-13.9516084526741
-17.5789313566069
-21.4120930165253
-22.5616431867904
-20.5315856278648
-17.5528967474838
-15.5799603559867
-13.9086506261824
-10.4851966682436
-5.05367553085403
0.144563635555974
3.12481315929094
4.73158620935343
7.57910627292883
12.7021014548329
18.2977639846243
22.1607770581717
24.4999314495174
27.3429136373593
31.3627256510948
34.5069486399116
34.4564209988728
31.7473475912782
29.3327339301985
28.9916547941133
29.2297999676928
27.4378019551265
23.451624338943
19.755820872986
18.0298875271332
16.7034981199981
12.966060962437
6.73545798611817
1.30836740031542
-0.348536727061124
1.07102809640035
2.596892170432
3.19963785984279
5.13250315480428
10.481988472343
17.5299413182254
22.025671604727
22.0237254061582
20.0109191771044
19.3793148310509
19.7595992097086
17.4256733853996
10.3977123158005
1.55497888035399
-4.46079820395649
-6.5440864112992
-7.58760674247231
-9.57038057884437
-10.2478795700564
-6.5491009512442
-0.459888394868411
1.12766385245733
-6.22416514496188
-18.8192523242223
-28.8529019878319
-34.2032445284897
-41.8843629010511
-59.9962729295421
-87.3168643442095
-113.22704790175
-128.057442152482
-130.619001856542
-123.06318584374
-99.9347988747581
-47.0940453559392
45.3295441888446
170.16294893099
306.33980655142
434.815782330618
547.733713716621
639.328693468105
691.403807984317
676.488934730641
582.336062832254
433.019373663939
279.481935913638
162.771854085983
84.2039960759961
12.4370477608584
-79.5825419592637
-185.17709707716
-270.380030443752
-306.994497624239
-297.646744015259
-270.324680727072
-252.745041536735
-253.876127082202
-266.350205472033
-279.525434138657
-286.312133109846
-280.677624210811
-256.040657281447
-211.065628621545
-156.032087560173
-109.206969457748
-83.9887652773864
-79.4501255032103
-83.9822206109996
-87.3686275960198
-88.0613535897399
-89.3145846215245
-91.010237332989
-87.7620664534965
-74.9931707592818
-54.9691339537238
-35.5882527408347
-23.7178160219714
-20.506066834632
-22.5392913737548
-25.7773192370775
-27.5396460597846
-26.0138630116
-20.0982213249347
-10.6622585767523
-0.954392980414067
5.67529602134793
8.77195619827694
10.8889669857922
14.4433886807246
19.0096294548846
22.248816576923
23.1209810714812
23.2587476074665
24.8896730755782
28.1216867446396
31.0407536414893
32.2838435623217
32.618975284455
33.5832201023702
35.1922939235708
35.8615178893666
34.6145280744914
32.5876302125043
31.8059085408577
32.822192340327
34.2530674946745
34.6956197224876
34.4290032930202
34.7357512836465
35.920032767773
36.7873741010969
36.3033430452202
35.1815369679478
35.2266845568986
37.2296953253645
40.1069518639237
42.3188033318626
43.6395799171553
44.995572852669
46.7328516202661
47.761185550254
46.8011180652187
44.1115656267862
41.3937672672515
39.9352151620595
39.329396204631
38.3159000889519
36.5273742730862
34.8429265717131
33.9919642732321
33.3873667740888
31.812318687296
29.074108555472
26.4311944999934
25.2037194069824
25.3374935201538
25.7043014614895
25.6295252329361
25.5983161264031
26.2891698632016
27.3530312682171
27.6653072802401
26.7609182234518
25.5441323049847
25.2974257160004
26.2378498701951
27.4362180481123
28.1080013107615
28.5268669478326
29.4067284514097
30.6936886038568
31.4860760883011
31.2451491256696
30.6805208017837
31.0793889082282
32.8826419260785
35.2896119666411
37.3137466039962
38.8388322429886
40.3174012803995
41.6446988206772
41.8742876301232
40.2935873167692
37.4918927325153
34.9691705268541
33.695150191403
33.3837792437818
33.3052130332189
33.4615526741514
34.5363168653556
36.7244657338984
39.0926130166843
40.4476782274328
40.6830117291363
40.8807286200079
42.0073326460532
43.8226230880397
45.3133992725581
45.9882920556536
46.3135981895512
46.77766885853
46.9118567887114
45.6426024472463
42.5693064765954
38.5214684371663
34.6706542457272
31.3251261561912
27.8915955957942
23.9286709163654
19.8303810359343
16.2669273917514
13.2258576510836
10.0249594400974
6.32413763049946
2.77662471645529
0.401000025894433
-0.562281208118993
-0.868070179552969
-1.33911402347892
-2.05979943790291
-2.72544886939649
-3.5663529746862
-5.45593754362831
-8.91669408548102
-13.2854853969923
-17.1959306919334
-19.8682136041133
-21.65110576253
-23.2284450704837
-24.6194813664379
-25.3085233933705
-25.270483215752
-25.4088729928215
-26.6730085557469
-28.9001475933048
-30.8775689691692
-31.6099610348147
-31.2587400604426
-30.668169095005
-30.2137347844154
-29.5195032297443
-28.3568838186914
-27.4181316594288
-27.8065579344868
-29.8029126638663
-32.4750618279101
-34.6545886350236
-36.0746192863965
-37.3090578534063
-38.7471926059233
-40.0553929498188
-40.8274803323828
-41.4506216916535
-42.8826150683404
-45.5053243314214
-48.5171233117178
-50.6901739743612
-51.5612622838067
-51.5774006042353
-51.1178152946261
-49.8018655143731
-47.0728644378853
-43.2684370798468
-39.6436002846577
-37.1545890254026
-35.497331531179
-33.6577508488624
-31.3096140235928
-29.2854092421298
-28.5340171076864
-28.9440923897123
-29.5770089451448
-29.978092981217
-30.7767856113413
-32.6942618258477
-35.201297492651
-36.622261486018
-35.6867623883501
-32.6823051512338
-28.8591790756853
-24.9491310846793
-20.7204224522263
-16.041581395389
-11.8845017130935
-9.75572703479877
-10.1358215754143
-11.8849302343249
-13.4105157960798
-14.1845453944151
-14.8072381822516
-15.728833816991
-16.4386047610843
-16.203247819819
-15.2883344655564
-14.9017520002678
-15.7929066260468
-17.2765564285554
-17.9675325619475
-17.3162418735841
-16.0143287960627
-14.8483668502157
-13.6214564733249
-11.622244227169
-8.97812053801382
-6.95508256871478
-6.61624559637882
-7.48262069503321
-7.96822703968831
-7.12849839364871
-5.55645072878756
-4.35366025127031
-3.60634929464771
-2.4270611213385
-0.515689080385375
0.896399292173363
0.135544423250462
-3.03076375473137
-7.07943969739251
-10.4133718078147
-12.9374212008369
-15.5939562743217
-18.5834265108428
-20.6840095675735
-20.5947789242851
-18.521815826612
-15.8784527458935
-13.4555958220887
-10.4621352567696
-5.71970425342879
0.532516183110612
6.57603174447342
10.9555291679191
13.7277726612311
15.6347908313943
16.4586410664636
14.9557828212105
10.6211721010995
4.93983317289384
0.289310954786654
-2.28925648365746
-3.67177035068446
-4.91222036953674
-5.5784861836922
-4.46247721757161
-1.71964455039583
0.598248746498509
0.653585832180312
-0.978811198456569
-1.9459508875578
-0.932225777165979
0.908197222226459
1.75405665751171
1.73705551565424
2.7746909006803
5.68124558751243
8.42996875428224
8.1845821439945
4.75142602722632
0.928211564156026
-0.970429929894092
-2.02988848639784
-5.11248197637926
-10.5103576394951
-14.5327008883845
-13.292585762999
-7.31046409821879
-1.19580746068842
1.32080267211605
0.851771886765345
0.0699274043712119
-1.127135331923
-6.46635425586635
-18.8828677534026
-36.623559283069
-55.0629930132739
-71.7270040755848
-87.5574207543613
-102.682885564515
-113.123006465972
-114.255346720257
-107.050796115535
-97.1076654840088
-84.409354957715
-55.4489791560471
9.44283339615733
117.15605774873
250.946162333783
381.78311280931
491.573777643883
582.277083614899
659.186755893838
707.593469481536
693.667325107607
595.467496222403
433.567944047953
265.062990194568
140.456983492108
63.6900235997129
-4.15981097903703
-100.300741567637
-219.596473984668
-318.478898032501
-357.92721931978
-340.997635189955
-308.469631489023
-300.297950992071
-322.968741749075
-351.95624708365
-360.453770097429
-342.401249626273
-310.349112652081
-277.700277677896
-247.5093035628
-216.818264485962
-186.318603631108
-162.098356018536
-148.968648893259
-145.242488872918
-145.17025103766
-144.720819044911
-143.190230736808
-139.973729924491
-132.437806314384
-118.559785548091
-100.743380797774
-85.0911210741941
-76.1372330404522
-72.9144898458861
-70.685624502955
-65.9408986099624
-58.9101832354586
-51.5715832386116
-44.6274406404037
-37.2977407898371
-29.3759530036704
-22.099746989743
-16.5675758737567
-12.1611851822498
-7.41544335374423
-2.19808314094848
1.93942095144733
3.93423047951195
5.03835402604621
7.68312068354764
12.6344564852025
18.045456761131
21.6574422065063
23.3706176448239
24.973493464985
27.5385109370954
29.9784686183522
30.6350458435554
29.7278336493556
29.356542375625
30.9788362882793
33.6122384859248
35.0827950218958
34.7133044687338
34.0464116013269
34.8122141342484
36.8900033047019
38.8765795599154
40.3483358405452
42.6842183565741
47.2807317019913
53.4810467750832
58.9489928062889
62.0508432456275
63.2541387644433
63.921219797024
64.2837403701917
63.3310910732089
60.6616490454762
57.6640904699413
56.281729567714
56.8583576551234
57.8412455357769
57.7297341860175
56.7640028226035
56.2550566360591
56.5919664424496
56.6645542957362
55.4788788692585
53.7539111586307
53.2592637412215
54.6404072869682
56.5283901663699
57.1144736873194
56.188831473462
55.0676396993076
54.6121205709454
54.0196563036174
51.9948447850117
48.7179188368983
45.9349713036825
44.9497392247245
45.0788573704255
44.5810547863931
42.8905748375576
41.3192963394232
41.3965365450679
43.0550907012389
44.9911842409302
46.617654974298
48.9358323813345
53.1061029619365
58.56416935713
63.1780538034839
65.3304041346012
65.3592993955668
64.669887281609
63.8367200156283
62.2107502162193
59.4278008791699
56.6432735585515
55.6872380683089
57.1189252666469
59.6589106541512
61.7204390607144
63.0779677854166
64.6176085269172
66.6805054681993
68.317472290524
68.4633829572923
67.4089643110601
66.5193579159548
66.4876838912031
66.3940212800146
64.8186673014772
61.5775136931642
57.8519637434542
54.6183196667899
51.5070317953775
47.5959775042004
43.0145082557442
39.1166263596485
36.8771346164729
35.5673792233587
33.4762769524515
29.8102667840957
25.3876034171992
21.3339189148428
17.5853851915047
13.190784758569
7.95305679288879
3.1295227152378
0.142442870034786
-1.09067653400234
-2.04110620573594
-3.80005515627025
-5.92160101456323
-7.3033080328524
-7.84253992860485
-8.62665224144395
-10.4238692649071
-12.5495276306809
-13.7043314799577
-13.7399477841567
-14.0181023310591
-15.8338860801626
-18.9087267483699
-21.8694987976758
-24.0234500886524
-26.0590885959291
-28.7770618689406
-31.6242991574298
-33.1061335137961
-32.6505027865622
-31.5005076779653
-31.3998981046298
-32.6920830153282
-34.2226295405772
-35.0829966570891
-35.8418678496866
-37.6336704174139
-40.3619507579041
-42.5019845874841
-42.8977887725434
-42.2752087457478
-42.4775580180207
-44.345764947035
-46.9089627277859
-48.8344813584288
-50.1549020332515
-51.9860681064404
-54.6580170106243
-56.8185835257201
-56.8072810599344
-54.5920961410009
-51.778404466646
-49.6813304741879
-47.9435987267477
-45.4156363211356
-42.0235774691525
-39.0885519920449
-37.6751913053084
-37.2077879073395
-36.2517381968884
-34.464749794312
-33.1312835032613
-33.5423236446617
-35.3334498607954
-36.9564754744293
-37.6345294386248
-38.188177863738
-39.645294748131
-41.5421848557816
-42.2798441881163
-41.1613381278539
-39.4271481168726
-38.8416597639892
-39.5936188365045
-40.2135291595822
-39.5877218480899
-38.3941022461872
-38.0584122745129
-38.646022457664
-38.5710967730477
-36.6255552851732
-33.7075387345824
-31.9211478480729
-32.1185515078614
-33.0155455290097
-32.983071222065
-32.1253803985404
-31.899063107078
-32.8072737263505
-33.3037182795616
-31.4902857032077
-27.4858447151591
-23.3738852406711
-20.7417545348638
-18.9617107575378
-16.3938431818431
-12.8568988639682
-10.0568503661751
-9.38679863853901
-10.0314547078836
-9.95096861004984
-8.51420772039648
-7.3237587204999
-8.11396864014544
-10.4616796887272
-12.3174512005786
-12.6451193566247
-12.6561307242367
-13.9870589568698
-16.2647240714147
-17.3790130188043
-16.2019011249539
-14.1673886731762
-13.5344878551337
-14.5279640580311
-15.1066056362244
-13.6950318285272
-11.2778971104035
-10.0470613645844
-10.3642882787391
-10.1213377622368
-7.47451104156828
-3.41221899810918
-0.69945079560328
-0.459090137929156
-0.830203789644907
0.501347857589381
3.20301330994
4.74390826575811
3.84503173299015
2.33835077781434
2.850019814886
5.2708201954155
6.72832357421512
5.25213096576555
2.3804717450233
1.20807949678565
2.35731091054953
3.2100155704224
1.52568212273231
-1.30846754749503
-1.85458696213305
0.839043704666562
3.71374272460183
3.42187793803393
0.605011823120311
-0.932587719956636
0.730676900687172
2.90588170462802
1.59976984767993
-3.30013045576638
-7.74396894925886
-8.60944466610492
-7.48844934750871
-8.07712440615331
-10.6116121626315
-11.0436148284275
-6.58931147240631
-0.526493650773578
0.570493981997974
-5.692327999457
-14.8338840510957
-21.5046944347386
-26.8660955861117
-37.6853419111234
-57.7459012136147
-82.1534291194678
-101.578212560101
-110.488802620938
-108.055824576716
-90.5364929282464
-46.8124586330728
33.5660521546312
146.954786148168
273.682830766233
392.704988370496
496.906460072638
589.644397312834
664.88572245434
695.998973315776
652.479789802423
532.121646974632
373.87173173803
232.428631173693
135.71203122257
66.9164790666085
-10.7199690907813
-112.117649762291
-214.104608401618
-279.315716857377
-293.063825152132
-275.228360780721
-258.483653825708
-259.071983310688
-269.566819701573
-275.381021818046
-272.115847251143
-265.311087311862
-258.00312206718
-244.669903098605
-219.083701465138
-184.808608301925
-154.199291020095
-136.747269412813
-130.67411374578
-127.075967889687
-120.590401298152
-113.703732104887
-110.805937380422
-110.687602057819
-107.013761911387
-95.6391592684109
-79.4330535451983
-65.1026265592333
-56.4429833687188
-51.9344020047844
-48.3290468892284
-44.6819943134478
-41.984367722128
-40.0901742136306
-36.930426658194
-31.2154266677746
-24.6708934516898
-20.3902721596794
-19.174842381275
-18.5447039220619
-15.7162527544249
-10.7847445566363
-6.20621401099314
-3.47693177411928
-1.35312412631934
2.26422563887513
7.42754879091614
12.0034384227882
14.334024577888
15.1640954147621
16.4426531659798
18.7395139946606
20.6803215315592
20.9989595487682
20.3800743116319
20.6666932931195
22.5370574140997
24.706689464575
25.6309448352031
25.4295952483933
25.577808569226
26.9002546242256
28.5626641294805
29.3248174914251
29.3071522190623
29.9059237948832
31.9857355248415
34.7331897508601
36.6459608591437
37.3360799230923
37.8261514177919
39.0461379716885
40.5673524502823
41.2156407375856
40.694046445068
40.0467271220869
40.3605575761434
41.4135199941718
42.0167009964499
41.5720199330358
40.820722317287
40.8640260220264
41.7851798214087
42.6555667640228
42.8445605687641
42.8621610873433
43.6300777176625
45.1651614576266
46.4180289113613
46.4873192865512
45.6533364919955
44.9443047700197
44.8584378532817
44.9069373590497
44.5052402820264
43.9634954550086
44.230816312235
45.7102351710391
47.6839779249781
49.0974166584546
49.7082724384516
50.174174654171
51.043071839805
51.9919872363119
52.2711778633297
51.719247492839
51.0031524262848
50.7823408192938
50.8922748522649
50.5879242249569
49.5073926825993
48.12365653498
47.1611359754387
46.7829850240603
46.5810074545299
46.2988553467044
46.2804842743049
47.0618473629141
48.6886977929854
50.6876594253377
52.7196489628753
55.0300650729222
58.0899546598347
61.9005632156776
65.8685761043648
69.3877657142248
72.3281599677131
74.7828159366113
76.4502810195683
76.5603380622923
74.5588310505751
70.7477415860229
66.0721677577761
61.2873338110569
56.4947290037735
51.5383032504163
46.6473190351318
42.4245125242756
39.1659109299139
36.4036874361947
33.3132402255874
29.5410018499303
25.4789884521402
21.7036711704695
18.3163871384693
14.9819969197792
11.5266141461706
8.25287011389497
5.55067207262367
3.34093069581456
1.12288323133042
-1.39622554652475
-3.88521986291406
-5.72706843515373
-6.6965220387716
-7.14720152756516
-7.53233936178671
-7.94538499364666
-8.30789767530376
-8.93100938560769
-10.6223471476132
-14.0555036841727
-19.0857105318738
-24.830899319369
-30.4336355785303
-35.6048600328217
-40.3598879296629
-44.4010453838606
-47.0477330002512
-47.8868475465609
-47.3410329894372
-46.3889593764635
-45.702655215443
-45.1998617062722
-44.5090113480482
-43.7255582800078
-43.5001893659818
-44.3603835764032
-46.1352443771594
-48.2088737220366
-50.2637727353909
-52.5509689622487
-55.33391270076
-58.2223378129811
-60.2788242618753
-60.8275664135751
-60.02320922284
-58.5414220910427
-56.8353153196995
-54.8909250921179
-52.712517585684
-50.7994195698173
-49.8910636334174
-50.2287324533675
-51.2501872738625
-52.1289828024268
-52.5338130938838
-52.7354868838679
-53.0326763208446
-53.3064459929737
-53.2769107455267
-53.0595393368476
-53.1979596522628
-54.0429236280733
-55.2430145992031
-56.0217240876521
-55.9328058558347
-55.1825278200884
-54.1738858708418
-52.9287194114211
-51.1685325271822
-48.9194843872784
-46.7660255095333
-45.3146799911785
-44.4950843140382
-43.6081755497002
-42.1147526116083
-40.2070382481521
-38.4716502362682
-37.1155272827339
-35.7773466076393
-34.1526331517226
-32.5549419630231
-31.5913678454272
-31.3112257736225
-30.9469404049127
-29.6641152259899
-27.4428159255807
-25.0154197220247
-22.9807877813328
-21.2607706327254
-19.5805856627409
-18.2569828933893
-18.1221532282735
-19.5486643620326
-21.801712291509
-23.6266265746589
-24.4218755329353
-24.5683369416322
-24.5530773856831
-24.0920577493453
-22.4567635335984
-19.5928892691721
-16.4969249153141
-14.2272611856389
-12.745701239454
-11.1085438759736
-8.8313993676691
-6.69209089941537
-5.89476785645009
-6.62629881919604
-7.86266322453094
-8.6821578290263
-9.34662709717373
-10.6666056329277
-12.4320148503221
-13.0310858721194
-10.9505955512207
-6.40322776686068
-1.05349481891733
3.82595771171594
8.43674466358964
13.4409287002756
18.284134223991
21.2220137688861
21.210147821046
19.2844038246027
17.5590297846669
16.9770418683307
16.5948508406978
15.2539359544141
13.4115147432167
12.6907280378591
13.7202972446845
15.1592084588265
15.3220723122212
14.3746525596007
14.1895239257132
15.9266097981412
18.4286560206874
19.5679017909133
18.8550221980276
17.9031489549937
18.0977255474668
18.549213728748
17.1524755823644
13.5055312071717
9.8321377386885
8.47916728500281
9.03302492674016
8.76160797937836
5.89540311363287
1.57831743372027
-1.96653207726691
-4.52278479631451
-7.98968605574018
-13.2642064256189
-18.1277528515686
-19.2777873991089
-16.1892859989178
-11.8794867378873
-9.58646168364788
-9.8018711059199
-11.6269083543569
-16.3690740845604
-27.8043923632822
-47.7958719303207
-72.6539894885737
-95.3475116266574
-110.881018619383
-117.135558322847
-109.171462115714
-75.1803996310676
-2.86010360550641
107.414282021835
237.340087658497
362.100960085704
468.174488893656
557.502578068103
631.962647267062
676.190133576238
662.193849473191
575.967334391245
438.683189134918
296.155023991049
182.727307054351
95.2044589051205
4.54789433245722
-106.185352299808
-217.734508924331
-290.269247108775
-302.435694910307
-272.935110236108
-243.078154441796
-239.877525427278
-257.382781472996
-271.541922177085
-268.120747356383
-253.324469089579
-240.159557643731
-230.752646997409
-215.680587920665
-188.573750590853
-156.610503722939
-134.409474684513
-129.341260442464
-135.266506268035
-140.326021396829
-138.312627190829
-131.292625252481
-123.34983981124
-115.14957283528
-105.430402707053
-95.2986454225281
-88.1715766464265
-85.2539879502264
-83.1102342633733
-77.1993030104911
-67.1622811147687
-57.1456229319984
-50.7601608075231
-47.0401510898106
-42.2716284100874
-34.9962892979503
-27.7108973511216
-23.3700721441575
-21.4979264773318
-18.903256230656
-13.803287255287
-7.85945399345236
-3.63355313624924
-1.04288252378524
2.46365963708981
8.34351440034543
14.795494871951
18.8479814129574
19.9592215983088
20.4972443429097
22.617009909288
25.6821336950092
27.4882998451025
27.4809710494259
27.6311923411134
29.8443643764192
33.3745891585034
35.6670401067304
35.528095626648
34.5193900908288
34.8556729883876
36.6297908023614
37.9438230028028
37.6233563513911
36.8376005358665
37.4955302178751
39.5926965300554
41.0516723050371
40.2951203485535
38.2154671001906
37.0294530048819
37.5725122549854
38.5401430744678
38.5340870774807
38.0852427952583
38.9416957027645
41.5953936967745
44.3706125349437
45.3380751121383
44.6038091312871
44.0393065232344
44.8628412046046
46.2352140863674
46.6186033467142
45.9888264013069
45.9154683494971
47.4004212012323
49.36080894277
49.8120240342668
48.2662902585775
46.2718330230534
45.442205795007
45.5609156341155
45.1701650892417
43.7522652094396
42.5505028819512
42.9310843495504
44.4707881109849
45.3339437710741
44.4992976064109
42.9748152716348
42.464050464089
43.2549794330878
44.0550750862662
43.8899715834027
43.4811891353116
44.2613398527868
46.3502753304954
48.2096588516052
48.4892187032487
47.6929401315989
47.5209495069996
48.7669226270015
50.494234117041
51.4838455692611
51.955627230511
53.2512501887646
55.9108937862195
58.731537208264
60.1155912516765
59.9993808691016
59.872295267329
60.8793567077177
62.4754834356529
63.3292800042904
63.1993801934344
63.2537920559156
64.4048115772984
65.8935144548642
66.0569962118835
64.341976479158
61.9708463646348
60.4048428893356
59.6016599414429
58.2936637699361
55.8378594951484
53.1397105224018
51.415425210421
50.4476299251163
48.6870505666982
45.1351308639006
40.5916827430887
36.6604753594772
33.8119666703221
30.9958060916082
27.229620366405
23.0005075531694
19.6043195703601
17.3107652275272
14.8201031346489
10.7870839629339
5.46201437920165
0.331537524624624
-3.74897932645347
-7.49031543708774
-11.9963806545438
-17.1008588566657
-21.458459869741
-24.2796536568293
-26.3888120413737
-29.1600346708505
-32.6966707103981
-35.6484509745177
-36.926509567938
-37.0823370697699
-37.5559470542542
-38.8043311710015
-39.7961194408261
-39.5463412570417
-38.647001400742
-38.7201827820196
-40.4457623918869
-42.7198514433957
-44.0608093608388
-44.461512957837
-45.3100141669304
-47.525507859561
-50.3743471299851
-52.5061209460315
-53.8088088359879
-55.5998410971414
-58.8705942998729
-62.8828936277442
-65.9715839452964
-67.5182963162434
-68.5336383465594
-70.1298786578499
-71.944132661257
-72.6106643300528
-71.6316105884707
-70.1088282412351
-69.2984570245861
-68.8689252761399
-67.2017878970429
-63.4176792926398
-58.5183595892006
-54.1579380027048
-50.6550073543065
-46.8574832136196
-42.0254959535716
-37.2039425900623
-34.1844690101285
-33.3272125265457
-33.0705435201569
-31.8169952585066
-29.8071436748908
-28.6049079431184
-28.9221114547848
-29.6550800597114
-29.3828641371822
-28.3168837732049
-28.0837584094021
-29.5762160135015
-31.6719351029766
-32.5114464154926
-31.6876439839691
-30.5199731100937
-30.1204809883831
-29.863957302936
-28.3104948021375
-25.3391689377537
-22.6014693985817
-21.6082212908836
-21.925012413616
-21.8600360247795
-20.7562457431742
-19.8605224860545
-20.6051224951937
-22.57963516772
-23.9259963366295
-23.6939095436754
-23.0485142696546
-23.6765548863433
-25.4433557011953
-26.4145463137237
-25.2906591798938
-23.0919096625073
-21.8439841143906
-21.9368535870305
-21.619610461938
-19.3328313744399
-15.8331357726724
-13.2814728883428
-12.441490906846
-11.673078847391
-9.11119873830027
-5.23047847207798
-2.4202924989079
-2.06584085713089
-2.91331920255826
-2.84603233460489
-1.72114572622814
-1.49607531514474
-3.43823038257505
-6.1112788659817
-6.88753076439617
-5.10897659862197
-2.78646874802749
-1.90301721271027
-1.85731900961088
-0.430171353037835
3.00199991497281
6.32159106432079
7.23040746545049
6.20624342654684
5.89666300735786
7.63627686852599
9.64671155048364
9.36680205604298
6.90625198903332
5.01958150333247
5.52185969238598
6.84969879047652
6.10285650837624
2.99735246823351
0.475885134401343
0.984661755838281
3.19621036148199
3.56573276824474
0.837324958214799
-2.37601036351068
-3.10896812077775
-2.09338060762504
-2.90662791053942
-7.15829027116839
-12.0073061492523
-13.4282367170701
-11.0933763631014
-8.46626742384781
-7.95301208519475
-7.61872007811157
-4.04878838159754
2.32897571322494
6.75944411041448
5.5666298088474
0.419517686242905
-4.43884170321251
-8.4488097301581
-15.6993883829042
-28.5528615314581
-42.3257462032153
-49.2292649757573
-47.8120186907637
-45.6363170128434
-50.3031719511921
-59.3026964116441
-62.4176169200247
-55.1822912105405
-46.1746621981062
-46.1043374500412
-49.2667451140755
-30.6616838188676
33.454053157661
141.815222020174
267.991669229502
384.925535264063
485.942409308087
577.174948763804
650.98173762427
675.684648073034
620.587385992511
492.557172155983
341.248937859211
220.427080154742
141.786903512999
69.728256512507
-35.7470196338344
-171.930539098622
-290.958199834059
-343.985790724643
-326.12552419979
-278.076474343526
-247.004829983795
-248.689565682271
-265.363878263775
-272.915556706688
-264.139391322405
-247.111048733662
-228.942279046697
-207.874658620245
-180.724086459054
-152.142973814257
-132.156806692863
-125.554811883891
-127.223564040759
-128.896030551403
-127.909491511948
-126.971470979435
-126.621170295601
-121.686046005941
-107.21614368356
-86.2944382024448
-69.0300018582066
-62.8905270478207
-65.399043107478
-67.4859338326844
-63.1591476737094
-54.3282585063179
-46.3585803428198
-41.0793915341489
-35.8190880092021
-28.4133920945405
-20.738008098519
-16.1668238805291
-14.8078102566296
-13.1130832556943
-8.3672006480707
-2.08270777832875
2.07463903700673
2.97675388441414
3.22846121528857
5.52048018636613
9.09512158298793
10.9203648999043
9.88073670044965
8.42939694491703
9.60326926275507
13.3497030557292
16.8588615908884
18.2814025369935
18.9130365373087
21.1396166793083
25.0447414761147
28.2053764761416
28.8817782800782
28.3518865420081
29.3401111744499
32.6253168257623
36.213476356272
38.030248585609
38.5357783551568
39.9084983713258
43.0154924849874
46.2244964296504
47.5858429117934
47.4563845891167
48.0993398591663
50.7827405892581
54.133038975417
55.8092316999777
55.2610336322561
54.0479587590729
53.4868352160467
52.8568496643012
50.5315029374438
46.4763998176804
42.7583529852805
41.3441840993183
41.9973749932012
42.8983869108742
43.0520652722681
43.3156599827145
44.8315563763919
47.1060625744417
48.3753681713998
47.7960792332912
46.5502049198185
46.3803649783645
47.4437252698728
48.2393403781797
47.6247423875214
46.2355953848316
45.4894625228519
45.5855296085784
45.2181343046807
43.4077181574853
41.0110628144574
39.8641882445844
40.6122874390249
42.0062513139927
42.5387781454437
42.2711288990861
42.5154859740044
43.8901344698452
45.3847375266428
45.6940611775766
45.0486547588448
45.0869338353047
46.8657699283343
49.5405752280903
51.3832673558348
51.7966712183247
51.7585821790135
52.2435137863624
52.8095086785871
52.2495700612374
50.4206033138732
48.7727404745686
48.7932751158352
50.3130971390311
51.8127564989976
52.2832096579074
52.236145169103
52.6560771761308
53.4161560729279
53.3386434067905
51.8355867697495
49.9143918140763
49.1288755646127
49.7509142390576
50.482000241485
50.045397606956
48.594268408631
47.1772064183804
46.084554178748
44.3465107494297
41.0784418152499
36.8712057594135
33.3112801610136
31.1464417856231
29.4002561470504
26.5410219949342
22.1957729298784
17.2711269904015
12.4795055877473
7.33691594462321
0.996617757787169
-6.2200359516754
-12.7110496200583
-17.1739336043491
-19.9240295129336
-22.3129607591347
-25.0482154813525
-27.5741806952052
-29.1987961877157
-30.3237779473134
-32.0416007480728
-34.6036454071843
-36.8443725239999
-37.4434242495693
-36.4888290703524
-35.3644040519924
-35.1247291514675
-35.4458005518179
-35.432169193676
-35.0989391066564
-35.4800627765297
-37.1816172575272
-39.3236087552226
-40.3693560367876
-39.8847910773524
-39.0224431549057
-39.1370684353227
-40.3146567916485
-41.6395055587745
-42.70580494473
-44.2651243235783
-47.1072961659668
-50.6844914499741
-53.3965836336262
-54.297514351234
-54.0933058377947
-54.1811871493766
-54.9875259996146
-55.7167476696323
-55.7195272536781
-55.5532286815345
-56.2610714237445
-57.8253982616824
-58.9173240736136
-58.3947638363109
-56.6804941177804
-55.2545692962529
-54.9129094767099
-55.0096936817097
-54.5630962965461
-53.6409707561673
-53.1199222992087
-53.1520339077107
-52.4845680288376
-49.71190625756
-44.9677699636465
-39.9002497856448
-35.9421917850434
-33.0681383084773
-30.5405560262837
-28.490562045525
-28.0755928841711
-29.8982459247148
-32.7945954788732
-34.7455887442627
-34.9180731248763
-34.3017515245295
-34.1602465159682
-34.3208023926743
-33.5088243137929
-31.2211717081041
-28.5819623389895
-26.965992053844
-26.174234940027
-24.6302286719257
-21.4608578057885
-17.8105112159005
-15.6521549248156
-15.5723076193033
-16.331434000714
-16.6757571249481
-16.9319699347164
-18.2374221567989
-20.4518117590089
-21.6457456825853
-20.0607883483014
-16.1532082933563
-12.1043540176378
-9.38824272330887
-7.47423572931341
-5.22843969921087
-3.01439037115267
-2.57161970702744
-4.72866506912553
-7.98175345661806
-9.96263195529485
-10.0611792262814
-9.88153554533492
-10.9535195190408
-12.6687085646413
-13.1058508037238
-11.6064757330233
-9.64284361170321
-8.77871131208059
-8.42428122594956
-6.45551755107818
-2.02679624822571
3.05957832189109
6.28343074503248
7.21463186304056
7.61509182289161
8.79616707885238
9.81377512904257
8.96140906928311
6.56942402815141
5.23925574365175
6.94279586478913
10.6327008333855
13.5099633961781
14.3858887665706
14.8077354229138
16.5318007228761
18.780018793336
19.0625732234054
16.59687524342
13.7422010219845
13.3194087077144
15.1348704893172
16.2565565622489
14.7741494826178
12.1491249006427
11.0421287112171
11.5195415733227
10.8189313043507
7.15851849701124
2.50296074534776
0.336895271315313
1.16903494025109
1.85120279034169
-0.0324632583232187
-2.43069993652111
-1.12361386263058
4.42213847591594
9.35810948995726
8.78837293418398
3.68593974041584
-0.582355245920894
-1.93100590981217
-5.63815767365853
-18.6261692487567
-40.0116185427363
-59.6633963280334
-67.5944781173674
-63.8456453896525
-57.5301593482369
-56.5741708981291
-60.5060105923138
-63.7967042447173
-63.1381335068548
-57.3479836771467
-39.9232960153245
3.42035247407351
84.3225259364411
197.94501440904
322.948477754291
437.898795052977
535.805669311148
618.467509733518
676.725097774574
683.285285752876
613.684145141981
477.028888776889
320.687916026601
196.583977589898
118.840547191721
55.9965042068547
-32.4487518912908
-151.587633494791
-263.833947931199
-325.006514847297
-325.515381389305
-295.740637593262
-274.316794170904
-275.122811139131
-284.694877072425
-285.626864898438
-275.885529908302
-264.808058968574
-256.409081704055
-243.24018698572
-217.559563511495
-184.136755998623
-157.9324732757
-149.266379335377
-153.913110579834
-158.718989177704
-154.94921061021
-144.228262265423
-132.66976369752
-122.651651237175
-112.128668204617
-100.119357771403
-89.5587875459015
-83.6707021039281
-81.3547890648615
-78.1769187695345
-71.6924744879386
-64.0441621344207
-58.5957674368735
-55.2929937807292
-50.8920121701619
-43.5520890541814
-35.565287272572
-30.6190309931097
-29.2204167284989
-28.1867880493694
-24.6712100884449
-19.3828286464961
-14.993452654642
-12.1535777786506
-8.51971066200101
-1.99961399989002
6.20123874212426
12.8086159166465
16.385191979067
18.8585123554132
22.8115874284967
28.1740259130227
32.557268192231
34.5809052298212
35.6860059364127
38.0918787538007
41.7072862634267
44.1337973829789
43.76810603744
41.9530091022245
41.4269954916957
43.1472541611276
45.5522016296914
47.0053678008756
48.024402977711
50.3565098237487
54.2559355877614
57.7002290757491
58.6682561327176
57.5421412205566
56.5488557365893
57.0344115358533
58.1069068779144
58.2507064301631
57.5723335632064
57.616368410871
59.0475113158556
60.3951456278902
59.6529128614417
56.7251941459868
53.5683377321867
51.8756748305127
51.313283013043
50.4899133028155
49.1970878851445
48.8332810764317
50.4312734453906
52.9650321525944
54.29071903578
53.6130174951132
52.3451018021924
52.301707770866
53.5861580192028
54.8272170411769
55.2723280310255
55.8424174396684
57.7305220360891
60.4585658787834
62.0591295187446
61.2495613759308
58.8386278446812
56.6076693124947
55.1816828205422
53.6310289914564
51.164465857077
48.5007338962881
47.0113893550905
46.7865322770996
46.2781134213477
44.1124223245181
40.7786048203694
38.027759384361
36.7920662709277
36.3243202802608
35.5854820599856
34.9143941041304
35.6725123533543
38.3035692633257
41.4200559551895
43.2277292329263
43.531856717208
43.7822855898802
45.1472340204795
47.1260464463661
48.4252258000634
48.8085429876904
49.3857592499531
50.9457534144204
52.5951104291127
52.5960436930884
50.3937645538825
47.2328190052617
44.5909426758978
42.4883465784646
39.8294492641937
36.1991185480121
32.6115425570529
30.1490005360697
28.3060894362623
25.3276458776656
20.2347186349706
13.9861012789161
8.30376932601482
3.69986707880749
-0.764152510325658
-5.77212120150722
-10.4534657207248
-13.2802893448014
-14.0166710687842
-14.1445916872607
-15.1551993962165
-16.874217863578
-17.9423310985361
-17.7739517780309
-17.441533796957
-18.400061934541
-20.7977055244154
-23.5875737716096
-26.2022435763908
-29.4690959204173
-34.481563020979
-40.8880238349136
-46.8600490215257
-50.8139091343829
-52.7037802954706
-53.3513264007164
-52.9098157428406
-50.6460954814074
-46.3389605225969
-41.3089060309873
-37.5104543390367
-35.6989983091738
-34.970376610248
-34.2136381643722
-33.5356993072647
-33.8166126969322
-35.1037339887905
-36.1369001747907
-35.7735246566807
-34.4720196291351
-33.808511053602
-34.5527928127399
-35.7547440352632
-36.0094792705182
-35.2354451492673
-34.6533759764944
-35.0582950030628
-35.7457797117285
-35.5647851647336
-34.692613888142
-34.6996852854169
-36.6985582650497
-39.9261405392537
-42.5895275142373
-43.8692031965955
-44.4942155771025
-45.2441559914718
-45.5123558327529
-43.9701153098909
-40.5085740394318
-36.8259236182197
-34.7369703133872
-34.2910836739803
-34.0897288783966
-33.3371347183858
-32.8938436756102
-33.9517990775348
-36.149713328392
-37.7393320394984
-37.694642917883
-37.008330654639
-37.4004817949196
-39.0507023956285
-40.2950987325579
-39.6940940582994
-37.7742942652679
-36.1792065829722
-35.393387584902
-34.1068991251733
-31.1116913624447
-27.2154668906836
-24.5527056258125
-24.0724568588056
-24.4262282543226
-23.7018360448544
-21.7428726955154
-20.0423283360489
-19.42462659884
-18.684258145632
-16.0930983044868
-11.8401851680009
-8.12808310452873
-6.66269851575811
-6.71631825104623
-6.25207621037555
-4.62154745925678
-3.30146733199656
-3.74132741909487
-5.23662187065599
-5.73279274048659
-4.57522680631996
-3.58100924330842
-4.94889600398674
-8.66505837550766
-12.7356645420631
-15.8642713402207
-18.9879820073677
-23.6440650970716
-29.4004733832941
-33.8687750644295
-35.3775894086681
-34.7884576209852
-34.0259071783876
-33.2804100059791
-30.6685925207175
-24.8795476069148
-17.2879733398668
-10.6361116491393
-5.95776224980008
-1.84554065529107
2.92169539325607
6.96012818672156
7.52832115112416
4.03775503864807
-0.780095455741786
-3.76966879046993
-4.67993128911722
-5.60295842879669
-7.29597585179436
-7.40406491139705
-3.21508800464588
4.50939580932559
11.8056183486752
15.8616512065218
17.974339709848
21.240106914953
25.9629285160241
28.9028832721804
27.5396559902142
23.7750000014012
21.9468968321728
23.4283593971987
24.8305464790263
22.4002058765856
17.0581290746573
13.3884112925524
13.6392772905121
14.5232765723822
11.2739038247782
3.97916411772347
-2.04878107848387
-2.58224108080929
0.57229450013191
2.38888530817278
1.38089204412663
1.08329587808901
4.02044599309902
6.42121951319379
1.69302535084593
-10.925327616387
-24.0585324675574
-30.6252335392066
-33.2094331044233
-41.8613692062249
-61.5784002678474
-84.4009774064642
-96.5282954993821
-92.3133321604062
-77.492523596708
-56.8210673496385
-21.6491523434766
45.0827545039418
149.734454516276
276.745291689352
399.616967866807
501.91164506708
583.103427200261
642.393950246328
662.356824903011
617.447754510437
503.054292298719
352.380804303596
216.836346123128
124.844801289556
60.4801274771854
-14.8152684371427
-118.996391373164
-228.882740452817
-302.214559953579
-317.886023337239
-293.469709601472
-265.818716245038
-258.528704932203
-268.696008678193
-280.037096495901
-282.138019929351
-275.387981108871
-262.544296880033
-242.495242559712
-214.327157493311
-183.707558555212
-160.63054662658
-150.064545535489
-147.230736766755
-143.665005772573
-136.595683844659
-130.270723001192
-128.354465032781
-127.652068661136
-121.243157800953
-106.937824483496
-90.404896367605
-79.1987467856549
-75.0388426532883
-73.2427240225468
-69.0219766108312
-62.4389545892822
-56.6008095134354
-52.6041933791808
-48.191406088344
-41.3716064170116
-33.5800166578158
-27.9698058067649
-25.2331784727823
-22.6419399508551
-17.603983651266
-11.0273490875772
-6.10670947298968
-4.19109807010335
-3.12315010533891
-0.0951328780046197
4.79928866723043
8.87691996773239
10.4529903050777
10.9400896708883
12.8279949627257
16.3605739346908
19.3190683927005
20.1325091791041
20.179973326974
22.2740787870636
27.3070153480057
33.3439303740781
38.1823887886621
41.9461044926146
46.4059637118892
52.0927549413481
57.0997495021177
59.1671991631333
58.3398580503644
56.8027995382502
56.1957694449655
55.8856879266465
54.283520602402
51.2971924104003
48.6553447888397
47.7533052399077
47.9222107872094
47.3836135631511
45.5911456828306
43.8976318938317
43.74985019695
44.8354540687837
45.5752183175733
45.2182198749346
44.7377693260229
45.3924239405258
46.9233072435273
47.8008722807126
47.1918281021589
46.0492936533197
45.9000827960599
46.9234830769482
47.8100722304584
47.5288431688192
46.6522496488318
46.5227883051509
47.4054193128804
48.0855013241047
47.4498239921794
45.9834929584749
45.2316894347543
45.9249217586485
47.1757110529212
47.7293283272091
47.5949635268528
47.9512391733509
49.5145319777178
51.5469652569445
52.7978511529023
53.1281034487964
53.6938923073827
55.4575682788349
57.945518638282
59.8061994979386
60.3810141565037
60.2580244320962
60.1932709252823
59.9327683736657
58.5380350425062
55.7830159912136
52.7650896554769
50.905901009392
50.6054039386547
51.2109471235868
52.2017730074495
53.9292524181107
56.9306949558332
60.7975123156301
64.1981191840813
66.1207465978826
66.7657774838905
66.9574313616478
66.8786040478523
65.802344264119
63.152042986177
59.4467769217187
55.8295431806569
52.7548789604028
49.5498560482319
45.4434089961618
40.7345804458423
36.5655578850678
33.5678675491438
31.1197822414799
28.1712799252418
24.5692767736867
21.1779562099512
18.6628331979341
16.5440924383326
13.7686263509141
10.0685276536319
6.34279450135955
3.55413681908687
1.54300344830823
-0.74324798273269
-3.93427230999441
-7.53631243789256
-10.7098167303432
-13.453227921769
-16.6131042942947
-20.699049636061
-25.0578357427421
-28.5039822060495
-30.6228198642729
-32.1077407405434
-33.7588087879085
-35.4868956741497
-36.6056778142355
-36.966520647302
-37.3797354588186
-38.7197360549862
-40.8625852340621
-42.8456992604704
-44.0547707848074
-44.9130613770998
-46.2145225475717
-48.0226296338746
-49.6085297686121
-50.5024846153794
-51.2322021483702
-52.7122376496408
-55.0338812236105
-57.234725168033
-58.3827835560925
-58.5975315943765
-58.6986278892768
-58.9598695919282
-58.6263853261226
-56.865564604682
-53.931793145129
-51.003471262533
-48.8506703476307
-47.0227636039772
-44.6025566362551
-41.5605521686265
-38.9594393626731
-37.7333647545715
-37.6040303962283
-37.5188126517608
-37.0302807857455
-36.8273843395789
-37.7421223040645
-39.5419832761448
-41.0948447456093
-41.7032656723114
-41.8833272227145
-42.5905574855377
-43.916056153909
-44.9478317874282
-44.9448895059438
-44.2455771546156
-43.700611575452
-43.3979684856773
-42.4139260247191
-39.9819493009106
-36.5735205516112
-33.452964828859
-31.2517286653249
-29.4074903958962
-27.1879435964549
-24.9160260918638
-23.7142658142068
-24.0370079917103
-24.9196191420854
-25.0153139416447
-24.1676979480202
-23.5116276894016
-23.9543713792226
-24.9879719725873
-25.3705494229744
-24.7797314466148
-24.2466058542863
-24.7505834719004
-25.7823059061276
-25.7833539148277
-23.96302739471
-21.1870161278149
-18.808754164344
-16.9740798394039
-14.6051400954072
-11.0546407661801
-7.20565554419372
-4.50506079875784
-3.15863801408022
-1.87706851352054
0.435001031299311
3.22435176306259
4.98343144175409
5.19601211475011
4.95995262629537
5.43314928328676
6.15574592543622
5.53824146120159
2.96940155958844
-0.214542872491059
-2.25981737605255
-3.11059771620762
-4.34790475089515
-6.9841698713716
-9.98895934595086
-11.5322152436564
-11.3707059770352
-11.223432949547
-12.5528182166106
-14.6070056480725
-15.3353874762991
-14.0624423187259
-12.4346289259946
-12.3377551547558
-13.4622182830256
-13.7344931688815
-12.1079541255053
-10.0436372868151
-9.64926300382182
-10.8561412035697
-11.3959247216529
-9.73121954624052
-7.13794316030272
-6.11798957316838
-7.11992965266052
-7.88772611954656
-6.40570848365504
-3.62160778545668
-2.26772737758046
-3.18948100293182
-4.01687027413759
-2.10170365289722
1.99101534005653
5.07187217251282
5.38682610974553
4.87602945158372
6.55350574532285
10.3444666518893
12.9322784769424
12.0168810410142
9.46354860235378
9.06936107882287
11.7460010288986
14.5220570305275
14.8351364464388
14.3800331028247
17.0437112838094
23.3194996063922
28.7336960782155
28.879863534783
24.6264517538812
20.1772114868381
16.0586312103776
6.80186849565501
-12.0130406184481
-35.3334047968907
-50.5933606774159
-50.1188556225719
-40.255966221237
-35.568396534353
-43.615560131868
-57.6312613509334
-65.428938608879
-63.0609744575684
-55.7320045428743
-44.7307459425795
-17.973646132674
41.327115428402
136.099439525119
249.389722986427
359.462409877102
458.06906620874
548.2972097834
623.477903227871
655.227797623235
612.08325830104
493.977312064775
343.748959851877
216.740101239906
134.968549140727
72.5153058567886
-11.6918078863784
-127.193209980187
-239.482904189313
-303.140928966752
-304.669855040037
-271.854133014323
-244.431449076714
-240.052847975329
-248.561343909067
-252.850955697249
-248.083746849471
-240.006819618908
-231.292094120402
-216.75219473719
-192.74151301391
-166.093507644243
-149.141425839701
-146.342424348155
-149.298484090016
-146.445808529046
-135.515959533231
-124.072887883533
-118.697376484514
-116.92169679134
-111.370128318907
-99.7621102056939
-87.754599807445
-81.5789209724531
-80.410719757775
-78.0032619975786
-70.8124569514538
-61.9348435298136
-56.3001903694078
-53.9937903694655
-50.4622377188185
-42.8995277942348
-34.114741897849
-28.8608760728049
-27.6381480418673
-26.1188472775701
-20.7982351612784
-13.4125459962045
-8.51003185256406
-7.56752160776403
-7.33974728967187
-4.35923809677916
0.507635844514783
3.37613383210182
2.62882575515823
1.17363038726636
2.81142585687471
7.55723591836317
11.9488008435268
13.7283888178729
14.6645042261786
17.9318635208621
23.6779584942924
28.6636146017288
30.3845800967269
30.2146540285037
31.5062685825801
35.2343343631649
38.8851014574648
39.9163420254418
39.1404342455154
39.623078956796
42.663780941315
46.1926181366928
47.6220531612194
47.3099906087589
48.0676579547867
51.4116735126921
55.502010670533
57.4087041785625
56.6601300047916
55.4534272134481
55.408432648889
55.2846786792025
52.7017382296659
47.536899131091
42.4551584182563
39.833478051419
39.0840570732145
37.8112855554907
35.1747119402668
32.9878951285693
33.1624139922474
34.9725738867121
35.8329597230045
34.6047727995919
33.0839210037466
33.7021933473096
36.433585269003
38.9111695849287
39.5296774984969
39.4259380816943
40.7725901455354
43.7035809687284
45.9708309745008
45.8039643526844
44.2203342584965
43.7595214134393
45.3011154626154
47.0993105776126
47.2230717310597
46.1424014972269
46.0810871798313
48.0555845591981
50.5439814794491
51.5309173005824
51.2044040182443
51.7346710904122
54.4183025079199
57.9225080898678
59.8966459756713
59.8108398077119
59.3380871406413
59.8901340850705
60.6560459756036
59.7625514901313
56.9979437662641
54.4569479359585
54.1986645597347
55.9246130430649
57.6282660339017
58.2627235022247
58.8901451229303
60.8786196998478
63.656905000965
65.0958507152513
64.0599275384798
61.7683568018215
60.1663002050245
59.4436192968183
57.9359162637789
54.4715882493335
50.0101111869018
46.4034293681145
43.9643339923441
41.1152880732991
36.6122475963747
31.3888134515576
27.5346184691003
25.7012119203152
24.3196386600646
21.6441661633014
17.9313103544735
14.9129146094022
13.3172743047516
11.7747715844091
8.59865460380634
4.09929964754255
0.343715260182456
-1.38836200733483
-2.17025442915816
-4.00613676540553
-7.30932163251344
-10.5666937274658
-12.5523453490936
-14.0864870933376
-16.96652412713
-21.4749856413335
-25.7882744744514
-28.1287569429681
-28.8943792578726
-30.0242620833057
-32.4776070272433
-35.1418986364612
-36.5444384366824
-37.0104621863342
-38.3346411263104
-41.3653821178493
-44.7171380686237
-46.3798084725182
-46.1823075017222
-45.9252930063057
-47.0434853516865
-48.87848822441
-49.7941845651491
-49.5812050459551
-49.8882595772816
-52.0517845171977
-55.1870116717842
-57.1192586758043
-57.0214221142026
-56.3683928852538
-57.0021378415992
-58.8577103403668
-60.292662855556
-60.4910910088866
-60.6729700609171
-62.4482127893124
-65.4776359554148
-67.5743181013607
-67.199530623388
-65.1652169143866
-63.3935255272028
-62.4292047363996
-60.980304217694
-58.0120665242142
-54.5046223488697
-52.441375816086
-52.3122306925774
-52.4464986820817
-51.1135634234595
-48.6763704741602
-47.0004830152844
-46.9380845102823
-47.2370746996097
-46.3071245453832
-44.4460503628133
-43.4896293494319
-44.2815460122961
-45.321954303311
-44.4707674654613
-41.5587395190029
-38.5128171861345
-36.82982400006
-35.7111803845537
-33.2970432234714
-29.3326026902098
-25.6810547863708
-23.9368304363394
-23.2695343412963
-21.4019826494066
-17.5354122950802
-13.4454030682288
-11.3216654324623
-11.159567730452
-11.0680897823901
-9.99815831898156
-9.20556740406486
-10.4631993711295
-13.3903130701124
-15.5048685431847
-15.0533416097656
-12.9982733655428
-11.6131944489604
-11.5631454742295
-11.2965678892092
-9.46301671559227
-7.02541211636285
-6.14201459657813
-7.23975895521045
-8.20616760482823
-6.90109936360972
-3.78983887554871
-1.27547440428613
-0.625069071642443
-0.552795598681241
0.691996583615969
2.58868821012465
2.74477058636136
0.0478986086403275
-3.58152805161492
-5.28250306788676
-4.59331945711912
-3.72170351125138
-4.40352293199384
-5.5070793702742
-4.58137780492919
-1.30661319672902
1.80250141375016
2.51834187561656
1.80504895169302
2.60895344599599
5.9955606182582
9.6558605857892
10.7840991666604
9.59315837811614
8.84837618015744
10.036287393916
11.2863095997931
9.90836137816465
6.25906879721574
3.73753916117901
4.71326922832212
7.61070042447952
8.99161469684879
7.95514100486893
7.07773791618114
8.64802800062509
11.2379260361636
11.323349049695
7.98515989964546
4.46391159705572
4.30298965561854
6.95501994872631
8.59330741992335
7.11502681971023
4.75224553312056
4.79890485538665
6.80746736030146
6.80357095538934
2.48017821069855
-3.43811517451427
-6.27681983784041
-5.03214316948384
-3.08318047975999
-3.00707839457204
-2.58236509290373
2.25120173946797
11.1316366368567
18.356821365902
19.223271673138
15.488499614114
12.2074361659952
9.56512271222549
1.02663527025677
-18.0785341739922
-41.5454168282723
-55.4774326106903
-52.2642887650088
-39.7552065827319
-34.0907036096223
-43.4485189377989
-60.8340008471099
-73.1064951806389
-73.8352437269178
-63.9044308029542
-40.848932640553
6.33002600479626
86.8874321775929
194.176025112342
307.113137362005
408.38954805302
497.57755309263
580.5869081723
646.237276977973
661.065272723383
596.366298244487
462.603553687505
311.290507780227
195.345258409603
124.695463282551
62.8309235850671
-30.9175148558168
-156.334737329781
-270.074169481832
-326.593535087861
-319.080418559061
-280.925104233193
-251.749623901484
-245.936190090616
-252.010447191448
-254.635662043314
-250.4851761861
-243.824263599866
-234.366511129234
-216.082049154026
-187.595640524355
-158.442489903434
-141.249887416002
-138.681128094238
-140.999087653775
-137.044296753369
-125.428138930017
-113.499031501875
-107.026384275023
-103.878903142427
-98.3990717377301
-89.4171796686271
-81.3766913401036
-77.9594389849051
-77.1797314875459
-74.1953036286235
-67.6327461888676
-60.9943932146949
-57.6412635522107
-56.2650653597923
-52.7453133959919
-45.7007047788791
-38.3694757264278
-34.5085114898203
-33.7887311351585
-32.5419236892627
-28.5751204869453
-23.660116425464
-20.6779394202733
-19.4733225741419
-16.9472763486208
-11.1510197248939
-3.92261451413846
1.33722614055746
3.77482210635118
5.80865279231674
9.76971329195615
15.0016477906486
19.1004796729511
21.403697336213
23.9873374759154
28.881704042458
35.2322267679255
40.1273203571086
41.9735118301613
42.072870282835
42.5598508239656
43.6092193436156
43.5784049607952
41.6971419672455
39.5528834434869
39.3283211625668
41.1186122911475
42.8616906734261
42.9472598176413
42.0932138708789
42.1444689293726
43.5357541355249
44.8278298221149
44.8562872269609
44.5222616785513
45.757098016549
48.978669494771
52.3792771189514
53.9948418649317
53.8904573037069
53.7025165463673
54.2624027139158
54.4765491713856
52.8864968476719
49.767338862375
46.9465308528038
45.5633305828156
44.6958793029882
42.6281773162053
39.0933480232814
35.6254358855803
33.6763467935669
33.0210301223995
32.4589656528472
31.7218487348142
31.9564583328657
34.1369262118286
37.5534251198439
40.417050875756
41.8172788036893
42.5198165295487
43.6731505532738
45.236811718242
46.2072380630308
46.2208188246251
46.2474479815862
47.3419816293929
49.0858795562228
49.8405711897828
48.5790977904461
45.9885005013934
43.4906765325562
41.5409287006674
39.4447425172972
36.8448587103269
34.7699637896985
34.710212143252
36.8292144144235
39.6300956246277
41.5592179075117
42.5587845353566
43.6951689835914
45.5031911663048
47.2832567482564
48.216584444122
48.7002921388425
50.0204404885768
52.7177017430171
55.7650424248081
57.6386476022997
57.9162630528636
57.4096371350808
56.8115313059385
55.758650891072
53.5516274738847
50.4712958816695
47.7956125492419
46.3694208767968
45.5608495170254
43.9910566480086
41.1258933123202
37.7133367856887
34.5970464990409
31.5713954075049
27.83311396997
23.3918663975727
19.4637296243397
17.1896978197553
16.2619956093945
15.2282820364986
13.1052620901479
10.2676647653046
7.56288502676541
4.92483205447756
1.36634505045939
-3.65143883576636
-9.33126637341879
-14.3687171252321
-18.4649053516762
-22.5764718262653
-27.5931987609627
-33.1557330902696
-38.0906691006954
-41.8034265836422
-44.7697301356772
-47.5494361460821
-49.751654477608
-50.4259879254123
-49.4068526236497
-47.8198563247907
-47.0331912458713
-47.3652788901229
-48.1455531303815
-48.9126038728595
-50.0614830991264
-52.0763149425177
-54.4682946598232
-55.9907610484374
-55.9942210111473
-55.2019728420879
-54.8744249902688
-55.4065323674553
-56.1198776826611
-56.4151631435609
-56.6637821794696
-57.6147392038424
-59.1364775752551
-60.0604979491829
-59.4570850669706
-57.7488553355323
-56.2223494358968
-55.5506756710588
-55.1910021155614
-54.331032781323
-53.0234512735316
-51.966700539994
-51.2764217222803
-49.9978008826574
-47.1389503644168
-42.9507755237615
-38.7936175043207
-35.7471644607866
-33.7290142951783
-32.1556121683884
-31.1028075402853
-31.2933299211758
-32.8962377862227
-34.8211830024996
-35.6060006333835
-34.873372793357
-33.5168222704964
-32.4018050695408
-31.2980890635176
-29.4165831892077
-26.7507834181845
-24.3293354937894
-22.9618747721838
-22.1447018613157
-20.662867335285
-18.1923068732339
-15.8276679723253
-14.8173753976166
-15.126323551517
-15.6666262519965
-15.8206147853324
-16.1657683829949
-17.4031722493447
-18.956489958833
-19.2378098786787
-17.4001115145721
-14.3719236941733
-11.8224892172543
-10.368107780794
-9.29614419053751
-8.05110792042828
-7.37623995437937
-8.47446344071726
-11.2512820348529
-14.0346894475903
-15.3002774942214
-15.2817102785631
-15.4341449946495
-16.4795251688506
-17.5810400281657
-17.6617902438456
-17.0194037274127
-16.9981713479729
-18.0994686153111
-19.0592327136735
-18.2072833671517
-15.4185019970816
-12.1568668251122
-9.60175008620843
-7.3454611668726
-4.33783156398679
-0.712363032062036
2.06362962426424
2.99457731390108
2.89693037597052
3.39639665717156
4.82840276007691
5.81337776591495
5.09613071831397
3.21408637582742
1.76608414828626
1.28088982326017
0.615559021618903
-1.22083545871787
-3.26637640056891
-3.39555494001113
-0.858451466327423
2.70970242579746
5.20153169638058
6.43225284922504
7.89683044367693
10.263447547904
12.0532670134598
11.4345647045147
8.84061835061999
6.83566277900093
7.17623896839466
8.78370017445426
9.28093420636469
8.10051870025472
7.06377196967025
7.67071773531676
8.78811374175844
7.99213576898963
4.92371424792623
2.13910736197526
2.09705988356153
4.09975219620315
5.25748084376588
4.30393414704365
3.21056804440284
4.3589126241995
7.01509885031832
8.00707116976828
5.9936778336128
3.68656862961808
4.74320564031236
9.05284025563129
12.5768845956146
12.2105162452371
9.51280440750795
8.44319272970295
10.0680165928863
11.312234533544
9.50939460733498
6.5483089063286
6.59458101404262
9.95727773778527
11.4003698595884
5.87721006480226
-5.3320547533819
-16.402261606515
-24.9516244208886
-35.8016947311983
-54.7162156527508
-79.3324579397559
-99.0420843454429
-104.711144341492
-96.0879117510239
-76.9637086312769
-44.1236848448844
14.4133932247113
107.028161104814
225.882681622676
350.367811601681
463.759086281001
562.448653567426
644.855313071702
693.688644179821
677.97977158862
580.789066372399
425.533911683342
268.254309031529
156.264309477478
91.3399620154943
34.7241665016665
-50.2633710624131
-160.623219633052
-257.569072400509
-304.921556903264
-301.410749104759
-276.868470375342
-261.860678317324
-264.462239840297
-273.79272759821
-278.679621307099
-277.694324606341
-273.149486596273
-262.389117847279
-239.907659717164
-206.85549810397
-174.00763950264
-153.000657890312
-145.913657822024
-145.24440027033
-143.337351344087
-139.443313063016
-136.950849934085
-136.152000019646
-132.604150207939
-122.768347133419
-108.952616335033
-96.9898252957032
-89.8162662325259
-85.1085198025383
-79.3752530524924
-72.5763752991508
-67.3170669913586
-64.3299279112592
-60.7922710238522
-53.8587304050206
-44.5936091408126
-36.9414103959442
-33.0021977310333
-30.727500739095
-26.8841260499916
-21.2448456845096
-16.5511557877211
-14.5156272249339
-13.2949596461913
-9.76114028811362
-3.51347228181351
2.62700676664305
6.18575125949745
7.94799624821103
10.5487553943925
14.8333624726675
18.8752623765408
20.8275882670969
21.6619870712834
24.0860854024449
29.0646658738603
34.5212312680724
37.8766855386426
39.0707303657504
40.2167659031413
42.5664469616819
44.9226393003053
45.5377966372868
44.8128949460788
45.081801872524
47.7060266478652
51.2969818771104
53.3787588928026
53.2799084834428
52.5174247199562
52.3501996808524
51.9158345462443
49.4771998095573
45.0626528952804
40.8843137298941
38.8727760628612
38.5116502230296
37.7805068073714
35.9379155905446
34.5005983560287
35.2043199732423
37.7084430506109
40.0812025137061
41.3734866507958
42.8254527423343
46.0823180974899
50.7581730841636
54.5479199750121
55.7583593817065
55.0222762774828
54.110181801308
53.5536028515563
52.2217706925952
49.2705563270331
45.713555942302
43.434222236808
42.9162336231175
42.6789143112049
41.1430119570473
38.4875098561407
36.1748678210794
34.9672064777683
34.1809760562999
33.1159075819653
32.5695643521928
34.2123166144042
38.5138076898986
43.9318202644807
48.4665454813922
51.5936612958942
54.1465113272837
56.495178098434
57.6316758112373
56.4850766522188
53.6949064115259
51.3432535445007
50.8054007693582
51.4027071347795
51.5517253504015
50.8780115329076
50.5550352693354
51.5231395981571
53.0552362380203
53.6401376915109
53.0267153447955
52.680263981071
53.9695415663457
56.3961554211649
58.1404152821057
58.186950147913
57.2837741540981
56.5977370603911
55.9788704439399
54.1914994592431
50.7690010238508
46.9390336078368
44.2937310199332
42.8912102622154
41.2502126819955
38.2150901720786
34.2394012500907
30.4793205066551
27.0407997724743
22.8248511150552
17.2052705412747
11.2384235016991
6.66979014675576
3.93789010370745
1.76104628139365
-1.1510210255959
-4.49832141535609
-6.96631164669709
-8.13670129055746
-9.12647698687477
-11.0726572246445
-13.5029615104469
-14.8461244900069
-14.5199156256556
-13.9066393692711
-14.9202463086237
-17.9724747913718
-21.8821636468539
-25.6906828398019
-29.8703803066375
-35.3025312300541
-41.4464079358968
-46.2626811362351
-48.1697701663376
-47.622422047115
-46.3600606183953
-45.3652165319596
-44.1568585588122
-42.1746749663495
-40.2160267894439
-39.8744222063239
-41.6665962116759
-44.3421978308009
-46.3379256552354
-47.5205732767382
-49.0075422763859
-51.4051791844157
-53.8507542644907
-55.0882327865558
-55.0516508757701
-54.7831100297813
-54.8127661628425
-54.2438445684282
-51.8499285361788
-47.7641118081817
-43.5055268017693
-40.2888617657019
-37.8434620264027
-35.2544988060472
-32.5883967094006
-31.0021618617636
-31.1267422378897
-31.9464845692713
-31.8369756996702
-30.5421818490157
-29.5213435356414
-30.1607701335244
-32.143557011411
-34.0663086225886
-35.4048046335595
-37.1196887714357
-40.0136082219135
-43.0271310553198
-43.877108240382
-41.4233230994251
-36.8389184808659
-32.1371944802108
-27.9805851468756
-23.5514426653423
-18.4831953161583
-14.1136818012305
-12.2509327368761
-13.0004030362823
-14.5273804587482
-15.142602795498
-15.0783645801763
-15.7551383731991
-17.6373996686727
-19.5665990607833
-20.3958365190442
-20.6289108298418
-21.7721100345367
-24.2206921139027
-26.5279490073089
-27.0981193549444
-26.1074830285315
-25.1368924551148
-25.0465054302907
-24.9604239199755
-23.7049869989665
-21.6963828760916
-20.6267304934163
-21.2737866483486
-22.3717174492823
-22.1554594355977
-20.6240860543344
-19.5377645053693
-20.1267465554756
-21.5411049864429
-22.09718894128
-21.6183669816099
-21.6514140952128
-23.1724210630071
-24.8456737064296
-24.2985274799593
-20.9077864609728
-16.5096006738245
-13.1012330086848
-10.5528003927551
-7.32702845130422
-3.1709475000214
-0.0461657435211791
0.12880273105392
-1.9680640158765
-3.65481903102091
-3.35192585563625
-2.21950613796468
-2.22468321086395
-3.24847988664121
-3.12977919134651
-0.621385909652929
2.72565447167138
4.39294512834331
4.12300337565345
4.24651042937518
6.56795024228251
9.86673238880144
11.3493875345818
10.1826324840448
8.43057395127768
8.13646035944234
8.47198115592857
6.87662987554362
2.7865039086969
-1.04934601649499
-1.61723518968803
0.796547406902707
3.19161654840682
3.83924968272515
4.3749392325282
7.17569197183216
11.5435434277957
13.969058040906
12.3878054764554
8.88842169747005
7.16979441613905
7.95413744711156
8.3844528135006
6.22329340428433
3.21215271536056
2.95322649290308
6.02527817201025
8.95660908557336
8.66975490102734
6.56405051690953
6.6304065953786
9.96680189638219
13.1889680538422
13.2286827407755
12.1555118656046
15.010949331977
22.8051567218024
29.9157969447574
30.090107905736
23.8601884656693
17.4912861355148
14.1426291261878
8.63247218920116
-6.4689958468867
-30.1938824939081
-51.66577994287
-60.8598836757544
-59.2319225958448
-57.2373227938057
-61.7452263370068
-68.9090247696891
-70.7223221031165
-65.2913403255425
-55.7596332740614
-38.5644039876249
1.85052759495744
80.6397003408945
194.335750234625
319.455272248032
432.373939692636
527.85462057156
612.503593651447
679.537557257065
697.628099792624
634.356123041384
493.821219052787
325.61228958532
188.688193808031
102.91490041078
37.7182837504303
-49.852211968193
-167.179963209699
-277.484004386284
-337.094069940111
-337.525654657561
-309.863819365081
-291.846131462895
-295.622487315072
-307.204964053594
-310.363771430621
-303.891219636769
-295.490835798492
-285.913798895147
-266.163352442145
-230.913254633179
-189.869586529427
-161.731591152538
-157.010154054086
-168.880570648098
-181.056621665915
-182.499650000413
-173.463432159982
-159.736824889578
-144.954126904886
-129.678813400622
-115.138207071809
-104.195436735964
-97.9077619892755
-93.2655179754902
-86.1965530835119
-76.3283147849615
-67.2054122346361
-61.5517400779428
-57.7028297014982
-51.7558841324545
-42.5035023781338
-32.7554381823454
-25.5657109434939
-20.4756274723903
-14.5647326186367
-6.61910007694897
1.22045604758232
6.38138500020731
9.3120156607498
12.8826634737729
18.633864349316
24.8630139553068
28.9561940152285
30.7505251231797
32.5136225727744
35.7398290200059
39.1285845083077
40.391986504512
39.4004212135001
38.4732705748348
39.4784051811349
41.591847669107
42.5959377781556
41.8963906522905
41.2728388451605
42.4842417976673
44.9903927889662
46.7783248738993
47.1043151573502
47.4769624466143
49.6161741802372
53.1219876571966
55.8964448078324
56.693478321468
56.4432042059482
56.7323868903973
57.5948250674698
57.5704495880519
55.8825844483717
53.7711981082075
53.1894529272783
54.5669246879499
56.5139989841817
57.7315285412431
58.5390465431667
60.0756246310506
62.3848229549575
64.0280431764216
63.7537600276258
61.9944558947286
60.2293050359249
59.1001098277479
57.7656153242339
55.2565813663293
51.9292878894134
49.0618266909473
47.1876718339299
45.4503297547836
42.8556725658778
39.7328873707417
37.4392915974625
36.6986186034284
36.7763029134436
36.5599865666943
36.0743464130069
36.4074882954926
38.1696584484092
40.5643980745825
42.3262024784423
43.2892906127076
44.5134934759114
46.801034091226
49.5497720207454
51.4259249066893
51.9487562521871
51.9252885597585
52.23577627416
52.6398291415938
52.1924228012584
50.689395250281
49.2003014121103
48.9618572153912
50.0477802480112
51.4804093189723
52.5386439672761
53.5062614643988
54.9453397616529
56.5775326720123
57.3423952715437
56.5873424750248
54.8266052517702
53.0889228410612
51.7277306908772
50.2151330619738
48.0762789863929
45.6212466201104
43.4862427345144
41.662555106618
39.3930635705799
36.1269672035256
32.2784693989357
28.7873992387462
26.0737765606414
23.7605201721944
21.4708482357872
19.5477236394115
18.6631041305283
18.8156248686322
19.0858142831626
18.5435941340249
17.1746006258966
15.6484768529478
14.2597450678921
12.439569705183
9.46380443423373
5.40355316826136
1.06009381554934
-3.02566383481779
-7.19104356057031
-12.1046894484693
-17.7842064251243
-23.4432627798245
-28.3245972390074
-32.4193269218094
-36.1933012570115
-39.7723769900476
-42.6925409972835
-44.490623070462
-45.2783906063787
-45.5216209064957
-45.3638883198898
-44.441578221571
-42.4364874564484
-39.6033367957643
-36.5717914566229
-33.7357465251812
-31.0903212839515
-28.7120008570468
-27.1384642000936
-27.0100854858915
-28.3606031100234
-30.4837139951544
-32.5907532246181
-34.4491568002227
-36.2337355152389
-37.8840045888181
-38.9142991469657
-38.9856443094562
-38.4766429899793
-38.2359861143185
-38.7538162466832
-39.7557443961724
-40.6826842778585
-41.3901887608048
-42.1721419848238
-43.1600275318829
-43.9844301535899
-44.2005639957327
-43.9168488008123
-43.7658884656245
-44.218412030558
-45.1013220235103
-45.8977416035448
-46.3807148224273
-46.7408280498479
-47.1044639232615
-47.175574662681
-46.5389931658368
-45.2286442980278
-43.7781903248585
-42.6566449992533
-41.8081934961329
-40.8606055868173
-39.6704224048619
-38.4614252901057
-37.4224565438353
-36.3926764572981
-35.1193231970757
-33.7377881337989
-32.7728648615087
-32.5954539408374
-33.0175427301718
-33.5299902259046
-33.823585786891
-33.8809379148343
-33.5753644728416
-32.4503307950637
-30.1225235740059
-26.8434106737901
-23.4399438843884
-20.626455334064
-18.5181765907076
-16.9176953795599
-15.9044125299894
-15.8511219926775
-16.8077419339587
-18.1321352613927
-18.9894790669193
-19.174188988374
-19.2078927773722
-19.5683254586411
-20.0438739556534
-20.0450680723259
-19.4209809131808
-18.6448099400707
-18.09775477255
-17.4439619257365
-16.0152140499985
-13.7605517462941
-11.495041658544
-10.061375747746
-9.46142132403823
-9.06866885376595
-8.58214212705181
-8.37534204790135
-8.73215353178259
-9.04646500675902
-8.21151801803933
-5.84733704824491
-2.80362900572088
-0.233589183941898
1.5975252307431
3.22826209440021
4.79622830053199
5.40978982051896
4.06601344497941
0.980978528553596
-2.46494016404972
-5.20627051235434
-7.52868383483407
-10.3141143055127
-13.4879447022184
-15.7396320218117
-15.9215890178381
-14.2933258309461
-11.9672436844681
-9.32145392179009
-5.55673719537372
-0.0473256167595544
6.32514140482913
11.7250446706727
15.1793866541417
17.3136243413659
19.0862870402593
20.303388739667
19.9967666067733
18.1630870717238
16.3729592402683
16.1814336619824
17.3032191469736
18.0179525377106
17.3840094027852
16.3588560849116
16.302019424005
16.8834906541585
16.3478158298577
13.9526959225302
11.3118343321743
10.6265937199923
11.9474922656922
13.1059677358164
12.5448768690863
11.335160046389
11.5963618658766
13.3645950844999
14.2425228585039
12.561707968984
9.87605885587617
9.15152611679808
10.738633594957
11.5872155600017
9.23880056797161
5.62377974191423
5.34016348270969
10.0101506602666
15.7733238398308
17.4529229245152
14.4077820835058
10.5811473037793
8.52604027891477
5.15699930460795
-4.91601528153321
-22.3816722658193
-41.4961143851388
-55.9876680681331
-65.1079237672632
-72.2967021165164
-78.9578351179993
-82.3764475415184
-80.4674358919765
-75.2099761853737
-67.1826313712626
-46.8213949668444
3.64283470393684
94.2470183223824
213.201908365635
333.014803664745
433.459118718648
515.918826460557
590.386322486829
648.627621930418
657.629960606907
588.034925211217
450.668592146039
298.664851628806
185.832031648306
120.538042750368
63.3909908501697
-27.233241639637
-148.674971497395
-254.78743550643
-302.053882187499
-291.863511062608
-266.318555640968
-265.649997273434
-293.45043768922
-322.331772876295
-327.156978861458
-307.621807644632
-280.589228379135
-258.18409707977
-238.76447728116
-216.849612671913
-194.736430013295
-180.339473646803
-176.148175601578
-175.23353882171
-169.423276773014
-158.392905932644
-148.033507161413
-141.181894797901
-133.474499360978
-119.550232605656
-100.918282696849
-84.9240307109631
-76.2215573028587
-71.8302080182932
-65.8258276127545
-57.1437593114505
-50.3768887824744
-49.020336722094
-50.3888547601661
-48.8097461533634
-42.6471760552286
-35.9126777736475
-32.6056055680545
-31.4174175056601
-27.635758063261
-19.4529755997685
-10.2780482055917
-4.19951116680642
-0.801340762490785
3.84265241694243
11.5058233695211
19.0951956421743
22.4559576659635
21.6339016161629
20.7340678607039
22.7105557224626
25.9789954123411
27.1253085411822
25.87658293417
25.6573518933786
29.0548707745094
34.2686614909529
37.2461783101818
36.6855060271957
35.4012063028847
36.4334797185757
39.1452004748269
40.3773516581503
38.9353163764518
37.3367634122961
38.5090297781199
41.8607001004367
43.9407791225892
42.8070402776106
40.3805718504132
39.802047858607
41.3864528470884
42.4896376595787
41.3095851098762
39.4532101162239
39.838770105958
42.7522776808471
45.3128221340421
45.0659543009756
42.9925846686296
42.0548017284502
43.3012650044533
44.6806657843995
44.0097767010023
42.0216902221781
41.3972954099994
43.0969504842566
44.913823999887
44.209785375666
41.2547848506307
38.8213972319506
38.649157055913
39.4692098064418
39.1060488338235
37.7148274491761
37.7430563615718
40.6325156134515
44.6696599468442
46.9068829986915
46.7006324238481
46.2806231085967
47.6816319699513
50.1275516923772
51.2759384416076
50.5641619197025
50.1182744232748
51.9565870814678
55.1752907948772
56.8708615501716
55.6541549783825
53.2235387667638
52.0362162228021
52.2167943905084
51.7482722232675
49.5730533878867
47.3806522657488
47.6471581269165
50.4952362308084
53.5180941487431
54.8024009378699
55.1953488442856
56.9113820812957
60.4184344974328
63.7520889693224
65.1072653267465
65.1884974471499
66.1609850136475
68.6085020340558
70.5748800643072
70.0031620851671
67.3807180065962
65.1297084054405
64.581346877081
64.5216227169081
63.1447778845735
60.7013981358905
59.2373029667397
59.7443483856105
60.5369618100905
59.0779849127019
54.9235736606342
49.9871541690103
45.8707222998271
41.8517886291486
36.1623004971464
28.7580601796611
21.7818725102404
17.0209670871561
13.7063326634351
9.59260023326836
3.92348214550426
-1.60980625327519
-5.14741390312926
-7.12118632771034
-9.62542256977763
-13.5629160477962
-17.4093445059564
-19.2869153661178
-19.6090467412521
-20.7491544604192
-24.100674285072
-28.357082052084
-31.2536311142425
-32.4635822469925
-33.8465461887606
-36.7791259405739
-40.1713830244652
-41.8500272260406
-41.4949120928586
-41.2144908323806
-42.9372661122235
-45.9985838830326
-48.0563858294652
-48.100046863595
-47.5980696624187
-48.3405988957895
-49.9239673772642
-50.2739778730114
-48.5320909518704
-46.4523605499524
-46.398171855603
-48.5148292246823
-50.7412405141582
-51.5790619825512
-51.9309391627646
-53.6193825592112
-56.6486782922298
-58.9432024851819
-58.9694032553926
-57.7651269120394
-57.6440733948856
-59.2412560845725
-60.7716100706134
-60.445416271003
-58.8062736078698
-57.886031153803
-58.3378142862296
-58.428213177719
-56.3009843531836
-52.5352810992224
-49.5673115729736
-48.6726169229067
-48.4551241535731
-46.8235696447218
-43.8301079884997
-41.604578089363
-41.4760445334506
-42.1255613504005
-41.2653766486249
-38.6508091828714
-36.4205794417064
-36.2652251913455
-37.1294992869147
-36.4845084033201
-33.5150743560148
-30.0486265142048
-28.0437166808221
-27.0067437626709
-24.7858445569993
-20.6864534571765
-16.7350931689215
-15.3384265219228
-16.3564548336385
-17.4092739134096
-16.9893274578399
-16.2714022645572
-17.2745406838573
-19.8934370672202
-21.8190502097478
-21.5041700035743
-20.2342638108806
-20.5037884339171
-22.7908412646126
-24.9726536210438
-25.1467535420212
-24.1113112439829
-24.2127934458292
-26.1098051404374
-27.7983320000759
-27.2472015169293
-25.1583640864213
-24.1398989649723
-25.3164739175866
-26.8351260459343
-26.2595322543049
-23.7064792751033
-21.5830561452334
-21.2907014807652
-21.3085063629735
-19.2510443045869
-15.1875591490322
-11.768701617104
-10.9060957227712
-11.3534177396045
-10.4015164697718
-7.4679184446856
-4.82806241538731
-4.51305985099572
-5.51415794752793
-5.06814563581414
-2.37038764586484
0.233803764021733
0.247419311145954
-1.69709036780892
-2.6317384811263
-1.12269337972026
0.886305578469297
0.714359988162425
-1.42902326984865
-2.6822352929894
-1.3692343902552
0.671383041868243
0.448115943723082
-2.18000289069746
-4.17466296767096
-3.17417294493087
-0.46877955134584
0.864509254380387
0.203194799851982
0.303938578822393
3.58080683335766
8.65822970262222
11.8937208151417
12.0050377842403
11.7005613622372
14.0562810756804
18.3606204268716
20.9760253601082
20.1706527824513
18.5105957195832
19.5074976801267
22.85508456451
24.6302863369077
22.3718830360036
18.4034187241893
16.9162200261443
18.5440430241279
19.6035909287518
17.0974325082214
12.8699003070866
11.2790874609195
13.3422013865694
15.1766639900487
13.0081018850123
8.20175297866919
5.51959185594179
6.78423020325375
8.49905577216218
6.90866323903585
3.83113036640835
5.01152032498754
12.483661177642
20.9079498393981
23.3312647682841
19.4358014062207
15.35277629748
14.646461439203
12.0956891869254
-0.678962455224607
-23.6957743930364
-45.6982642004236
-54.6921066808413
-50.2180522961153
-43.0355469791566
-42.9879355193189
-49.7778460439025
-56.5359530088894
-58.9771167726029
-56.3084547970116
-42.9324493649816
-4.95948927816926
68.9496961788116
172.943406842315
285.050203258168
386.338179975425
476.346434144024
563.782431857237
640.885528735797
673.870885247623
628.032451317363
505.65377286077
354.326764659956
230.605802475884
152.382533178049
88.6507112420395
-2.27493581845011
-125.85304933788
-243.915984663004
-312.123243433778
-321.128161537104
-300.078736762728
-284.004138692997
-283.121459556941
-283.945439678747
-273.619806998892
-255.940150823734
-243.043266006583
-237.636775673937
-229.474447591648
-209.325537978683
-181.745650940161
-160.832999790648
-154.830301433668
-158.171779709005
-159.152074341029
-152.586244357234
-142.715794518229
-135.16778729137
-129.622709595761
-121.822452005952
-110.582884023091
-99.8245300960354
-93.3586472615033
-89.9061192173994
-84.9231159534555
-76.4241386251197
-66.9860105598682
-59.6600536912524
-53.6730211470691
-45.7468725730327
-35.115010785157
-25.3782891024169
-20.5915416721827
-20.5502820867985
-21.2145758264501
-19.544457604832
-16.5548345597977
-15.0266870986761
-15.2698961727188
-14.5385911070014
-10.6309141553275
-4.76849047074963
-0.0331007427222971
2.44824850449169
4.59420312625989
8.52289875668374
13.6766624448523
17.6341022758224
19.3451903355744
20.438416353471
22.9648050762964
26.6679269936256
29.3736745286648
29.8978769289886
29.6160964484955
30.7149715346081
33.5082220379175
36.2931880255164
37.7682098697997
38.7072844971171
40.7138773336153
43.8072696016377
46.0958796102859
45.9835183711518
44.0390046424017
42.1687322284802
41.273272586338
40.4419219285473
38.5865524224895
36.199984303267
34.871363036815
35.2443393332102
36.155364100637
36.0855916204989
35.0144030772752
34.2988959645878
34.8400097444578
35.9881130881875
36.5506844757463
36.4447641972125
36.748607054039
38.1171962099972
39.7256989056848
40.1826110978085
39.2273660701889
38.0021257781146
37.5834370508913
37.7229315761336
37.399485850308
36.351645421743
35.4938483371049
35.6643685921211
36.4069278477611
36.4523350074116
35.313554153109
33.934524533187
33.5694534467291
34.3584341785281
35.4005003188129
36.1161561618375
37.0224227907066
38.8921113245812
41.4611505912103
43.4655235321072
44.0361028198435
43.6889434746226
43.6689164261496
44.5227405142245
45.7099143805693
46.632248205403
47.6050208010887
49.4426711867657
52.2332776749875
54.9800827332262
56.6498329951372
57.3187583670973
57.9842818627197
59.3411274042184
61.1072289026677
62.6726869838166
64.0720192146657
65.9086497253067
68.3368042718774
70.5164393364244
71.3471728892695
70.5865133034072
68.9405126347889
67.0612987120573
64.7954219296651
61.6356655957213
57.6856844081203
53.7607547148765
50.4338084198415
47.2986359704429
43.4886449848473
38.8436525136934
34.2337825249079
30.6137457198377
28.0107381593437
25.7117594021885
23.336363622909
21.3379310505526
20.2652669938675
19.7859758745904
18.8186155945553
16.6830185184481
13.8391713302849
11.2922529279687
9.42745312555566
7.71503059615571
5.55053849777078
3.03908209802506
0.688461969967848
-1.51435511918173
-4.32867656173607
-8.40178553522079
-13.3907786274122
-18.1822168815618
-21.9304508052752
-24.6333668332268
-26.6441699629214
-27.9312835368902
-28.1606138525114
-27.4745649716894
-26.8264859407221
-27.2783476986015
-29.0537854029253
-31.5028102891327
-33.9805356944702
-36.4944932018643
-39.3461659924252
-42.3684537973347
-44.8928337509291
-46.556747709955
-47.8640789346326
-49.6694340843742
-52.1614939181408
-54.614426952223
-56.2181343294976
-56.9289906895293
-57.296644658636
-57.5909355548089
-57.4587659197045
-56.586418367645
-55.4428424966147
-55.0151873800697
-55.7619623110919
-57.069349654981
-57.8877335952921
-57.735872720778
-56.8443351198986
-55.3988937950136
-53.0402557590069
-49.3807138412391
-44.850589194105
-40.6523809084732
-37.7359751451704
-36.0227584269302
-34.8287066881302
-33.8960031394982
-33.6705817669659
-34.4981512790865
-35.8863032598861
-36.9115768091811
-37.2950609570906
-37.6998886705093
-38.7664315865541
-40.0795519110748
-40.4284985702254
-39.0899608736768
-36.5396514153534
-33.7323966619418
-30.9516187816884
-27.7726990764645
-24.1709139193291
-21.2173927305125
-20.2744994331013
-21.5677703515223
-23.9059528786168
-25.9244575976568
-27.3174227089771
-28.5858479444997
-29.7918545783061
-30.100097060416
-28.7989651365728
-26.4542331513767
-24.5720364022298
-24.0546247772588
-24.3422650342169
-24.3051283862338
-23.7198892530285
-23.4404636244713
-24.1107257323414
-25.1920948117829
-25.6475760820647
-25.3906616399556
-25.5290213204926
-26.9757694462996
-29.1684798152084
-30.5615241678288
-30.2941341299808
-28.9328266004768
-27.4211965781068
-25.7219817957152
-22.9981743345908
-19.0693296314219
-15.1081030409615
-12.5031343778092
-11.2717798581488
-10.08616656407
-7.91687552411932
-5.1894299403426
-3.00263279554208
-1.54186897005271
0.104390904887019
2.43001327173987
4.38161273433817
4.30723836883192
1.92810473948664
-1.20223547477024
-3.43361737336661
-4.78616423461004
-6.50973561036103
-9.07991445796679
-11.3520626732008
-12.0676528885572
-11.7208656314858
-12.1850654047015
-14.3887774496502
-16.9756110801006
-17.7313274146827
-16.0140398128547
-13.1174210013124
-10.2100327102166
-6.69259304663456
-1.2372369826554
5.88042498721276
12.41335574277
16.478276662497
18.6752288150675
21.1905929447256
24.9792314359132
28.6910765920012
30.7356389176217
31.6591569249269
33.493548839145
36.7876507906545
39.3344870875243
38.5931616993766
34.8972151787103
31.2451831239628
29.7623802238616
29.3343127517025
27.5155602748017
24.2076749464354
22.1256297503067
23.2198848711618
25.7146688622392
25.9008539048626
22.6655002470715
18.9555232182279
18.1727870182585
20.1260412296587
21.8277760207506
21.9886393894674
22.975407299837
27.2837237034735
33.1507634448878
35.545268069315
31.7426310450692
24.1801137696168
16.5010547778926
8.03847469698983
-5.16055701628756
-23.1933500009952
-38.7424354953453
-43.6531547696594
-39.0243529231768
-35.7763544750155
-43.0349354090435
-57.3631291562889
-66.527252153496
-64.1154555070378
-56.614945906733
-52.3414985495836
-44.541674038539
-10.8676840284034
66.3385031665942
180.382545214772
304.393920178561
415.459995992757
510.333203802644
593.605058654336
653.577337301696
659.147199759553
588.05780803448
457.252152616665
317.559493597026
211.753913490543
137.60232454604
56.0726216701403
-62.1608782128032
-200.405568831126
-307.971702939802
-347.352300924118
-327.412488424241
-290.836640746725
-273.130759944154
-276.685572909675
-281.513982280246
-273.436232564871
-256.824574663106
-242.873681860978
-233.264762398577
-219.89616544717
-198.023726421893
-174.02536347546
-158.294373478129
-153.601838210809
-153.783109994846
-152.905283896409
-151.748891677287
-153.400997549656
-155.144735589445
-148.842761158862
-130.414097133825
-106.438268346632
-88.8756322240491
-83.5064692144213
-85.3318466979307
-85.5243208274967
-80.871897059223
-74.8717569180752
-70.8856028578688
-67.1680629943616
-59.7971615667343
-48.6429742231049
-37.9769389361277
-31.058681073134
-26.1641483349902
-19.3496941833532
-10.1178007611176
-2.36876176844624
0.594745953423516
0.37530784509833
1.47132292061307
5.65761030011278
10.0691944614852
11.2958667668626
9.96765409324987
9.90014653102749
13.1502606968987
17.5861616272156
20.0412025832143
20.7009174643634
22.87436065218
28.5105844538802
35.4070143935084
39.7349956488035
40.5192498925641
40.2941006187422
41.3306162853466
42.6058760068204
41.4976675727598
37.7955069125383
34.5642228215219
34.6309467924865
37.2689358109885
39.3553532782729
39.3857871512828
39.0788281494661
40.6322009022348
43.4657707911239
44.8549646883785
43.5799133346994
41.675606995889
41.9023928531974
44.2362984514049
45.961611863418
45.1853466440423
43.1305405829218
42.2722337494045
42.9160191413224
42.825472737808
40.3768958074385
36.9917748842237
35.5450676921747
36.7859998442587
38.451144546237
38.2144162168594
36.5981055288549
36.0805384172725
37.682886084659
39.6063603804584
39.7075576431127
38.4751945648934
38.4967505921553
41.0509082130009
44.276012573085
45.3213934286418
43.7004379083266
41.5549456427309
40.6413366607366
40.1137224465284
38.0152208106364
34.4078449029496
31.884173410109
32.6702391553109
36.0344573717746
39.3242523424319
41.2226245561069
42.9997688214977
46.2830411198993
50.4742693653859
53.318348873578
53.851953361669
53.7611691142222
55.2857036970288
58.3881913777868
60.8750275374688
61.255777532735
60.5536444150151
60.743358560003
61.9989137466486
62.4781091255818
60.9311835875604
58.6097659907202
57.8551068841895
59.1600451769027
60.5537161836276
60.1166988582737
58.3262738319216
57.1934942417716
57.4203679639326
57.4090549494264
55.4524596945213
52.1667569811908
49.8699484555698
49.6480372277842
49.9320302508816
48.4486990670534
44.9942636238096
41.439837874525
39.0621358133284
36.807970483934
32.8042679868614
27.0675869686068
21.7475608750467
18.5058864546466
16.4457413097189
13.304823133701
8.33834450907439
3.12349346600774
-0.694345884201978
-3.63948158835697
-7.61603842557628
-13.1572215742585
-18.4362029778704
-21.4453401371881
-22.5269493713059
-23.9231360548611
-26.9143463320051
-30.2830454850106
-32.0766735273097
-32.2825520779131
-32.8419687150958
-34.9910094590734
-37.4991574492747
-38.2194796952116
-36.9781378756069
-36.0155886187784
-37.3642931496008
-40.5383419686532
-43.4675920533411
-45.3338107208773
-47.5079941434933
-51.3725391933578
-55.9907596819611
-58.8166620851714
-58.6187804271539
-56.8476192992164
-55.6996941709166
-55.4401546669398
-54.4518882274613
-51.8184192307756
-48.8979217248955
-47.7382813819642
-48.4365285970746
-48.9871102846985
-47.8723270745873
-46.0016951727109
-45.4553982222329
-46.7081786478045
-48.0024739872326
-47.6659310091201
-46.25683742793
-45.6731961895561
-46.4351866634313
-46.8148624748307
-45.0455171657074
-41.7298125572732
-39.2546257354848
-38.9461264681758
-39.6637452415498
-39.6051762474139
-38.838290054731
-39.1459160011468
-41.3965466489562
-44.0006250093234
-44.6053706600952
-42.8751991530197
-40.7300774203885
-39.7525110707234
-39.2021221560787
-37.2373006261222
-33.6499768801542
-30.3943214628865
-29.1467508131313
-29.1394411554557
-28.1997893375791
-25.673393168661
-23.3634944402291
-23.2116157060552
-24.7675728657071
-25.7991554084503
-25.2320147720082
-24.4997052224816
-25.4848685185809
-27.7893756270693
-29.0190694968248
-27.7948493671094
-25.5483626344874
-24.7041354489737
-25.5986061874732
-26.1634685396507
-24.7572204131754
-22.3680864189134
-21.2544837121538
-21.8377930616936
-22.0163106145822
-19.8764350268247
-16.2504179659192
-13.7291059576731
-13.4062903897151
-13.6290682721498
-12.3640089134794
-9.98755115545922
-8.75972682038051
-9.69112629310317
-11.0356398545887
-10.505221770391
-8.31475217211994
-6.98607506185616
-8.10495854045752
-10.2911196299245
-11.0603372241758
-10.0777509543189
-9.42381446813187
-10.4857129361401
-11.6698227262973
-10.1407337173762
-5.44143013550016
-0.237003471095733
2.87569774970179
4.35369969847483
6.5766348783373
10.1351859960354
12.556878409801
11.3051556434311
7.16988734918839
3.51425996349587
2.2384646117528
1.69095628146327
-0.739124434828412
-4.77727805414272
-7.28786495594779
-6.1970549387634
-3.14964416269468
-1.34881896656439
-1.39152864271641
-0.610647986260213
3.17651171062504
8.48335874563962
11.8164968538777
12.0541937660225
11.7548165835354
13.6364549920141
16.8989172144618
18.3171519940896
16.6807109540745
14.6108542917545
15.2012423592778
17.8691834515286
18.9996700415325
16.6622479691287
13.1813263206866
12.0706108826957
13.3390564164221
13.4678636787727
10.2174555691882
5.89376558718942
4.57967493055646
6.83998613202496
8.93089193417827
7.70080780199863
4.7516273593199
4.25632860643735
7.2404014438437
9.99810772553254
8.93303135208981
5.44271906721579
4.18442572267242
6.87804996875546
10.045008209954
10.0437493349847
8.76135982193153
11.8661359464162
21.2312624006971
31.4399522067169
35.6128112286364
33.4906423914268
30.9767647309674
31.0524603979596
27.8584399753021
12.7878566300537
-13.7752324083273
-39.7792660321188
-52.5221301395091
-51.2403551510931
-46.7601140315402
-49.1461572639961
-58.326012147082
-67.6139232499868
-72.8016030646722
-72.9371485017087
-61.9524458940073
-25.2425692192576
49.3479041864295
156.724101304757
275.320005873136
385.742102584126
485.780422496478
581.421488141497
662.478595850047
694.460147515159
643.99085082049
515.55672096207
358.304659074974
229.352756425806
147.140528876809
81.9564077313011
-6.67607124683986
-124.842221231119
-237.256610233322
-302.668866916512
-312.256647783366
-292.68075145045
-276.229969498979
-273.391021415114
-274.115012234822
-268.692821963911
-260.12718076972
-255.802612928841
-253.493561809173
-241.783151592576
-214.568992095335
-180.970246043988
-157.880465097826
-153.616237509458
-161.051111318849
-166.53454518366
-163.004542731969
-153.201832275719
-142.426325931329
-131.779539185722
-119.399610252302
-105.665484209735
-94.1730476024261
-87.3948095806075
-83.4843358908999
-78.7020317089908
-72.012240473846
-65.6341353132456
-61.1101063999613
-56.5627863101021
-49.0246232111659
-38.714198401212
-29.4246282233595
-24.2973518700524
-22.2870975968573
-19.6863112292484
-14.592746060378
-8.68974763771288
-4.47638836631553
-1.91167797553173
1.21160745876497
6.02210542875411
10.9727617113583
13.9354454355596
15.0406079532126
16.4764301941117
19.6400358227045
23.4853928055917
26.1465200175695
27.5079957332613
29.2671263643156
32.5145354066691
36.1550220845647
38.2559911454195
38.4601291197628
38.2587399772449
38.8651388011985
39.6042324628116
38.9345679667023
36.6427910606085
34.2330225604433
33.0239241608505
32.5372531027128
31.3160192510493
29.030770609107
27.0435157091201
26.7022917260757
27.6573404652826
28.4072737134849
28.2895689732897
28.2554946179626
29.4576637208811
31.5990948016061
33.2532375627433
33.6952257629704
33.7941727273002
34.8149764165933
36.7575155748526
38.410614795188
38.9641641124257
38.9821878989302
39.4811164197951
40.4335053482665
40.7497941076273
39.7534069863852
38.1493745821355
37.1895364940847
37.1627552056308
37.2093965878541
36.6433258270345
35.9463487962144
36.0889279433899
37.1280553243224
38.0201227136092
37.9430037995512
37.3772536301991
37.5041818196548
38.7171512055868
40.2064872089469
41.1225994788472
41.7150750410213
42.9075744405253
44.8948517016418
46.675927112649
47.1927944135003
46.6021170003753
46.0283756349647
46.1539136894594
46.5094708241159
46.3491161721447
45.8681767700487
46.0948713565011
47.5961797332764
49.7371087946547
51.4870671340572
52.7007238792145
54.186465719281
56.5129128773457
59.1772332637481
61.2358107169315
62.5132159892987
63.7411686572561
65.4474675693937
67.1166953408397
67.781086745745
67.2669152808156
66.4285919981436
66.0529276808658
65.8916019659125
65.0941633906535
63.4231497460028
61.5865569209025
60.2291867404434
58.9548044859649
56.7324460043147
53.1865232608601
49.0708966164247
45.3018172133501
41.8398116159889
37.8969085581694
33.1513838081757
28.2907237677526
24.1147378077819
20.3981587857709
16.081042531222
10.6009092232325
4.63744879761657
-0.709868315162779
-5.22316028616755
-9.62691130318684
-14.3510563780973
-18.6887870967933
-21.5341566163706
-22.7750106154593
-23.5088910629844
-24.7696233621948
-26.4023731011961
-27.5239564819658
-27.9168099429911
-28.4918093404907
-30.212952622981
-32.9226004398849
-35.6238715012384
-37.8281842636845
-40.1673852960057
-43.4695717705813
-47.5532336300804
-51.3561030674778
-54.2147991860971
-56.5752488306495
-59.2000067169433
-61.9766680666507
-63.9671963101845
-64.6434339817473
-64.6182239927149
-64.8338422956486
-65.2595503371663
-64.8603699013062
-62.93176342196
-60.0539100737527
-57.3895949304405
-55.2475383616079
-52.8342747249767
-49.5498411702691
-46.098943249183
-43.8776557012475
-43.356544060787
-43.5417999399019
-43.2310651114487
-42.4561114695396
-42.2743657365522
-43.2429630109787
-44.6231682041878
-45.3651146031568
-45.5433396846382
-46.3050225183211
-48.3558759778883
-50.9399086089387
-52.6201850500094
-52.8168231611962
-52.1236017473626
-51.1120061191677
-49.3536123030341
-46.0453681387348
-41.4012328267273
-36.8862716856935
-33.8889640613304
-32.5110084373487
-31.9916749660133
-32.0892803860071
-33.4774422449713
-36.5968784521016
-40.568383623046
-43.7627060416334
-45.4005940067834
-46.1093208370881
-46.6973255440328
-46.7923768501805
-45.2081720423074
-41.5959367536133
-37.1604173024575
-33.4029301320234
-30.4875215061644
-27.3895508577252
-23.6494940965998
-20.3791969370925
-19.0918183017531
-19.8072661889141
-20.9177583284169
-21.0480867523738
-20.5285486552249
-20.5889348362079
-21.3850706971756
-21.5317168524097
-19.831230216441
-16.940551355351
-14.7248988345292
-14.0564396035917
-13.8819177423519
-12.7469622518402
-10.7473085807657
-9.32698709299695
-9.21377835510744
-9.28355830241338
-7.93546909245386
-5.20623781281535
-2.80805730197469
-1.97734497701708
-1.92728794087424
-0.934232288292037
1.38023436320606
3.59886464041642
4.48678091752311
4.74079898678323
6.11846849162237
9.04179534154488
11.8616510810776
12.8327933260344
12.2599123729144
12.0019478348173
12.9883836629593
14.0412196072476
13.5721891282863
11.8770502675046
10.9004109474214
11.6928202430112
12.9165451796973
12.4574524175727
10.1013855451166
7.76208939231168
6.93671954982477
6.751289438133
5.21945238606278
2.0681270876121
-0.670690302155805
-1.19727638837975
-0.310873389212432
-0.417614113449304
-2.38113203991165
-4.32629460204308
-4.00974593476882
-1.67172847663194
0.397641710443168
1.01494941981667
1.76313228780327
4.86106539419352
10.0068199403499
14.4356883895435
16.2526824802246
16.7167632024606
18.4424628240155
21.8640421851163
24.6665655713666
24.9822499083314
24.0701157173582
24.7640535158997
27.6069085784192
29.8426978272807
28.8142747235749
25.4307096672621
23.0802065715506
23.2900695300732
23.8424644330647
21.945942615983
18.3240197052944
16.6520370540745
18.8147409784149
22.1581681854223
22.5706874049061
19.6214422396602
17.0786994539574
18.0120453411507
20.8282527114245
21.4907793373391
19.0149084289242
16.8303872261577
17.9674352178169
20.3873615580707
18.9185728363169
11.5914332918771
2.06596347263665
-5.22067128950832
-10.7562670455031
-18.6180057404173
-29.6642054854462
-38.7971909153101
-40.999477881419
-38.7271695728853
-40.1700418586444
-49.3124907090185
-60.4175791814768
-65.0724524002203
-63.2479103072948
-62.5459247843595
-63.7605521911496
-50.3650969297531
1.36821079959584
98.8033325370402
222.209099976476
341.555866768752
443.485440293384
536.599366151037
626.960618237178
692.675186611648
691.982539200442
602.63276628468
451.325365590327
297.436114149914
183.152323473787
100.349762024225
8.8617689860093
-113.491952418954
-242.36541664961
-329.14546701447
-348.741060072002
-322.290730516985
-293.749057584086
-288.55164778904
-297.473653299943
-297.035957926353
-278.57978359861
-254.251553558364
-238.696932460241
-231.815984712535
-221.930878585551
-202.104970523477
-178.502106344355
-162.358849672526
-157.474397486827
-158.185310785047
-157.775517419547
-155.029811878447
-151.580194946746
-146.036269409453
-134.432308957125
-116.650227380339
-99.4194692795478
-90.5520831834296
-90.6911627245677
-92.6185498672672
-89.124615596368
-80.1529474950369
-71.242228849773
-66.0940367461707
-62.6658309910603
-56.8634709950356
-48.2094122529589
-40.1093897688708
-34.9703634902741
-31.0163741416221
-24.9165395894397
-16.4610627511504
-8.98980312380248
-5.08315014509763
-3.23963117055724
0.183199360386357
6.41033937785058
12.9617189529055
17.0701605523471
19.1567300719889
21.9005116449957
26.3696817536414
30.4444821174104
31.5773917846123
30.1979657326409
29.3143756104556
30.8998299224898
33.7626577628851
35.5027071492728
35.7916333901049
36.6438315317745
39.462766359145
42.8993120709087
44.3963848669576
43.3875724479432
41.9694386445999
42.2159149802059
43.6600111930306
44.1457964331346
42.7936695469253
41.1300749810813
40.961556870292
41.8908922667122
41.798388575447
39.6657787785786
37.0388663527403
36.2183729019371
37.5237889505822
39.1229492866447
39.5359597687501
39.4886825193191
40.7519472694941
43.5987352695103
46.2785600705657
47.2008792091791
46.9577901505175
47.551340202886
49.840878457906
52.4873590468291
53.6559581545779
53.1715457774044
52.361378901551
51.9565170572197
50.9564644598642
47.9957341204809
43.3781230531531
39.0468526596226
36.4798294544476
35.2075769859075
33.7926853078964
31.8729454582159
30.5478166561705
30.6811083149087
31.5081227533375
31.5244984048805
30.5550096993283
30.2548378798762
32.2878236296797
36.4492139241779
41.0781208283202
45.1323588242082
49.1769215088003
54.0403119625218
59.0243171758989
62.1793767190827
62.4428683006468
60.9405543491726
59.7586391638125
59.7124477169169
59.8866925007087
59.393502534701
58.9364951510916
60.0915755377451
63.257178873744
66.9928576283677
69.658224839037
71.2630372318303
73.1618929817836
76.0186455339798
78.6821583076844
79.3982165024227
77.7590003445129
74.8999912040887
71.799589879016
68.0038038252971
62.4730834074387
55.4032748958023
48.5641757786282
43.6238637393634
40.5376809153577
37.9716822751411
35.0915120135941
32.3571925604833
30.3922896933917
28.5932855493352
25.4690728722565
20.3579317522617
14.2905852386039
8.8422410520336
4.41782194569594
0.115805645793314
-4.77989082399228
-9.73510828456904
-13.7328347845137
-16.7787779215466
-20.0454391401301
-24.3780011029346
-29.1035945493673
-32.7374331414692
-34.708970053085
-35.9017734978963
-37.3696068141285
-38.9800032140058
-39.7850650181021
-39.5747182968488
-39.45763524456
-40.5973635176064
-42.7178722066285
-44.3710211377474
-44.6865311879977
-44.3791180168786
-44.7445271626326
-45.995102672704
-47.121618070847
-47.4169102649254
-47.5692714746832
-48.7894787517813
-51.0631751404727
-52.8491956433552
-52.7168040817377
-50.8977906994799
-48.8245512304158
-47.3224466606833
-45.8283877374962
-43.5928287792405
-41.1649525827431
-40.072819183731
-41.0122012749507
-42.8832139733248
-43.9752297194136
-43.8376679669351
-43.5029839611982
-43.8858312597559
-44.5307644599032
-44.3447570000245
-43.2666234496282
-42.5599408364236
-43.2491579290313
-44.7200367168879
-45.3484458612332
-44.3899197391175
-42.7208448284272
-41.5385698381625
-40.7993146865117
-39.4687410080685
-37.1980757102539
-35.1000845996611
-34.480845422456
-35.1355557213123
-35.474405610662
-34.3906507903009
-32.4996548702876
-31.1906133914034
-30.791611787949
-30.2850848227725
-28.916875993174
-27.4891884079031
-27.5172582182715
-29.2754199922602
-31.2949330791571
-32.0326737916644
-31.6021465629158
-31.374381191347
-32.0441165162417
-32.7458340235678
-32.3663757285424
-31.243061413415
-30.895503313914
-32.0591666762092
-33.6005565382457
-33.7983329344812
-32.3785231782631
-30.6868768037932
-29.8245503619655
-29.2495429385335
-27.700555925055
-25.1709658892783
-23.2118512485015
-23.0441899564527
-23.9231403378981
-23.9604045790072
-22.4164489180326
-20.5187116010746
-19.7659012388921
-19.9715467840038
-19.6318863236849
-18.1053799588106
-16.6516008997634
-16.8588187090311
-18.4732792129308
-19.5120364763221
-18.5907753394803
-16.4872156701128
-14.9459444952855
-14.3408310754375
-13.2838579853883
-10.6484456514013
-7.23786445382187
-4.79697102876025
-3.64260384261041
-2.10475423052867
1.3794030020635
6.21072992085993
10.300432008308
12.5648225207855
13.9245440791566
15.5147630641069
16.611405278047
15.2367507251461
10.8123094355498
5.34273127844931
1.39394947820543
-0.657338752504188
-2.57222612646373
-5.49489189353457
-8.17864449854869
-8.60865673741026
-6.88562293902933
-5.42843597633737
-6.01604246766183
-7.44101616688718
-6.90777402759608
-3.4702060099774
0.907480647192642
4.01069647756887
6.20891375741141
9.68381547488215
15.0824100230622
20.1344174244761
22.2377199877575
21.7025285743169
21.3362433036745
22.8227978887462
24.6379727125192
24.2633789282424
21.7220042404207
19.6113937430757
19.4748086071312
19.4010169806122
16.306988242084
10.1117397849259
4.24748636767855
1.60594674473471
1.12580535309875
-0.416246208184873
-3.68420811924646
-5.4661797439135
-2.7615343650026
2.98621142676517
7.26679544309626
7.98869065915934
7.98569299269641
11.1443903013588
17.1415011034843
21.768025659382
22.4802017787248
21.7236740791147
23.3710043102617
26.9064841053461
27.3505014185576
21.3999215324926
11.6415379167512
2.89317083226399
-4.54897847936707
-15.129473524201
-30.5630271573773
-44.7216276871582
-49.2116936665462
-43.9809443368634
-39.0197881687161
-43.1362744101304
-52.8411232086925
-56.1368950187276
-47.8326922887467
-36.7444384268672
-33.0908890145533
-29.4513092547122
0.0471365043653122
76.9590510853278
195.826736506364
327.974313087361
448.31881915841
553.621481314403
649.764003718788
723.884815445026
739.035131181364
665.213097073016
516.034657242025
347.683752958306
214.741761635972
125.643859792172
43.8807392085006
-66.3227510560132
-197.889916817175
-305.420214081078
-349.281991528894
-332.327544092963
-294.07875976313
-273.580058854182
-280.809434593698
-300.353721821474
-314.313863089392
-316.501780543689
-308.088618612144
-288.531380727571
-256.490136360183
-217.452110338017
-184.250230005065
-166.759947403047
-162.682987667017
-161.084043881804
-154.645730624447
-145.998661910708
-141.370979188257
-140.6552955995
-136.709005159765
-124.324482292503
-107.12202268262
-93.7321743627407
-88.2468837646769
-86.5555093414858
-82.2047007492457
-73.7723006897911
-64.9750758273797
-58.683783149404
-53.2959630338155
-45.7588051735719
-36.4013722293209
-28.7981078095202
-25.0280224686122
-22.8952638570735
-18.8252339817445
-12.4762654992968
-6.95553027313229
-4.51085404242966
-3.50946688057576
-0.622374029086732
4.81683205242505
10.0385418086447
12.5164294766152
13.1380594359302
14.7831639261408
18.394464432344
21.8135425265705
22.8078235319773
22.1408464333443
22.6121332094826
25.424337264746
28.7142442148047
30.1039388734912
29.8045873875659
30.1984770703712
32.5827537918038
35.4653400177754
36.6212152622692
36.0911466665045
36.1304187317743
38.2321907014117
41.1991499378927
42.7623696221935
42.5283102945419
42.36044512815
43.7854776863527
45.933056207122
46.7094140208716
45.567489957025
44.1771131433573
44.1675083472403
44.9975098870439
44.7612640445961
42.7945921896906
40.6054004905457
39.9551977265549
40.7023547570539
41.2451957293383
40.870311470881
40.7963204438241
42.5188837069409
45.6997674002077
48.426302702574
49.4795649540709
49.6000751980681
50.1418869514149
51.0174348188609
50.7390247412951
48.4946911021127
45.4437761982293
43.4638799588905
42.991350252636
42.7930557595077
41.9091739731444
41.1153873982067
41.9302524773742
44.5067272183106
47.2510157512224
48.706498561288
49.2213920328709
50.2167662969824
52.0733623265964
53.4815196451259
53.125876884346
51.453811536639
50.1667196835871
50.1051274370261
50.3220286555605
49.5381239208376
48.0015149057622
47.2578208274432
48.1400956911574
49.6591040294594
50.2640774405044
49.7879535614354
49.5004257386735
50.2346077083923
51.1210838965253
50.6377996591703
48.584965082966
46.3610155863542
45.1817248205284
44.615698755618
43.3672597959764
41.2256339396113
39.5403675319095
39.5506434870628
40.7630224520755
41.5218312009101
41.0217329620891
40.1218734383886
39.9333571737579
40.1075720061784
39.1280891902098
36.2278541572503
32.392205035535
29.1236258095864
26.5973120006865
23.6083136780644
19.3136644009595
14.4207543986982
10.2705047142204
7.09491489610038
3.80066627968361
-0.449556106778367
-4.99520116219748
-8.43091119229541
-10.3226998861181
-11.5886741121222
-13.0801476301328
-14.3348491910942
-14.2220359020537
-12.6127104889522
-10.794082643467
-10.0292253778604
-10.1766432118488
-10.2233403099683
-10.0026594316349
-10.7370213767868
-13.594641015221
-18.1345923401338
-22.7245065012469
-26.4215403800629
-29.8532910566903
-33.9548669549079
-38.2862126992667
-41.2448049636159
-41.9785524757775
-41.5076169185574
-41.5513944830743
-42.5524442720751
-43.4348214111438
-43.3382373648129
-42.9683655516327
-43.7428290088114
-45.870876001416
-47.9483857880213
-48.6565733426897
-48.3668834935571
-48.5727739639424
-49.9299442143586
-51.4924344079763
-52.1018185051653
-52.0120939992646
-52.544394120027
-54.2292187773825
-55.9384315611405
-56.202146230947
-54.9960879724406
-53.6586977167847
-53.084435140731
-52.6143026619
-51.0766675050011
-48.5341731456703
-46.3533248025072
-45.4837754880602
-45.2575956732158
-44.3340280017459
-42.536279473863
-41.120050928484
-41.1066331234708
-41.9019801226077
-42.0305597045875
-40.9668699082901
-39.58259915285
-38.6261485055367
-37.3556941414541
-34.2847788420971
-29.1477708217848
-23.4847726652286
-19.024559763084
-15.9639927001839
-13.3731473942838
-11.0812021115116
-10.371964625498
-12.4117209102569
-16.45600035001
-20.3155682149279
-22.6288874993647
-24.0577944941148
-25.8883819184596
-27.9378616094799
-28.5962386869355
-26.9782330603018
-24.2912867658637
-22.5007830232728
-21.9643618108528
-21.1443991765497
-18.8141623756639
-15.8676837643606
-14.3280435082696
-14.8354529102575
-15.9167111327649
-15.9852598313043
-15.3931712535507
-15.7841330966575
-17.6085835543723
-19.1599856090504
-18.5125840064966
-15.8767600721945
-13.2846305722576
-12.0197747387071
-11.1758643830193
-9.20167685837727
-6.28301305193071
-4.28360576869033
-4.25930180360546
-4.8833305948665
-3.98439219369905
-1.25655788276574
1.41844757047196
2.46561877555143
2.60961408436967
3.71293322991619
6.04880077562095
7.74716471186186
7.26201489257617
5.58876884827326
5.16938133860017
6.79545456286201
8.56048741514135
8.28477364116242
6.24668576611964
4.62259396017944
4.41867063209398
4.0652432795643
1.65561248348365
-2.11472324785177
-4.32262468509822
-3.19129547799105
-0.121038499379722
2.27078043538006
3.49128361238796
5.46061780260654
9.42186911176191
13.7380978478175
15.7082698596272
15.0905271289546
14.5687329019529
16.367672959338
19.4118549108651
20.8156905530434
19.7373599745669
18.3930743450918
18.7944061809105
19.6272804267558
17.6968408200133
12.2661255492406
6.50153346409439
3.83718376432296
3.84652666509925
3.08848669218749
-0.0860583118974887
-3.15438765027027
-2.78957882205489
0.402405664350937
2.23377603951916
0.224588216072817
-3.02969377517869
-3.00140472099537
1.07598445986503
5.43522098657736
6.94005107231681
7.19949028262019
9.9337664568411
15.0556800796991
17.6743783947884
13.7747615790232
5.06218563980372
-3.80383443932876
-11.9675506316158
-23.4338723633669
-40.0890343238552
-56.0635029844026
-62.5530993886066
-58.6261895114231
-53.9914095792148
-58.296614741151
-69.0540283747534
-73.8765056164747
-65.4928104614848
-50.5485718287914
-39.1037097118665
-26.2186170793671
10.2189107108433
88.8212030649686
203.315710824502
326.410586570294
435.906701685845
531.915034593029
622.913045602621
696.867931167735
715.817413071238
647.976285588057
505.677357029218
344.502430944512
218.160931979562
133.336977747113
51.8711170339658
-61.7618159332475
-197.929217658181
-308.377177249162
-352.950406873958
-336.587573485182
-300.700764654881
-282.895524702208
-288.549902170947
-298.51276034178
-296.393027564659
-283.191789031556
-268.534246694487
-255.7939409174
-240.484436224333
-220.391373112085
-201.260763094362
-190.244824769427
-186.701477769675
-182.941898698412
-173.690527556197
-161.71520031398
-152.767426392498
-147.165764110202
-139.232361016721
-125.000255467628
-107.864905843
-94.9129247402494
-88.826982297898
-85.5376669629405
-79.9442731411683
-71.8753983584245
-64.9759605783756
-60.876283968386
-56.7811853700201
-49.4251766222977
-39.7107542229411
-31.7386899767802
-27.6531734560308
-25.1888691182126
-20.9652995899135
-14.9135856918982
-9.9719224273287
-7.70429101280671
-5.88138971020549
-1.26694129128699
6.14400506414385
13.0304352598537
16.8274310924515
18.5968059329317
21.1086598726935
24.9521612430951
27.9174761373389
28.3163746397107
27.6215211335321
28.8144856934765
32.6220055794528
36.60632061213
38.2529630361607
37.9695693647061
38.1795432567047
39.938085396161
41.6658031138973
41.5884385348788
40.4576886845282
40.8087404937742
43.6993616065544
47.2454636552837
48.8747453485937
48.3349306695962
47.6061043375218
48.0426082451253
48.6716767124613
47.869023981261
46.0202274243592
45.4594013044845
47.6530791574056
51.3028051323055
53.8483457672897
54.4025192290367
54.3576574147793
55.0701768295547
55.8659578251632
55.0417898922741
52.4302229144519
49.9820868754537
49.4857866058263
50.3759737519094
50.4791490271992
48.6881870710063
46.09653874529
44.2627192329577
43.0820092405106
41.1453461360533
38.0188969521871
35.2603203598515
34.6911952272321
36.1454104968642
37.6473744225796
37.7829241460616
37.1820873225543
37.2929702408791
38.2460995768723
38.7401252963384
38.063635758219
37.4321909641599
38.7113152467361
42.1085751907495
45.8421501126057
48.2261027321994
49.4748325364234
50.9746402389669
53.158151629661
54.9128942203674
55.3004939575681
55.190502111731
56.4869340920221
59.8429655372326
63.8147036373474
66.5545967951182
67.8511571746794
68.9445208572575
70.5399570478108
71.7885666598918
71.6053544751345
70.475894441952
70.1990338663222
71.7647783953283
74.0870352839979
75.2323218305289
74.5463728871251
72.979924031427
71.3726326280758
69.1511177222692
65.2427422214693
59.9280119285356
55.0173022608456
51.9497560674168
50.2107629866122
48.0963675682065
44.7992627245372
41.114713269685
37.9743654678927
34.9269929529944
30.6981681149144
25.0834208805988
19.5530421822104
15.619115535361
13.0165297959229
10.0570926526537
5.69191221031919
0.607808678993543
-3.98024868486959
-8.09588985098099
-12.8776063309371
-18.7222545090903
-24.2642033473593
-27.7124819433574
-28.9276544776384
-29.5717265382031
-31.1350956508969
-33.3806124249949
-35.1306527954361
-36.1926363463641
-37.7438328899322
-40.629493449599
-43.901877776212
-45.6814847530586
-45.3564926084766
-44.3233445181258
-44.333729809513
-45.5968666935122
-47.0216994323973
-48.093972222591
-49.7351727226857
-52.9335662152865
-57.0132658342572
-59.977078650653
-60.6367380072242
-59.8496589087933
-59.3119670773897
-59.5232385555045
-59.5472701568387
-58.734967107199
-57.9540233907309
-58.5823078370244
-60.5915599167065
-62.3429752691461
-62.4806328206742
-61.5147260987454
-61.0646893259005
-61.7873482588712
-62.6890478954057
-62.612111744433
-61.7791398306136
-61.2683863638366
-61.1659820299871
-60.0028993062398
-56.4014307374321
-50.8695849662651
-45.4117987342614
-41.4623498376754
-38.8087729711618
-36.7669589007913
-35.7993797810308
-37.1875962410933
-41.0870394785601
-45.6359018565644
-48.5301459594907
-49.2172234468201
-48.9642845552017
-48.7962167638368
-48.0753145845442
-45.5913319130223
-41.6158038301313
-38.0144481847682
-36.0857403164703
-34.9132762532282
-32.4810467374206
-28.2196170218379
-23.7358277317901
-20.8099516920796
-19.2952971693777
-17.6429907328849
-15.2704559776824
-13.5357139708215
-13.9457102283489
-15.9542423785554
-17.3296353920497
-16.7218832778461
-15.149397528337
-14.521691753508
-15.1846146781251
-15.699154588
-15.0340179926707
-14.1182532876746
-14.5862708018976
-16.3719970843029
-17.4398837639275
-16.1496158608162
-13.2293249313178
-10.7955193851924
-9.73350289105409
-8.89101913570806
-7.07326287523508
-5.04122732162649
-4.69478392967803
-6.44092912433718
-8.30072992299941
-8.10745633945177
-6.04736682567229
-4.26326967971175
-4.06180509127028
-4.40460532310882
-3.62673219253712
-1.98973747589779
-1.5287787049224
-3.28043533389106
-5.57401391035935
-5.78500759194893
-3.40139089069522
-0.465682013154641
1.13887068538142
1.96054214888813
3.84875255689639
7.04058416543713
9.5002978032695
9.52832492522636
8.19527696591452
8.25458209326939
10.8116727010058
14.0513705470141
15.6587402398438
15.6941758236619
16.1047217265272
17.6008356456546
18.2396636950742
15.8218130177142
11.0222256451795
7.00220198059323
5.80988202845603
6.18455994071199
5.6206219284003
3.92550158011042
3.48775079359174
5.85593487864992
9.2551039052816
10.5538870882138
9.26233116375494
8.26169698587552
10.139768932922
13.84254387337
16.0592754913791
15.5498458637317
14.6722300326302
16.0343708545141
18.7394619693228
19.3710684650609
16.5887544943992
13.241015086995
13.0056921956392
15.8216039163161
18.130247193615
17.6579943277063
16.3683085368221
17.5514164088661
20.9071369632769
22.3915961175656
19.3601697534495
14.252556511184
11.648462742595
12.2957340501461
12.1006794471632
7.81453530452757
2.10098190833891
0.93754893840547
6.12468290917627
12.4300375313375
13.3681108004105
8.52021739658345
3.0861931730994
0.299537307618962
-3.30062479957833
-13.3775407411336
-29.8844609869026
-46.2462473466735
-56.9019688969753
-63.3158339864499
-70.5362172645989
-79.2001571330179
-84.2216027566268
-81.9944294896406
-75.0970447760241
-65.6601462463659
-44.8064168880768
5.61856486356318
95.9444287611978
214.147921920132
333.005221379491
433.770456135174
519.292307784511
599.115243928185
662.816592561099
675.921919954332
609.900336721741
476.80175316267
328.112451200974
213.227586361776
137.982476255916
66.5495040281769
-34.9879404945627
-159.309361289392
-263.435270160541
-311.338118763608
-307.658339284072
-289.271216164739
-287.792709426832
-303.944933215623
-316.565218332876
-309.982936307998
-288.053050991841
-264.065848894852
-244.030778960312
-223.904389832869
-200.396464813927
-178.611474406901
-166.625058562606
-165.270190521633
-166.896950210776
-164.284242987701
-157.926455692437
-152.96469480501
-150.821946973032
-146.816124060055
-136.428869388631
-121.550530462806
-108.529796990836
-100.766119908764
-95.3536326992627
-87.6084422943426
-77.1884994644554
-68.0259050333359
-62.7089840323711
-58.939928869434
-52.5128096999295
-42.6497615212255
-32.7950307777857
-26.170119393757
-22.0468741162179
-17.320389160193
-10.8811352821696
-4.92753011276834
-1.75202714912531
-0.507188604295017
1.77885022201237
6.42215974419524
11.533780169401
14.5616521291903
15.4326278646598
16.2687810547248
18.3363488384327
20.4197992539746
20.6827991921631
19.3716286381133
18.7095536744662
20.1596021482016
22.6748584747022
24.1373402757917
23.9759182787897
23.5569132238817
24.0352818680536
24.6860699873111
23.941766190588
21.6696717625377
19.6037342710344
19.3494778176312
20.5768731822729
21.695308888648
22.0141581244187
22.5333554300954
24.4387023411636
27.4172521971214
30.0449034016353
31.6753046966763
33.289653558129
36.1971597340221
40.3112941862453
44.2182452491669
46.8584244414199
