Value(bpm)
93.0909090909091
93.0385703073366
92.9870179716839
92.9369764126777
92.8891669427353
92.8443081530644
92.8031163193444
92.7663059171506
92.7345902465784
92.708682165899
92.6892949345155
92.6771431660002
92.6729438925756
92.6774177430607
92.6912902370355
92.7152931988
92.7501662956049
92.7966587056376
92.8555309223565
92.9275567029885
93.0135251703665
93.1142345995938
93.2290672087134
93.3543628980444
93.4860410722917
93.6199785295616
93.7520054864105
93.8779052652052
93.9934177516406
94.0942467248533
94.1760711425308
94.2345604690252
94.2668647320837
94.2755251364143
94.2643424342893
94.2371423300003
94.1977609474819
94.1500333806513
94.0977853645788
94.0448280718759
93.9949560156159
93.9519480277046
93.9191223275752
93.8966066316109
93.8831565981104
93.8775295468202
93.8784877468863
93.8847965176649
93.8952226585122
93.9085332043753
93.923494505565
93.9388716312854
93.9535120505533
93.967550007533
93.982128332167
93.9984182101141
94.0175925814185
94.0408267146592
94.0692990755529
94.104192492363
94.1466956215385
94.1980047184034
94.2592554031015
94.3289557297846
94.402232085923
94.4739619456859
94.5389919587546
94.5921423970853
94.6282172772014
94.6420202006021
94.6283758951642
94.5821573544922
94.4983481463522
94.3756444020203
94.2198087202677
94.0374050274368
93.8349522097625
93.6188926137511
93.395569701867
93.1712146208935
92.9519413403445
92.7437499696735
92.552537862012
92.383154476455
92.2347927837633
92.1046584102641
91.9900079087542
91.8881415597862
91.7963950725369
91.7121329244703
91.6327432779514
91.5556344264815
91.4782327337941
91.3980176138347
91.314095088645
91.2278063706516
91.1406469758178
91.054101217686
90.9696421914408
90.8887322367007
90.8128238698685
90.7433611778494
90.6817816665339
90.6295185596355
90.5877228336142
90.5553451400327
90.5303056519915
90.5105272906212
90.4939390017896
90.4784738209977
90.4620678866446
90.4426603967799
90.4181945054585
90.3866191539944
90.3458940791981
90.2948927057956
90.2347735035031
90.1670477099763
90.0932220449947
90.0147964488538
89.9332623285573
89.8501013068833
89.7667844673233
89.6847720865269
89.60551384521
89.5304292827868
89.4602937334271
89.3951318967238
89.3349270767831
89.2796642288611
89.2293299482817
89.183912460719
89.1434016138329
89.1077888702428
89.0770673018337
89.0512315853824
89.0302089343403
89.0130945663439
88.9984334503798
88.9847631655491
88.9706232650992
88.9545551899972
88.9351026611
88.910812547972
88.880236211537
88.8419313162358
88.7944641052101
88.736656850027
88.6689169518481
88.5922778730981
88.5077734890563
88.4164346115116
88.3192873128736
88.2173514944407
88.1116396971854
88.0031561521631
87.892896066628
87.7818451411644
87.6709831899368
87.5613007121032
87.4537851108748
87.3494142731634
87.249157191242
87.1539748006339
87.0648210255139
86.9826440281011
86.9083876595982
86.8429931114796
86.7874007673637
86.7426211863546
86.7101114024867
86.6915090527945
86.6884617458463
86.702632242582
86.7357047491563
86.7893919209248
86.8654426260774
86.9656505301598
87.0918635773077
87.2459944607535
87.4290923736476
87.636200998349
87.8598926111655
88.0926027344843
88.3266129382477
88.5540407648918
88.7668434365187
88.9568360899111
89.1157252080789
89.2351577231843
89.3067879697545
89.3255600981552
89.296275716757
89.2257127614122
89.1207345516247
88.9882321063799
88.8350768626782
88.6680840785573
88.4939869325169
88.3194211308414
88.1509197037859
87.9949085715441
87.8554772193108
87.7314871019712
87.621099110053
87.5225054784729
87.4339245607147
87.3535963910223
87.2797790006137
87.2107454610046
87.1447816332306
87.0801846061852
87.0152611815327
86.9480763163261
86.8760719456229
86.7966096495689
86.7070735379823
86.604875505817
86.487461998426
86.3523222229872
86.1969977243039
86.019093222133
85.8162885837822
85.5863517806143
85.3288432379781
85.0515008760727
84.7643332551927
84.4771002161785
84.1993030508265
83.9401970692992
83.7088246004525
83.5140671933355
83.3647161897784
83.2695613980653
83.2374983127884
83.2774233586725
83.3898990223786
83.5646893404895
83.7909612031363
84.0578562204298
84.3543674605087
84.6692437022581
84.9909219235395
85.3074896731031
85.6066795976509
85.8758986773433
86.1023372301786
86.2782100002835
86.4058607803695
86.4889959441135
86.5314991543124
86.5373926489694
86.5108011478076
86.4559189304252
86.3769805092058
86.2782351992334
86.1639257779451
86.0382706750534
85.9044142129353
85.7623391651609
85.6114463669411
85.4511511336727
85.2808845120958
85.100094581941
84.908247799606
84.704830374798
84.4893496705132
84.2613356161876
84.0203421233755
83.7661592933137
83.5011280279379
83.2292111858887
82.9543071550271
82.6802155596969
82.4106370612028
82.1491765357253
81.8993494030716
81.664590900061
81.4482681231232
81.2536947046438
81.0841480358354
80.9422321682387
80.8259130550801
80.7312206190048
80.6542516085792
80.5911587245419
80.5381355558546
80.4914052575552
80.4472128553958
80.4018211002584
80.3515098188364
80.2925787165923
80.2213535849518
80.1348874080748
80.0347127093147
79.924115366645
79.8063601918905
79.6846795080331
79.5622688099983
79.4422850400879
79.3278474007341
79.2220406261432
79.1279206415726
79.0485225539799
78.9868709402444
78.9456881077182
78.924432451513
78.9205922215355
78.9316534815155
78.9551184229977
78.9884967090725
79.0292984139588
79.0750285356968
79.1231830758794
79.1712466928452
79.2166919431058
79.2569801299467
79.2896031542072
79.3135249063386
79.3295997143985
79.3388114146635
79.3421486939851
79.3406035013499
79.335169702886
79.3268419834801
79.3166149968899
79.3054827652093
79.2944383277848
79.2844736391778
79.276579589109
79.2716548786897
79.2703451312828
79.2732534075318
79.2809841727256
79.2941439860182
79.3133422841087
79.3391922611821
79.372311847457
79.4133247892936
79.4628618345028
79.5215620272632
79.5900741351557
79.669143023048
79.759809479116
79.8631915530708
79.9804298056775
80.1126910577899
80.2611725399437
80.4271064751795
80.6117651336344
80.8164664041653
81.0425799359908
81.2915339122334
81.5647966819078
81.8615528764512
82.1767588590176
82.5047935525618
82.8398634503006
83.1759866746583
83.5069852054934
83.8264860004819
84.1279317620217
84.4046020778978
84.64964556844
84.8561235031495
85.0187504719757
85.139718545747
85.2234194498908
85.2743881426572
85.2972652196229
85.296763687252
85.2776404939924
85.2446731255402
85.2026414518023
85.1563149162519
85.1104450857265
85.0694663674721
85.0345938832857
85.0050879562399
84.9801853108374
84.9591261136413
84.9411532184742
84.9255115488851
84.9114476163691
84.8982091732306
84.885044999299
84.8712048219087
84.8559316281041
84.838119129895
84.8161771954237
84.7884841641323
84.7534245837917
84.7093917097318
84.6547906045069
84.5880418229402
84.5075856621788
84.4118869502711
84.299440339935
84.1687760667461
84.0193760790765
83.8547378812115
83.6794144187342
83.4978955975392
83.3145996195876
83.1338691672901
82.9599722077776
82.7971072138785
82.6494126132533
82.5209803098824
82.4158731716764
82.3381148540734
82.2895354216847
82.2683923421298
82.2726678579138
82.3003930758112
82.3496362499734
82.4184921508725
82.5050724343598
82.6074969458467
82.7238859129024
82.8523529957346
82.990999179336
83.1378919064988
83.2909397666296
83.4479526892815
83.6067079523228
83.7649490764153
83.9203853357201
84.0706925083787
84.2135149147234
84.3464687882635
84.4671470184424
84.5731252947841
84.6620163298013
84.7331840901188
84.7882518338958
84.8290175649701
84.857302183517
84.8749437174003
84.8837923037484
84.8857059483646
84.8825470822289
84.8761799273395
84.8684686785726
84.8612764814095
84.8564292780548
84.8556435106126
84.8606158716073
84.8730458011052
84.8946381333533
84.9271064338682
84.9721770396946
85.0315938218451
85.1071236965215
85.2005629207193
85.3137442183531
85.4483450599958
85.6048035257178
85.7830822858384
85.983172788485
86.2050961095889
86.4489026420142
86.714671885006
87.0025123313645
87.3125614503864
87.6449857652219
87.9999810238865
88.3767987904023
88.7699432036855
89.1722902928775
89.5764569850034
89.9747892820556
90.3593627567665
90.7219968548438
91.0542841700831
91.3476357114015
91.5933429067788
91.7829211710317
91.915042546873
91.9962988753371
92.0339036980514
92.0352342950557
92.0077675146146
91.9590269620836
91.8965421614541
91.827819986032
91.7603284172833
91.7014925373134
91.6579131623024
91.6330215875186
91.6294729330718
91.6499489818555
91.6971714737212
91.773917153762
91.8830347147345
92.0274638160396
92.2102564112458
92.4346006744035
92.7032931968256
93.0117275627062
93.3497682089096
93.7069185223357
94.0723816828107
94.4350257848803
94.7833741982047
95.105623253482
95.3896893275921
95.6232870904487
95.794730273653
95.9030008813615
95.9556380442647
95.9606503446451
95.926209063692
95.8605741039125
95.7720333842487
95.6688563316102
95.5592617079146
95.4513997274798
95.3530638813892
95.266325221725
95.1880369536039
95.1148841034095
95.0435744944095
94.9708362914708
94.8934178170522
94.808089601175
94.7116486255255
94.6009247129933
94.4728624597784
94.3277744920292
94.1705768464555
94.0064705719547
93.8405905278607
93.6780009411456
93.5236965157956
93.3826088987165
93.2596183247211
93.1595703044199
93.0872968327798
93.0454401872983
93.0293792681303
93.0330333214793
93.050350692077
93.0752870954578
93.1017917797339
93.12380154569
93.1352426481539
93.1300406127502
93.1021379700693
93.0462237423521
92.9631726307804
92.8570436645162
92.7319242792111
92.5918859758327
92.4409697068287
92.2831748780836
92.1224519106551
91.962698273122
91.8077578753621
91.661411272443
91.526271462521
91.4029304550187
91.2917759973794
91.1932008712994
91.1076040335154
91.0353918029266
90.976979098369
90.9327907318895
90.903262762923
90.8888439193992
90.8900473550721
90.9078884823577
90.9436748592349
90.9987414180987
91.0744528823015
91.1722096900146
91.2934544597841
91.4396790522908
91.6124322927071
91.8133284293622
92.0440201855237
92.3029452725488
92.5826340823395
92.8748483411224
93.1711514002039
93.4628914698141
93.741200441337
93.9970093370486
94.2210813810752
94.4040634991024
94.5365621001986
94.6131375777663
94.6393134280438
94.6226502585953
94.5708292451786
94.4915889850818
94.3926745549935
94.2817991838866
94.1666186464944
94.0547182641112
93.9536122681616
93.8697903988626
93.8045976024392
93.757704199371
93.7288021586634
93.7176050266037
93.7238468663175
93.7472812717508
93.7876804502313
93.8448343682721
93.9185499557281
94.0084891239997
94.112584497486
94.2276976723203
94.3506530737022
94.4782465831859
94.6072411775305
94.7343647427943
94.8563101232594
94.9697374681599
95.0712789359827
95.157838260474
95.2308023688096
95.2951003071236
95.3557891164788
95.4179538603117
95.4867065369986
95.5671904516805
95.6645901348383
95.7841469277672
95.9311804137433
96.1106496599419
96.3204604263722
96.5528883648079
96.7999436860044
97.0534879536825
97.3052152236456
97.5466469918306
97.7691417044619
97.9639195738754
98.1221033225618
98.2363068695255
98.3100761333045
98.3518034467875
98.3700042051946
98.3732499546113
98.3701348712563
98.3692571470638
98.3792153863885
98.4086200372415
98.4661192555685
98.5572263164394
98.6768607279315
98.8177254554803
98.9724733558515
99.1336806396512
99.2938312241541
99.4453122782522
99.580421326788
99.6913852748977
99.7705572453929
99.8155117551509
99.8300257685051
99.8182937262914
99.7845522812625
99.7330598535479
99.6680797222344
99.593866737136
99.514657680939
99.4346652708976
99.3577007696293
99.28461191442
99.2148554618411
99.1478837023977
99.0831523640643
99.0201203328167
98.9582494336481
98.8970042711284
98.8358521286549
98.7742627905392
98.7110465036569
98.6428251906184
98.5657866249752
98.4761461518522
98.3701548806692
98.2441106848123
98.0943718988484
97.9173735654884
97.7096460390322
97.4678594378592
97.192809314721
96.8937407673198
96.5807891348577
96.2638557938631
95.9525918244099
95.6564016204487
95.384465156168
95.1457777419382
94.9492063678383
94.8035594472777
94.7134436660623
94.6708079516678
94.6653769588114
94.6869859785686
94.7255118990875
94.7708261371216
94.8127692449858
94.8411472237584
94.8457497044024
94.8163900931104
94.7452110851433
94.634333721472
94.4886550392456
94.3130984294688
94.1125806314198
93.8919839349042
93.6561335894586
93.4097803863941
93.157588294127
92.9041269649524
92.6537332348578
92.4088192028423
92.1704332364339
91.9395744239444
91.7172237431663
91.504345959082
91.301891703557
91.1107997314816
90.9319993498052
90.7664130180013
90.6149591065106
90.478045700294
90.3542388144379
90.2417113755775
90.1386631157213
90.0433164210147
89.9539129256325
89.8687108241366
89.7859828807809
89.7040151181535
89.6211061702916
89.5355978344414
89.4479816897634
89.3622412333886
89.2826531589263
89.2134653820737
89.1589049941091
89.1231902051392
89.1105462680662
89.1252254298314
89.171531028303
89.2538459423032
89.3762657929277
89.5360336809944
89.7244802308377
89.9326630970625
90.1515051409255
90.3717626364105
90.584011860682
90.7786549747402
90.9459461401453
91.0760386829744
91.1590538864763
91.1885396791318
91.1704662685158
91.1137446415234
91.0273566315465
90.9202879526609
90.8014788803072
90.6797927021971
90.5640017300303
90.4627904765506
90.3847755598547
90.3383993260064
90.3267795333613
90.3462722212382
90.3928508508573
90.4625261356869
90.5513237455263
90.6552655828171
90.7703545477491
90.892562771828
91.0178233497647
91.1420256370795
91.2615631114263
91.3760058679881
91.4860875299806
91.5925520893726
91.6961516781896
91.7976460533435
91.8978022025929
91.9973940750727
92.097202439613
92.1980148739392
92.3005809968684
92.4044531016556
92.5078701796437
92.6089896695486
92.7059531643474
92.7968876614731
92.8799075742235
92.9531175168232
93.0146158715393
93.062499140848
93.0948685385617
93.1104194819703
93.1093403340689
93.0920669182959
93.0590516130807
93.0107618163694
92.947678417384
92.8702942832662
92.7791127677666
92.674646248616
92.5574146996705
92.4282787219145
92.2907178105246
92.1494097430094
92.0089850597372
91.8740184637499
91.7490321726862
91.638503723345
91.5468781149617
91.4785842188205
91.4380554405402
91.4297217086897
91.4550832350827
91.5103798105761
91.5913444356298
91.6937278640498
91.8132765112209
91.9457143001583
92.0867284165241
92.23195900743
92.3769929074894
92.5173615089757
92.6487010980674
92.7674444380751
92.8702757182236
92.95386497699
93.0148803493304
93.0500028782672
93.0559436528316
93.0294631616739
92.9673926985434
92.8666575981424
92.7246050148003
92.543983457037
92.3320519208363
92.0961570119057
91.8435472916731
91.5813425020287
91.3165143257858
91.0558781788047
90.806095446567
90.5736855650745
90.3650473962618
90.185650033923
90.0368830520452
89.9189606533865
89.8321549215996
89.7767983840449
89.7532866544774
89.7620814346176
89.8037139081386
89.8787885654027
89.9879875027703
90.1320360593202
90.3081846763982
90.5073295423786
90.7195854857137
90.9348973271285
91.1430209045999
91.3335267232013
91.49582731121
91.6192292231736
91.6930102520727
91.7065217853942
91.6512653378013
91.532877628441
91.3631692287058
91.1540055084737
90.9171669320578
90.6642643623852
90.4066850589563
90.1555683098818
89.9218092331376
89.7160891883833
89.5489289997358
89.426933302621
89.3451598637753
89.2966356881441
89.2745028078901
89.2719725518447
89.2822905759312
89.2987122983402
89.3144885742389
89.3228615686336
89.3170708446197
89.2904652876496
89.2417561716802
89.1777043581634
89.1057161253987
89.033158299262
88.9673513009548
88.915574303175
88.8850823172986
88.8831351110321
88.9170380141756
88.9941949102456
89.1216559703068
89.2976384372985
89.5127502120081
89.7572852010933
90.0213898737061
90.2950074455166
90.5678435149183
90.8293543497705
91.0687592552866
91.2750784648498
91.4371984674593
91.5474456636642
91.6098084147081
91.6308564642373
91.6172967441081
91.5759177712462
91.5135434892345
91.4369970351864
91.3530746579733
91.2685298197162
91.190067381589
91.1241582239593
91.0734678793302
91.0371863821647
91.0143905522014
91.0041715422929
91.0056322478667
91.0178849201034
91.040048972353
91.0712489712733
91.1106128059283
91.1572700296736
91.2106916795475
91.2717164623659
91.3415333133293
91.4213429692068
91.5123604314025
91.6158177719256
91.7329672981814
91.8650850959831
92.0134749741713
92.1794728388092
92.3641759506418
92.5644731028259
92.773876885621
92.9856993613022
93.1931310049975
93.3892415022094
93.5669907799148
93.7192506970448
93.8388377199463
93.9185567373636
93.9513669220036
93.935361787643
93.8757502685868
93.7783585364904
93.6490664308393
93.4937643465682
93.3183174279871
93.1285372233076
92.9301607864042
92.7288370844583
92.5301204819277
92.3385473133652
92.1549003942327
91.979036323454
91.810816808025
91.6501084643407
91.496782628891
91.3507151778114
91.2117863548014
91.0798806069583
90.9548864280976
90.8366662288626
90.7241452461579
90.6151559704838
90.5074894374055
90.3989578654076
90.2873944801864
90.1706543834312
90.0466164385441
89.9131861431478
89.7682994536912
89.6099275211348
89.4365800291516
89.2516005346615
89.0609678767288
88.8705943704832
88.68629279105
88.5137810110061
88.3586940254972
88.2266030853953
88.1230417444752
88.0535387480835
88.0236578475963
88.0379195674828
88.0929734858891
88.1821031772675
88.2986138133509
88.4357988172407
88.5869028454362
88.7450948780775
88.9034515795276
89.0549512334493
89.1924786325532
89.3088416444361
89.3984474245696
89.4611802344958
89.4981088684471
89.5103519506231
89.499071544854
89.4654668744578
89.4107682065265
89.3362309491105
89.2431300037678
89.1327544098527
89.0064158244892
88.8666498437158
88.7181430150196
88.5657512173985
88.4142668433509
88.2684174497327
88.1328695159883
88.0122371373163
87.9110955090552
87.8339991082888
87.7855045485692
87.7701180812836
87.787942067388
87.8324147535963
87.8964463445785
87.9729390256359
88.0547609634113
88.1347317661862
88.2056195483797
88.2601498039699
88.2910262735781
88.2909638875202
88.2530291319252
88.1782917902419
88.0764522125117
87.9576133813821
87.8318003246357
87.7089331720728
87.5988229362303
87.5111894081996
87.4557006264409
87.4420336464929
87.4799568073063
87.579097318008
87.7416203746942
87.9621687813462
88.2351721193392
88.5551094667697
88.9164432282008
89.3135596980569
89.7407160443569
90.1919937052798
90.6612584670795
91.1421277403668
91.6282779108099
92.1145850751959
92.5961144729209
93.0677281573564
93.5240905125551
93.9596800075866
94.3688077098525
94.7456430241745
95.0842470202703
95.3786135652634
95.6237741933105
95.8204417150396
95.9713655838735
96.0794741960769
96.1478459327517
96.1796822228006
96.1782818836917
96.1470170967346
96.0893113091795
96.0086192922194
95.9089523996787
95.797189385467
95.6811066461706
95.5684101688065
95.466734365567
95.3836537743915
95.3267067695616
95.3034311478566
95.3214116536454
95.3883397837652
95.5098477999569
95.6773422072474
95.8765078962747
96.0928579782219
96.311672580721
96.5179673902359
96.6965080190332
96.8318722168977
96.908561454188
96.9111622524715
96.8284899251883
96.6687728541543
96.4462056572171
96.1750170138821
95.8693079359406
95.5429335508106
95.2094266845318
94.881961528279
94.5733550182032
94.2961033806203
94.0612693683523
93.8695347134107
93.7164192370103
93.5975551794134
93.5086976926487
93.4456959657472
93.4044685741295
93.3809827475908
93.3712373378103
93.3712493365256
93.3770877711632
93.3859988068193
93.3965034147265
93.4071855207011
93.416627809994
93.423411888227
93.4261188729379
93.4233304161016
93.4136301569688
93.3956056029876
93.3678556867072
93.3303004016861
93.2858955854799
93.23801614232
93.1900246956232
93.1452703099575
93.1070896289276
93.0788104055571
93.0637574088045
93.0652607040509
93.0866663267302
93.1306834068345
93.196167015685
93.2805841067594
93.3814061951611
93.4961015780294
93.6221269802518
93.7569205542616
93.8978962405389
94.0424395100587
94.1879045215225
94.3317126264435
94.4723346242939
94.6088851121654
94.7404791006885
94.8662234623569
94.9852179057772
95.0965561259702
95.1993271327214
95.2926167579986
95.3755093423291
95.4472346039096
95.5089964972253
95.5634343640658
95.6132354771193
95.6611004156638
95.7097412238634
95.7618810973589
95.8202556154212
95.8876155370782
95.9667311845056
96.0600948508275
96.1660983940625
96.2801457775436
96.3975367974634
96.5135268373664
96.6233257846254
96.7221016718411
96.8049891523148
96.8671028937499
96.9035559285336
96.9100958714466
96.8884454036637
96.8436958656301
96.7809949000936
96.7054880064904
96.6223022827267
96.5365356489271
96.4532515078675
96.3774787612032
96.3142170890678
96.2676618778829
96.2351740759911
96.2106193690373
96.1878535949559
96.1607456449857
96.1231790786467
96.0690615231822
95.9923417768807
95.8870344654093
95.7472519904898
95.5684753716595
95.3582093815245
95.130527131356
94.8993445489422
94.6783171436447
94.4808509573512
94.3201517379204
94.2093108384926
94.1614271528017
94.1897656207481
94.3071610335893
94.5111391456981
94.7849259905987
95.1111538391459
95.4721741371434
95.8498893028591
96.2256494096519
96.5802182592872
96.8938145253368
97.1462336548286
97.3185336006902
97.4097454063871
97.4311730821088
97.3946898689405
97.3123708986757
97.1963651152647
97.058796679247
96.9116966815936
96.7669651243282
96.6363625729433
96.5308034757277
96.454111873988
96.4061992570298
96.3869851109134
96.396440230389
96.4345865960376
96.5014974800489
96.59729778155
96.7221645943223
96.8763280116993
97.0595324374178
97.2677188504973
97.495124406244
97.7358956691338
97.9840748156982
98.2335861750715
98.4782300484129
98.7116841944651
98.9275133844459
99.1191915616578
99.2831491622716
99.4241950927111
99.5486707732573
99.6630043078035
99.7736933967623
99.8872965278941
100.010432683442
100.149789778214
100.312142067149
100.503913497657
100.723555487233
100.962612237375
101.212272007716
101.463556970769
101.707311319886
101.93420558361
102.134757962816
102.299373415078
102.418419600601
102.486945659424
102.510893254588
102.497860475595
102.455529811563
102.391618565723
102.31384066135
102.229880058072
102.14737579338
102.073918533264
102.016332255402
101.975723300369
101.950520785473
101.939155900208
101.940073377656
101.951727513167
101.972578672458
102.001090276644
102.035726255839
102.074928814092
102.116223315965
102.155859030314
102.189980255737
102.214722244849
102.226216825074
102.220600947686
102.19402814749
102.142682863879
102.062797533451
101.952343729157
101.816687053902
101.663185175952
101.499133681794
101.331746043184
101.168144112195
101.015358782493
100.880340486716
100.769979234249
100.690984296597
100.645366080531
100.629651127148
100.640110012798
100.673055223715
100.724823294237
100.791759715395
100.87020653242
100.956492591993
101.046926433963
101.137786397823
101.225297941546
101.305652893122
101.375021243898
101.429557949172
101.465412656116
101.478742360271
101.465726954669
101.422587590991
101.345758304895
101.235778734132
101.09760122176
100.93639608422
100.757306343473
100.565427339575
100.365791651874
100.163359222805
99.96301252655
99.7695565953263
99.5870168860421
99.4148323313808
99.2506661900706
99.0922118434004
98.9371940080355
98.7833665285761
98.6285112170796
98.470437705017
98.306984274595
98.1360198145213
97.9563196640214
97.769569384849
97.5780292926047
97.3839271584007
97.1894567029556
96.996777105613
96.8080134882271
96.6252583341504
96.4505738046214
96.2859949764063
96.1336251757305
95.9958241201352
95.8749871565576
95.7735008835884
95.6937523965409
95.6381397227192
95.6090834901418
95.6090398966519
95.6405150732178
95.7060805122478
95.8061596552895
95.9338275887987
96.0805978733123
96.2379095189517
96.3971000890314
96.5493940884569
96.6859071210893
96.7976663311
96.875647550987
96.9108392340941
96.8982651066794
96.843078189713
96.7520802196073
96.632112819793
96.4900121606514
96.3325732843267
96.1665241635911
95.9985093824872
95.8350832032341
95.6827085978231
95.5455159133153
95.4213840678961
95.3071632214519
95.199740645522
95.0960352002504
94.9929938588563
94.8875902254997
94.7768249993864
94.6577283395446
94.527364081181
94.3836660227844
94.2282397154697
94.0636749630228
93.8925330302329
93.7173425200987
93.5405966890779
93.364752127571
93.1922287566059
93.025411090569
92.8666507175558
92.7180835623889
92.579300316154
92.4480889696351
92.322226478404
92.1995159749039
92.0777846706949
91.9548828054079
91.8286836127654
91.6970842752605
91.5580078383556
91.4094096016932
91.2518415045523
91.0929137093637
90.9413379861751
90.8057125727023
90.6945446837949
90.6162888911124
90.5794011646301
90.5924087321494
90.6639964023652
90.8031106229585
91.0183062272589
91.3050145728208
91.6472190498931
92.0282698252733
92.4310687051441
92.8379495422695
93.230622425412
93.5901874506592
93.8972243025689
94.1319630816085
94.2748388036516
94.3200950808969
94.2813441302128
94.1740364987078
94.0138316044176
93.8163978740913
93.5972646486579
93.3717264904002
93.1547988388438
92.9612230073164
92.805518153321
92.6983046754982
92.6365040242413
92.6140687327331
92.6250740013566
92.663671164095
92.7240490743054
92.8004030156114
92.8869109301955
92.9777169020184
93.066921938907
93.1489196556166
93.2213364686632
93.2836254174396
93.3352634900582
93.3757325753806
93.4045206501225
93.4211230117109
93.4250435526348
93.4157960715109
93.3929056155652
93.3560051594308
93.3077377152426
93.254268862901
93.2019418509158
93.1570721362723
93.1259532417713
93.1148711219733
93.1301270163303
93.1780688738471
93.2651315884788
93.3978756781752
93.5787018856652
93.7991370240072
94.0489314321532
94.317679368247
94.5947635861787
94.8693228044807
95.1302433294693
95.3661763035447
95.5655820201212
95.7168081453056
95.8123207408733
95.8561422257927
95.8544457514431
95.8135459435078
95.7398431745892
95.6397757153905
95.5197802670383
95.3862611349191
95.2455681073131
95.1039829305645
94.9668908037578
94.836624473868
94.714814046909
94.6030764202363
94.5030185332452
94.4162411507841
94.3443431789054
94.2889265183911
94.2516014680774
94.2339926974023
94.237127652476
94.2580811847376
94.2923685894557
94.3355024242049
94.3829858505818
94.4303063207858
94.4729335571736
94.5063218641954
94.5259168115787
94.5271663095069
94.5059553645345
94.46272398981
94.400695586513
94.3231412570779
94.2333286110967
94.1345122372513
94.0299264527045
93.9227803136069
93.8162548527927
93.7135024997462
93.61764618836
93.5317086495751
93.4586050880985
93.4012361620395
93.3625021411905
93.3453136596879
93.3526043100808
93.3873451495639
93.4525612254282
93.5513502692481
93.6868891935002
93.8588167024893
94.0583648366195
94.2754726121897
94.4999182336757
94.7212909724398
94.9289854194448
95.1122191987133
95.2600751802385
95.3615689534695
95.4057491053924
95.3871011450207
95.3149540229392
95.2012776301335
95.0580612882839
94.897225121571
94.7305616908576
94.5697075109385
94.4261436199628
94.3112242296522
94.2362326389982
94.2098532792893
94.2282764525687
94.2840185393714
94.3696614084702
94.477799982721
94.601000775516
94.7317720136897
94.8625454254015
94.9856699319533
95.0934175656526
95.1791219847653
95.2433109103589
95.289405636762
95.320871616976
95.3411994441004
95.3538954106927
95.3624746060216
95.3704565864379
95.3813636367739
95.3987216312996
95.4256950424619
95.4625646602978
95.5082493064423
95.5616608035371
95.6217101583304
95.6873059082415
95.7573527142055
95.8307502002747
95.9063920416953
95.9831653041814
96.0601157323831
96.1375861316788
96.2165380230335
96.2979429832869
96.3827794235368
96.4720331992733
96.5666984248579
96.6677784970773
96.7762873333108
96.8932508308643
97.019518994228
97.1548452132027
97.2985817345769
97.4500765482804
97.6086727930577
97.7737076927271
97.9445115749319
98.1204069736717
98.3007078174531
98.4847182612197
98.6714092267903
98.8588396725224
99.0448848432729
99.2273880513164
99.4041616010157
99.5729886825343
99.7316262674923
99.8778090352124
100.009254351949
100.123790231301
100.221677922975
100.305447683442
100.377744884458
100.441239706105
100.498621751926
100.552596068287
100.605880597586
100.661205087625
100.72131147541
100.788175766358
100.860662114996
100.936847894395
101.01479992756
101.092573417738
101.168211620761
101.239746271152
101.30519877371
101.362582170983
101.409960568187
101.446527400152
101.472523624927
101.48823644135
101.493959795285
101.489993788037
101.476644093038
101.454221382626
101.423040766589
101.383421263868
101.335782503507
101.280868925333
101.219491876348
101.152461543977
101.080585998864
101.00467036869
100.925516142662
100.843920605787
100.760676401646
100.676581564787
100.592634880318
100.510018022557
100.429912036561
100.353490688793
100.281921207812
100.216365294262
100.157980397165
100.107921254636
100.06734169852
100.037087731436
100.016518416777
100.004550581257
100.000106819656
100.002113850772
100.009501017817
100.021199021316
100.036138882161
100.053251133552
100.071463581589
100.089610070869
100.106383222938
100.120462422508
100.130525897599
100.135251604444
100.133318461494
100.123407931355
100.104205947896
100.074405183849
100.033089862608
99.9826780117252
99.9272931693397
99.8710574348398
99.8180749215329
99.7724327650836
99.7382054837588
99.7194626635142
99.72027996168
99.7447507859835
99.7950696148899
99.8681179884628
99.9598735572387
100.06630831018
100.183374969773
100.306996609926
100.433059527159
100.55740942565
100.675850995805
100.784337976969
100.881668216653
100.968890603838
101.047128371627
101.117517197658
101.181203310261
101.23934183969
101.293095422175
101.34363306311
101.392127942412
101.438798736145
101.481212327913
101.516473674783
101.541682087775
101.553936134485
101.550340199487
101.528012686571
101.484095829278
101.415767054854
101.32054961998
101.19961350125
101.056531770799
100.894913355829
100.718345950886
100.530384424846
100.334541823767
100.134282920938
99.9330202431138
99.7341124833192
99.5407234499132
99.355454390447
99.1807536482033
99.0190399492901
98.8727083695073
98.7441374226539
98.6356972604608
98.5497589899853
98.4887051321656
98.4549206628042
98.4489613049577
98.4681014321967
98.5093082836954
98.5695714864732
98.6458904153204
98.735263417682
98.8346788656688
98.9411080227355
99.051499733239
99.1627900799136
99.2720895101016
99.3766413323165
99.4736709508745
99.5603850311127
99.6339764377909
99.6916307698395
99.7305344943886
99.7478846656964
99.7409001935589
99.7084079991096
99.6561809327065
99.591889781677
99.5231796496764
99.4576573158949
99.4028903469563
99.3664177614215
99.3557721311459
99.3785131084329
99.4421926224091
99.5488772192168
99.6915307647093
99.8622654698339
100.053140336317
100.256122029425
100.463058266343
100.665664093245
100.855521564267
101.024093387572
101.163937718001
101.27601865007
101.365018256228
101.435703563509
101.492892520757
101.541438895291
101.58622170361
101.63213927311
101.684107998884
101.746987629601
101.82211906431
101.905927601151
101.994456792441
102.083724844671
102.169722430854
102.248413630603
102.315740052394
102.367628184235
102.4
102.410475537258
102.40345270996
102.385036220481
102.361333042004
102.338442477216
102.322453495872
102.319449327972
102.335519294133
102.376777895767
102.448716814787
102.547732828453
102.663614349583
102.785935326836
102.904176779651
103.007724147234
103.085886413787
103.127937426271
103.123179559336
103.061138196038
102.939163603846
102.7672570264
102.556602885504
102.318314358337
102.063363028224
101.802532822096
101.546397500702
101.305320668651
101.089477181249
100.907473640516
100.757783015439
100.634612951298
100.532256720938
100.445083928038
100.367520313089
100.294033938023
100.219127576523
100.137337187514
100.043258408531
99.9352495640739
99.8195415182378
99.7033113236184
99.593670699194
99.4976705226584
99.4223153270119
99.3745876310862
99.3614820492813
99.3900492989752
99.4668751956395
99.5886605997783
99.7436344466217
99.9196883126805
100.104579852749
100.285895342003
100.451042435664
100.58727424973
100.681745783313
100.721603391168
100.698088680817
100.617157029813
100.488223807098
100.320766454023
100.124243995808
99.9080344333884
99.6813901204052
99.4534108106286
99.2330337850279
99.0289526005783
98.8448565034666
98.6770794807694
98.5214176498881
98.3737299441742
98.2299295054956
98.0859785804188
97.9378868017516
97.781712749769
97.6135686884051
97.4297126974685
97.2284053295888
97.0098785740167
96.7744647029004
96.5225106623201
96.2543770971306
95.9704373598681
95.6710765082221
95.3566902954852
95.0276841582718
94.6845307245415
94.3303393509562
93.9717653482667
93.6155354746798
93.2681754345164
92.9360195393153
92.6252289368761
92.3418177911838
92.0916869292616
91.8806646419936
91.7145545319427
91.5977092097853
91.5267327782914
91.4958010967537
91.499219481119
91.531378130143
91.5867133918351
91.6596760880405
91.7447066542707
91.8362169971232
91.9285790815562
92.0161993463794
92.0955606824726
92.1654268827548
92.2246753887494
92.2721849069257
92.306838092186
92.3275244950517
92.3331437629423
92.3226090828974
92.2948508498637
92.2488207545469
92.1845410256367
92.1055188458449
92.015970436646
91.9200891498531
91.8220378819509
91.7259453118686
91.6359058898751
91.5559834983947
91.4902187126632
91.4426396097623
91.4170373183364
91.4130599423357
91.4268498284103
91.4544562750913
91.4919342790842
91.5353342929828
91.5806953860959
91.6240418158287
91.6613830357372
91.6887171726335
91.7020393908863
91.699555826626
91.6861584155757
91.6680005425203
91.6512294376396
91.64198391588
91.646400348826
91.6706268596045
91.7208457881353
91.803304577576
91.9243553847171
92.0898707605002
92.2982426230668
92.5428289528881
92.816842994616
93.113393798842
93.4254457077272
93.7457877682895
94.0670136163106
94.3815125448609
94.6814725765174
94.9591002522202
95.2105383485188
95.4356798368628
95.6346076467016
95.8074545215318
95.9544018867089
96.0756785136817
96.1715589941216
96.2423620386795
96.2884486161669
96.3102725209882
96.3092421340017
96.2875777465141
96.247548877527
96.1914403926943
96.1215443785937
96.0401530854115
95.9495529600802
95.8520197789523
95.7498148783115
95.6451205278635
95.538867960586
95.4308467353198
95.3208063053224
95.2084987583395
95.0936789226198
94.9761044846739
94.855536118345
94.7317376247313
94.6044760824752
94.473558288247
94.3404329410021
94.2088006176619
94.0824874939047
93.965279823172
93.8609298890075
93.7731649303812
93.7056989951317
93.6622477116194
93.6465460132583
93.6623648449424
93.7105924321631
93.7840323852236
93.8740934528946
93.9721431570628
94.0694849740286
94.1573514402782
94.2269134933568
94.2693063496787
94.2756720834104
94.2372188011931
94.1478795314071
94.014220403658
93.8466070972949
93.6553523945226
93.4506532459769
93.2425513987357
93.0409161987226
92.8554486948578
92.6957061199067
92.5711459550317
92.4907583066033
92.4560749470867
92.4623792592071
92.5048671246446
92.5788097810741
92.679519014761
92.8023173660576
92.9425131284269
93.0953800394348
93.2561416590369
93.4199746828168
93.5832769129775
93.7447003830849
93.9031178157806
94.0573873890887
94.2063535383241
94.3488480478611
94.4836914402466
94.6096946689022
94.7256611190782
94.8303893096877
94.9228318620595
95.0023391861411
95.0683296725636
95.1202300029883
95.1574767682241
95.1795181319146
95.1858155326194
95.1758454164023
95.1491009913661
95.1050942144938
95.0444337897828
94.9713101024405
94.8906380519274
94.8073050694335
94.7261659289387
94.6520425719379
94.5897288601958
94.5440001809152
94.519627859477
94.5213983860466
94.5528721558362
94.6109472688641
94.6903296878672
94.7857221999667
94.8918047636101
95.0032193579709
95.1145607882322
95.220373558245
95.3151549518673
95.3933644649216
95.4506507454645
95.4904642578338
95.5193793537523
95.5440054840496
95.5709690236232
95.6069119335699
95.6584996439486
95.7324382417007
95.8355011219461
95.9745653906441
96.1547568340352
96.369080960966
96.6056056196702
96.8521907865031
97.0964584971458
97.3257815177673
97.5273043831576
97.6879983570964
97.7947514617152
97.834494048447
97.7989398481149
97.6967995253308
97.5407866290245
97.3436647287455
97.1181250133972
96.8766974259741
96.6316950862272
96.3951909746915
96.1790254371773
95.9948429034919
95.850819043699
95.7429845661986
95.664734824806
95.609570845441
95.571063603063
95.5428273043966
95.5185013842493
95.4917410502051
95.4562162878059
95.4056192676905
95.3356276122418
95.2505053852668
95.156844322532
95.0611926606403
94.9700479428474
94.8898588475905
94.8270358015713
94.7879702407245
94.7790624676858
94.8067581882931
94.8758184604885
94.9796819175863
95.1072696494167
95.2474200035525
95.3888567485106
95.5201722485083
95.6298376277106
95.7062406788047
95.7377520304476
95.7128195608714
95.6222604785175
95.4725685814834
95.2770154220656
95.0488483037456
94.8011565738681
94.5468017287092
94.2983835811925
94.0682408801469
93.8684845964644
93.7110622934447
93.607251483001
93.5579183104502
93.5552204140023
93.591190717562
93.6579481323352
93.7476388335176
93.8523909350258
93.9642823265245
94.0753217113903
94.1774430658489
94.2626149644667
94.3273493759265
94.3745347062353
94.4075628059689
94.4298501800097
94.4448289728483
94.4559404088929
94.4666307220869
94.4803495929423
94.5005511024871
94.5306812826975
94.5715065326842
94.6180940063227
94.6647674772677
94.7058289806458
94.7355621192013
94.7482422639014
94.7381536729659
94.6996134840884
94.627002430767
94.5148024855667
94.3600313889725
94.1677628940797
93.9447204195043
93.697575857446
93.4329119015556
93.1571940354038
92.8767519131675
92.5977697313198
92.3262851133424
92.0681960043321
91.8291008338575
91.6121429154366
91.4187411257142
91.2502839057477
91.1081750174983
90.993841944854
90.9087448301027
90.854386012846
90.8323202521546
90.8441657283233
90.8916157020409
90.9752898288123
91.0920318919887
91.2379256073991
91.4090637726995
91.601524344622
91.8113498146966
92.0345298572718
92.2669872932501
92.5045674712881
92.7430312151099
92.9781719161071
93.2068686129587
93.4266013472497
93.6348158244929
93.8289215037862
94.0062983442141
94.1643050624033
94.3002889156393
94.4115970040177
94.4955890605314
94.5498516611747
94.5755024719372
94.5766782261721
94.5576528626793
94.5227233595467
94.4761933603149
94.4223606891027
94.3655087859159
94.3099020532207
94.259785079701
94.2193363433009
94.1904903090476
94.1720853936404
94.1627410704947
94.1610837002572
94.165744088992
94.1753554515631
94.1885517751575
94.2039665801382
94.220232077175
94.2359779992583
94.24965179221
94.2592821246612
94.2628380894357
94.2582900801521
94.243612842783
94.2167893930978
94.1758157867341
94.1187067208759
94.0435019373272
93.9482733862947
93.8328523136506
93.7046303599808
93.5729973081298
93.4472422450732
93.3365562537184
93.2500533292225
93.1968090613857
93.1859169290713
93.2265624430051
93.328115911595
93.4988705924336
93.7326162302634
94.0141320789598
94.3278678002521
94.6579353776301
94.9880233561542
95.3013650266809
95.5807644220231
95.8086840773859
95.967397690098
96.0408621465087
96.0311715646744
95.9517182969199
95.8163070489856
95.6388205418297
95.4330792498738
95.2127414349278
94.9912432673518
94.7817778691555
94.5973116411921
94.4502059881452
94.3441743186522
94.2751138828395
94.2387438875368
94.2308705428774
94.24735991059
94.2841147129046
94.3370548867438
94.4021017474045
94.4751656907985
94.5521909500864
94.6315261338469
94.714885504819
94.8042453131236
94.9015984692886
95.0089575101468
95.1283584360985
95.2618654494119
95.4115766311016
95.579630603645
95.7681399472537
95.9751143015772
96.1922510789167
96.4105820297299
96.620976675717
96.8141478605419
96.9806750745575
97.111046216515
97.1957181946043
97.2251963521492
97.1904971675447
97.0926432143668
96.9434422369836
96.7552767458749
96.540458564724
96.3111468984456
96.079297896879
95.8566447564263
95.654707041215
95.4848278605473
95.3580050484285
95.2765072185566
95.2315926655115
95.2139266130314
95.2142472204405
95.2233215659319
95.2319197032364
95.2308066369456
95.2107522003172
95.1625588118684
95.0772040063085
94.9525902716242
94.7978212936047
94.6229791065474
94.4380360506012
94.2528237198115
94.0770228412415
93.9201733196786
93.7917036866574
93.7009793657992
93.6573687512582
93.6666596057944
93.7226163939409
93.8165954035573
93.9399910956148
94.084173645317
94.2404422395092
94.3999941524638
94.5539099246418
94.6931551499818
94.8085994314307
94.8926450100333
94.9453876746924
94.969305818031
94.9669391958019
94.9408736730266
94.8937276296958
94.8281396678022
94.7467577035441
94.6522295021082
94.547194688906
94.4342410636228
94.3156458728685
94.1935293535285
94.0699904859449
93.9471067805501
93.8269341769028
93.7115078486862
93.60284389071
93.5029418663501
93.4137881977904
93.3372931719379
93.2738196918193
93.2221969438679
93.1812017682458
93.1496230491572
93.1262591186563
93.1099154873737
93.0994028931417
93.0935356608024
93.0911303684307
93.0910073784614
93.0926280745605
93.0969343373612
93.1050772769651
93.1182095962073
93.1374866832809
93.1640679927397
93.1991187184092
93.2438117633401
93.299330013865
93.3668689270855
93.4468730854867
93.5357249215022
93.6284366262238
93.7199820302473
93.8052959181899
93.8792779414175
93.9368020758453
93.9727316945328
93.9819402688346
93.9593376300288
93.9005167412508
93.8077925713254
93.6875696887143
93.5463023398839
93.3904036323704
93.2262215147911
93.0600236005712
92.8979906127689
92.7462181671915
92.6107265993024
92.4974323921808
92.4089891750193
92.3427789372035
92.2957431067991
92.2648618511739
92.2471425476176
92.2396102865348
92.2393003447046
92.2432525894208
92.2485077921581
92.2521058429555
92.2518040950535
92.2491717671597
92.2470375916231
92.2482307008488
92.2555810054694
92.2719221044189
92.300095938221
92.3429592017061
92.4033915467239
92.484305624517
92.5884152027401
92.713613097815
92.8532903158905
93.0006064722789
93.1486402738077
93.2903829774128
93.4187422724634
93.5265569151262
93.606622385687
93.6517277115987
93.6547589202048
93.6137243912149
93.5357012363876
93.4287418406435
93.3008909719151
93.1601433300429
93.0144150033501
92.8715286381174
92.7392119722157
92.6251093280928
92.5368056973406
92.4807412287561
92.4574323116497
92.4654961423044
92.5036135012517
92.5705211970645
92.6650039015222
92.7858865404256
92.93202717171
93.102310292108
93.2956405221223
93.5107741289977
93.7442554135166
93.990973788926
94.2456860953503
94.5030388754244
94.7575615483453
95.0036657529372
95.2356512136457
95.4477184739459
95.6339887981213
95.788822245265
95.9110362412876
96.0030100923103
96.0672970761841
96.1065160056192
96.1233367358834
96.1204669247337
96.1006401616249
96.0666055546763
96.0211188379109
95.9669069999944
95.9062611511623
95.841128532402
95.7734386549379
95.7051108928084
95.6380538610485
95.5741655599215
95.5153342741592
95.4634402170665
95.4203579114839
95.3878746064017
95.3660903066576
95.353555945475
95.3487718182318
95.3502431326291
95.3564778132079
95.3659847766281
95.3772726745504
95.3888491029207
95.3992202778005
95.4069880167668
95.4133454376939
95.4222991496892
95.438000153868
95.4646069652766
95.5062933076111
95.5672594747718
95.6517474330221
95.7640597866901
95.9085827945385
96.0895406002898
96.3039531875965
96.5408515064992
96.7886856351156
97.0356793302769
97.2698163394612
97.4788559898275
97.650379508411
97.7718682126423
97.8308140551939
97.8160309052526
97.7307371817513
97.5877618386062
97.40019029797
97.181061165666
96.9432661300113
96.6994849838065
96.4621548425225
96.2434721117619
96.0554256117869
95.908983838076
95.8045172634227
95.7355105635194
95.6954484444265
95.6778981643753
95.6764749780881
95.6848163515151
95.6965647366099
95.7053588166858
95.7048332055668
95.6889950513092
95.656869416212
95.6110988363038
95.5544084957721
95.4895196526797
95.4191442311788
95.3459809691687
95.2727131094358
95.2020076150287
95.1365158860052
95.0788279406858
95.0305675281055
94.992475607046
94.9652639977442
94.9496499990426
94.9463580991315
94.9561218090031
94.9796856255403
95.0178071324488
95.0712592486631
95.1407436553718
95.2241763074678
95.3161625891429
95.4110827867558
95.5032740515243
95.5870301826655
95.6566082012179
95.7062418301381
95.7301619460569
95.7226239825442
95.6780758179727
95.5960647163886
95.4826037892585
95.3441352856359
95.1870752885792
95.0177848647836
94.8425499197263
94.6675695890857
94.4989529099271
94.3427234756016
94.204817188303
94.0886570284551
93.9924604266334
93.9138245110768
93.8503834101994
93.7998000371642
93.7597591230311
93.7279614490117
93.7021192418309
93.6799527070352
93.6591876834343
93.6378804490536
93.6155225916606
93.5919996001568
93.5671972883681
93.5410018138858
93.5132997105635
93.4839779236901
93.4529238478054
93.4200253671197
93.3851708984978
93.3484015418603
93.3113981171751
93.2768358562667
93.2473965732598
93.2257565507466
93.2145902571421
93.2165755980349
93.2344007112716
93.2707723300857
93.3284257570284
93.4100399769238
93.5147205428526
93.6369534566426
93.7708868361031
93.9106132062498
94.0501582159891
94.1834768247382
94.3044571830634
94.4069324323107
94.4847006065991
94.5315857997794
94.5454432992422
94.5319621429611
94.4977716775287
94.4495160479979
94.3938298098174
94.3373228798173
94.2865747962929
94.2481381971144
94.2285514182585
94.2343597441046
94.2700923057781
94.3335167643966
94.4210232555115
94.529015489248
94.653893551858
94.7920394412473
94.9398053124162
95.0935044510809
95.2494050275407
95.4037267080745
95.5535459113298
95.6995371781773
95.8432959308291
95.9864375978314
96.1305972081182
96.2774295343576
96.4286098032864
96.5858349914539
96.7508257263758
96.9253282294698
97.1101861303087
97.3034294795616
97.5025249868567
97.7048996170473
97.9079379527347
98.1089809163004
98.305325911427
98.4942284458501
98.6729052955232
98.8386066583783
98.9916180089163
99.1365007545693
99.278191472072
99.4216855264114
99.5720365947075
99.7343612929322
99.9138490725932
100.115777586962
100.345533783036
100.606972699855
100.892164128601
101.187846646487
101.480436314696
101.756035056114
102.000456098167
102.199288947042
102.338005453782
102.402107535687
102.377766317603
102.265744832346
102.083853378415
101.850942330699
101.585723917323
101.306622167188
101.031691735658
100.778602913507
100.564689422152
100.407055866666
100.318989432506
100.292025018028
100.310027296574
100.356981919312
100.416888255325
100.473692444402
100.511271594789
100.513469551866
100.464184529164
100.347647825519
100.158227907227
99.9065951549844
99.604942344302
99.2653600675797
98.8997338853749
98.5196713649432
98.1364579275692
97.7610398618841
97.4040325857506
97.0756383700396
96.7822543414183
96.5260079645259
96.3088149573617
96.1326395728118
95.9995123040343
95.9115488196873
95.8709703523342
95.8801258069263
95.9415159071183
96.057600598938
96.2241226285375
96.4287468855045
96.6585643677825
96.9004702705227
97.1411118003197
97.3668717752979
97.563889810762
97.7181228754606
97.8154465293052
97.8426671684375
97.7986290549365
97.6909730733926
97.5277293828834
97.3170331994066
97.0670407868148
96.7858588175444
96.4814875463029
96.161777799006
95.8344014363804
95.5065978699051
95.1818042806763
94.8605602388141
94.5433161610025
94.2305101815101
93.9225686736769
93.6199068020413
93.3229291026224
93.0320300891251
92.7475948830896
92.469997706804
92.1992420754235
91.9345689155873
91.6751406159581
91.4201388645639
91.1687636876226
90.9202326440613
90.6737801671712
90.4286570454608
90.1841300352643
89.9394815980629
89.6940817359944
89.448742281617
89.2055665370629
88.9666609547204
88.734087257242
88.5098652173667
88.2959763289228
88.0943683250922
87.9069605082217
87.7356498650186
87.5823179517888
87.448745238724
87.3350913205978
87.2401645272177
87.1627639639265
87.101718653418
87.0558830533323
87.0241329531092
87.0053617225621
86.9984768892024
87.0023970254042
87.0160489300993
87.0383931550053
87.0689538867348
87.1077755193413
87.1549265812253
87.2104805878795
87.2745161703328
87.3471172122225
87.4283729959093
87.5183783580774
87.6172338552967
87.7250459400608
87.8417984021559
87.9654993079154
88.0925833860382
88.2194037232734
88.342271458471
88.4574574041553
88.5611968128238
88.6496973654765
88.7191504374839
88.7657456626135
88.7856887697236
88.7761144685768
88.7412123898476
88.688508466399
88.6255412784486
88.559818707841
88.498806979071
88.4499323665882
88.4205953978276
88.4181974378167
88.4501796849743
88.5240748390595
88.6456458262447
88.8115268925435
89.0156131339199
89.2517909485274
89.5138886148286
89.7956344669555
90.0906233120019
90.3922913896171
90.6939003539503
90.9885308893802
91.2692208726273
91.5339084224129
91.7870049769976
92.0334619120432
92.2783449713769
92.5268305057694
92.7842073826573
93.0558848989118
93.3474070561529
93.6644736165424
94.0129486489899
94.393924438519
94.7969443277354
95.2095666629343
95.6189178782551
96.0116794244179
96.3741109595325
96.692112864187
96.951330672935
97.1373030282253
97.2358085900633
97.2438336580367
97.1766802934782
97.0516144414538
96.8859800685368
96.6970248840414
96.5017880833516
96.317049386707
96.1593374421792
96.0449953590412
95.9901688562288
96.0018021837871
96.0718176484041
96.1909043085179
96.3498288744536
96.5393491927849
96.7501454707937
96.9727690499659
97.1976090268473
97.4148773693378
97.6148650638533
97.7944786776178
97.957963798251
98.1100144021271
98.2553949602544
98.398931855889
98.5455094240724
98.7000707729945
98.8676235416434
99.0532507630934
99.2607871210841
99.483585394512
99.7098802020766
99.927665007233
100.124726380082
100.288678630032
100.407029195115
100.467275372369
100.457032133707
100.364240061728
100.185791057933
99.9369427935184
99.6352695958666
99.2981484011663
98.9426095907369
98.5852488742291
98.2421972285751
97.9291450983065
97.6614170652496
97.4538126167496
97.3083531951547
97.2096660762834
97.141374373786
97.0872747591268
97.0312629023638
96.9573129223847
96.8495099719793
96.6921350042658
96.4697999648132
96.1679690700188
95.785431487113
95.3373954326962
94.8398918605037
94.3085278551801
93.7583600648839
93.2038203982982
92.6586895995864
92.1361137423675
91.6486587215146
91.2083983527173
90.8248620821329
90.4948269961403
90.2108014112784
89.965609060876
89.7523285297292
89.5642389613292
89.3947771831193
89.2375053387977
89.086088360006
88.9342807829143
88.775922740971
88.605994242577
88.423030334963
88.2263183399666
88.0151727495655
87.7889374740836
87.546988115434
87.2887342459847
87.0136216727355
86.721134665764
86.4107981293471
86.0821796938329
85.736291098782
85.3815075119765
85.0283610177783
84.6870439015252
84.3674265477334
84.0790999277133
83.8314394046187
83.6336886813618
83.4950634311847
83.4248750375702
83.4326759430569
83.5281342642417
83.7104113041557
83.9649095075772
84.2761515763544
84.6284540414735
85.0057374489893
85.3913936756042
85.7682141754348
86.1183846904939
86.4235526875496
86.6649733326893
86.8239358623026
86.8929228344961
86.8815499527224
86.8012829731418
86.6638697943467
86.4811717106968
86.2650254601213
86.0271376975159
85.7790121442567
85.5319086541504
85.2968328036916
85.0845536997814
84.9025071578031
84.7476581137821
84.6149212311039
84.4993124293538
84.395925727086
84.2999161093409
84.2064881597909
84.1108902679942
84.0084142643933
83.8944003511128
83.7642471865954
83.6136980410079
83.4427262675718
83.2545642931617
83.0524992109627
82.8397738731951
82.6195777942243
82.3950406417378
82.1692282158674
81.945140800297
81.7257137616386
81.5138202729936
81.312276043914
81.1236416689795
80.948841614844
80.7880442074234
80.6414228791739
80.5091614521576
80.3914549479403
80.2885104336363
80.2005479084487
80.1278012354034
80.0705191233575
80.0289661647959
80.0034239354141
79.9940021272412
79.9993372482779
80.0173772861874
80.0460758638087
80.0833904204242
80.1272772739242
80.1756877250524
80.2265652017977
80.2778434492584
80.3274457753425
80.3732853654639
80.4132666798964
80.4458642188892
80.4732614677612
80.4991208948553
80.52711886146
80.5609422500288
80.6042921217136
80.6608907803914
80.7344922979157
80.8288965896264
80.9479671776446
81.0956528432706
81.2760134233893
81.4922681975079
81.7441893458932
82.030803024978
82.3511855054571
82.7044535412389
83.0897551226178
83.5062605248931
83.9531535741569
84.4296230614154
84.9348542448658
85.468020388299
86.0274350065112
86.6052963095367
87.1907299215661
87.7722493094264
88.3377512976394
88.8745337482454
89.3693498573576
89.8085030023588
90.1779852275492
90.4636610297776
90.6515498054875
90.7371384669332
90.7358187635296
90.6659944504477
90.5463290000024
90.3955035323681
90.2320511460587
90.0742682590426
89.9402013861791
89.8477069144179
89.8145818389461
89.8579893742905
89.979983069233
90.1686828607032
90.4117993185197
90.6969968564836
91.0117579461699
91.3432803054642
91.6784081097933
92.003599302703
92.3049317202091
92.5681613535658
92.7830015889647
92.9497546964837
93.0705435781841
93.1476588202622
93.183535903403
93.180732581774
93.1419067822288
93.0697953351293
92.9671938046691
92.8369376414724
92.6820937419806
92.5072104892194
92.3174373940485
92.1178628430338
91.9134984211843
91.7092714517849
91.5100229614897
91.3205108350122
91.1454179281021
90.9893649340141
90.8569097647136
90.7504050486759
90.6679900300075
90.6073712302627
90.5663005690953
90.5425651760267
90.5339784159277
90.5383720600519
90.5535895520392
90.5774803332662
90.6078952044907
90.6429108999772
90.6833579771341
90.7319031114397
90.7912608037456
90.8641662727981
90.9533827932393
91.0617107631732
91.1919985768665
91.3471554044165
91.5301660121048
91.7440936967781
91.9885694030413
92.2550333117445
92.5335938293829
92.8141310412299
93.0862795593859
93.3394339769976
93.562778323414
93.7453407622637
93.8760743780036
93.9439642404263
93.9415807686876
93.876796589487
93.761821755384
93.6089382679783
93.4303858164185
93.2382798345077
93.0445616731414
92.8609800845555
92.6991028512439
92.5703573627098
92.4854262984052
92.4447040920781
92.4406380729604
92.4655630453141
92.5118627484613
92.5719282726847
92.6381290598577
92.7027964234814
92.7582196804333
92.7966550575502
92.8103779624139
92.7953696168108
92.7548102835363
92.6927349476665
92.6131912240409
92.5202224622916
92.4178543888999
92.3100852978824
92.2008797594942
92.0941657872189
91.9938353870622
91.9033260552197
91.8230590275112
91.7521653664071
91.6897821822419
91.6350561622691
91.5871420728091
91.5452014288658
91.5084013259963
91.4759134302003
91.4469131224421
91.4205799306696
91.3961753827039
91.3730931992238
91.3507405517328
91.3285258306383
91.3058585883358
91.2821495587994
91.2568107532741
91.2292556316372
91.1988993489225
91.1651590763909
91.1275319727533
91.0861263886249
91.041338419281
90.9935651442859
90.9432026489717
90.8906457853017
90.8362879676206
90.7805210030742
90.7237349564145
90.6663180488539
90.6086566061368
90.5511388918346
90.4941601656019
90.4381149688222
90.3833959250714
90.3303938414434
90.2794978434106
90.2310955428584
90.1855732389856
90.1433161518342
90.1047086882863
90.0701412999308
90.0401349877962
90.0153310756966
89.9963756199268
89.9839156966628
89.9786002927913
89.9810812921851
89.992014559524
90.0120611243948
90.0418884691122
90.0821719244805
90.1334887257925
90.195798133284
90.2688393035401
90.3523569780926
90.446101161908
90.5498265119539
90.6632917468631
90.7862590759613
90.9184936460804
91.0597630047266
91.2098349297693
91.3683863466115
91.534954180139
91.7090604794572
91.8902229644143
92.0779541837743
92.2717607180348
92.4711424275948
92.6755917473339
92.8845930290163
93.0976219182423
93.3136026263924
93.5294553919398
93.7415895686438
93.9463501244452
94.1400215977952
94.3188350201697
94.4789779097877
94.6166074140017
94.7278666392894
94.8089041580778
94.8569644832417
94.8750154541456
94.8679634919722
94.840758837247
94.7983707839736
94.7457692107311
94.6879113112622
94.6297335384398
94.5761487286906
94.5320483500501
94.5017810102962
94.4850929709769
94.4793739126323
94.4820041893128
94.4903690698257
94.5018548387427
94.5138463457379
94.5237260013851
94.5288742215562
94.5266713232167
94.5147281986114
94.494148799624
94.4687664840634
94.4424816455113
94.4191865290256
94.4027660951922
94.3971020837899
94.4060802702655
94.4336009277807
94.4835925382887
94.5598866019531
94.6618927371218
94.7837619242162
94.9193098292916
95.0622964137376
95.2064117587557
95.3452701098389
95.4724123866888
95.5813174148836
95.6654220978076
95.7182684139161
95.7378388384258
95.7278196051047
95.6923209986755
95.6354865323359
95.5614727668513
95.4744326785271
95.3785026408676
95.27779303088
95.1763824303078
95.0782890444103
94.9856572508052
94.8976039907742
94.8129753902854
94.7306266093676
94.6494211372203
94.56823036484
94.4859334299153
94.4014173290546
94.3135772924498
94.2213174718237
94.1235922599837
94.019478191827
93.9080816346558
93.7885208450866
93.6599274138523
93.5214478557997
93.3722453357165
93.211501519427
93.0384185383447
92.852221054387
92.6528366372169
92.4455088616724
92.2378888134693
92.0375074710619
91.8517671214508
91.6879596743086
91.5532964563942
91.4549491852886
91.4001020584796
91.3960152029646
91.4500230462361
91.5627033295411
91.7223432643979
91.9159353188078
92.1303454326099
92.3522330946577
92.5680089161232
92.7638312906319
92.9256440250416
93.0392566228833
93.0904681658144
93.0690071840727
92.9814731608495
92.8392450546119
92.6537876048481
92.4365321571063
92.1987859507535
91.9516698510687
91.7060838526468
91.472699196189
91.2619757386905
91.0839427519828
90.940352652096
90.8234083133668
90.7248980030993
90.6367103934164
90.5508086957633
90.4592193076092
90.3540346271649
90.2274297253952
90.0716924947696
89.8792667262926
89.6443729946028
89.3750130426729
89.086029302865
88.7919919319002
88.5071030202158
88.2452058598545
88.0198379968677
87.8443255301803
87.7319170993978
87.6959574815079
87.7501026911901
87.905515882113
88.1522780710631
88.4713070831123
88.843328846191
89.2486315956696
89.6668648180126
90.0769251857773
90.4569372873428
90.7843383808875
91.0360758678771
91.1890565484831
91.2325182056551
91.1778985762814
91.0394799408832
90.8318913751388
90.5698671408194
90.2680508734865
89.9408477848464
89.6023247971186
89.2661568810169
88.9456168789845
88.6533129146395
88.3937645809616
88.163032699666
87.9568932483115
87.7712409178901
87.6020680486595
87.4454476483951
87.2975202260482
87.1544842333575
87.0125899509678
86.8681366856058
86.7175290155964
86.5593091335172
86.3946996551319
86.2250811499931
86.0518154563953
85.8762444273923
85.6996891130345
85.5234493628331
85.3488038317955
85.1770103732527
85.009306802088
84.8469118661655
84.6907954115748
84.5412169143137
84.3983033244955
84.2621822843686
84.1329823699849
84.0108333373688
83.8958663736129
83.7882143533609
83.6880121011796
83.5953966603614
83.5105075687403
83.4334400496815
83.363571527285
83.2997238179445
83.2407137532896
83.1853667440529
83.1325155731823
83.0809995233298
83.0296638330762
82.9773594770992
82.9229432659509
82.8652782611925
82.8032345013477
82.7361731033199
82.6653900357667
82.5926551888499
82.5197266081172
82.4483500638498
82.3802593640517
82.3171773977991
82.2608178969096
82.2128879063943
82.1750909578905
82.1491309452178
82.136740916271
82.141361084427
82.169234822658
82.2269141969909
82.321044407827
82.4584172219542
82.6460363959961
82.8911963681175
83.2015760300835
83.5853500693902
84.0513212340194
84.6090779816543
85.2631865070305
85.9921777314457
86.7659010887596
87.5520782523174
88.3160390083599
89.0207109038068
89.6269116750093
90.0939896589748
90.380841445671
90.4473056841122
90.25640188964
89.8041296359589
89.1333198175489
88.2915742856823
87.3257423771632
86.280498958362
85.1974311084957
84.1145868988773
83.06641357916
82.0840053065745
81.1955870677637
80.4271765423398
79.8030847540639
79.3305903868834
78.99326306544
78.7745294362209
78.6592851133744
78.6334782978636
78.6837685726582
78.7972460097366
78.9612007292393
79.1629368571083
79.3896277695694
79.6282117879794
79.8653991843252
80.0925172066368
80.3088304725579
80.5143565160662
80.7091248271748
80.8931766888613
81.0665649873418
81.2293539968617
81.3816191402678
81.5234467267159
81.6549336679434
81.7761871746024
81.8873244342055
81.9887775199873
82.084291131863
82.1796679356082
82.280794542012
82.3936171152373
82.5241541640719
82.6785181964915
82.8629466217829
83.0838424509451
83.3478255782559
83.6617957349075
84.032957611758
84.462727156162
84.9405324830095
85.4540352788836
85.9903617247845
86.5360027752601
87.0767526861315
87.5976911531551
88.0832150912729
88.5171261154749
88.8827790201203
89.1638316303867
89.3584213361854
89.4808701364831
89.5468577782698
89.5724191884942
89.5737709214083
89.5671942331916
89.5689767120982
89.5954130655399
89.6628652273139
89.7878824149301
89.9849790678235
90.2502329953651
90.5709050813262
90.9340572384241
91.3264586585917
91.7344753357726
92.1439974000311
92.5404074394665
92.9085937073858
93.233012293484
93.4982845281214
93.7000395213289
93.8452763203831
93.941799823477
93.997652516288
94.0210375799783
94.0202549485441
94.0036513095301
93.9795846290657
93.9564034668943
93.9423960687174
93.9417635959778
93.9514373489616
93.9676018142339
93.9864402772801
94.0041310970079
94.0168470833981
94.0207579882476
94.0120361157537
93.9868650458421
93.9414519412698
93.874505598771
93.7929322823216
93.7052974050872
93.6201088532831
93.5458138188703
93.4908109514585
93.463477596466
93.4722120358856
93.5254909104372
93.6319423800212
93.7982550408163
94.0158615517072
94.269447150824
94.5434404434215
94.821944119546
95.0886905242749
95.3270517109556
95.5201071717702
95.650771897841
95.7019859895011
95.6594899862546
95.5293452870702
95.3273522435919
95.0694820518692
94.7716117248334
94.4493682583829
94.1180263466334
93.7924577138459
93.4871291099925
93.2161456975672
92.9929287514945
92.8198729090743
92.6877117421434
92.5868162100406
92.5077167546779
92.4410489844921
92.377518923068
92.307887237795
92.2229720805451
92.1136702283847
91.9709962157322
91.7897919552649
91.5783173284058
91.3477576861772
91.1091147289276
90.8731751973848
90.6505058170129
90.4514731782547
90.2862873188582
90.1650680907692
90.0979339251591
90.0949010677554
90.1566003959163
90.2705476850481
90.4233553834464
90.6015788736161
90.7916195265247
90.9796676378772
91.151686456508
91.2934389874003
91.3905591912418
91.4286685704397
91.3961623901853
91.2970535938175
91.1411400111508
90.9383348235489
90.6985483748971
90.4315990966599
90.1471462917098
89.8546444750557
89.56331846839
89.2821581423063
89.0199296974044
88.7822397793818
88.5656651423596
88.3652002986531
88.1759479752442
87.9931036093706
87.8119453505989
87.6278293023029
87.436189771272
87.2325443063175
87.0125032972044
86.7717839426249
86.5086110404142
86.2299148420924
85.9444272074985
85.6606620859492
85.3869122252395
85.1312622546386
84.9016170748133
84.7057446656918
84.5513327125325
84.4460588417947
84.3976747497117
84.4132811688853
84.4902913556337
84.6197428442816
84.7926612554909
85.0000750862676
85.232931241079
85.4820292674675
85.7379745653786
85.9911513545024
86.2317165322114
86.4496157218408
86.6350140452882
86.7848182437292
86.9018094950637
86.9890668802408
87.0497615975329
87.0871362490455
87.1044861567512
87.1051429157427
87.0924603387736
87.0698028983674
87.0405367319387
87.0079366237061
86.9735426843574
86.9373006927642
86.8990974958751
86.8588206058435
86.8163582524023
86.7715994378697
86.7244339947158
86.6747526456102
86.6224470658673
86.5674099481976
86.5096027206169
86.4511137873488
86.3965205123421
86.3505211012412
86.3177974555134
86.3030270735215
86.3109000202182
86.3461410280423
86.4135368811688
86.5179693500607
86.6644540860681
86.8580455662797
87.0976276741259
87.3732629060951
87.6741949570704
87.9894174856909
88.3076213979923
88.617169829551
88.9061028988001
89.1621744411143
89.3729227248995
89.5257765541936
89.6092771804647
89.6252200552621
89.5843612133662
89.4978179023235
89.3767871271029
89.2324461898029
89.0758812146468
88.9180436936612
88.7697344904106
88.6416144343934
88.5442406152641
88.4865328690415
88.4661346506484
88.4758921248628
88.5086981192481
88.557468943995
88.615113084115
88.6745112389698
88.7285077317774
88.7699134081072
88.7915201617916
88.7861271676301
88.7487277777813
88.6829774498209
88.5947110755196
88.4897586758725
88.3739198576132
88.2529459753262
88.132529913251
88.0183033245455
87.9158411312494
87.830673093706
87.7683020095899
87.732795744056
87.7234966542057
87.7388095757923
87.7771804173126
87.837087674087
87.917034611011
88.0155420559865
88.1311417576059
88.2623702709971
88.4077633450449
88.5658443708148
88.7340370008212
88.9074176383435
89.080692072248
89.2484835656497
89.4053358548274
89.5457228052065
89.6640649448457
89.7547530294202
89.8121786890468
89.8307720660638
89.8053518937793
89.7369566679414
89.6323425546264
89.4985119061171
89.3424526632922
89.1710988447508
88.9913020377141
88.8098137184633
88.6332780822076
88.4682349850276
88.3211325898835
88.19800517925
88.1007040850267
88.0283595869913
87.9801008733177
87.9551009490845
87.9525722837679
87.9717627634749
88.0119519140377
88.0724473649416
88.1525815274593
88.2517084633649
88.3689852836321
88.5018839378294
88.6470585155605
88.8011254768034
88.9606600457887
89.1221904377068
89.2821947213098
89.4371004144429
89.5832869160468
89.7170908754407
89.8348152204301
89.9337453952587
90.014213318201
90.0771522377596
90.1235223341479
90.1543070282723
90.1705094355855
90.173148987322
90.1632582386747
90.1418798805536
90.1100639687456
90.0688980464459
90.0204989527551
89.9681863561193
89.9153355952937
89.8653065416522
89.8214444719873
89.7870834351911
89.7655520910387
89.7601820137
89.7743184746709
89.8113337496621
89.8740289812879
89.9599068233244
90.0637253973127
90.1801970064341
90.3039926502291
90.4297300057864
90.5519677095781
90.6652061082726
90.7638946601487
90.8424461487696
90.8952722600825
90.9204106955734
90.924294031419
90.9145696457344
90.8988964551384
90.884928448805
90.8803111160822
90.8926907492899
90.9297366235545
90.9991761669555
91.1088434381419
91.2658456391803
91.4666522725849
91.7005531828946
91.956570508142
92.2235188106535
92.4899629727814
92.7442035002902
92.9742908692233
93.168070569172
93.3132601904408
93.3977470544479
93.4180527709035
93.3827480288908
93.3014656989075
93.1839286500211
93.0398647806144
92.8789422232635
92.7107249380223
92.5446484337143
92.3900150612063
92.2560082013948
92.1498046539271
92.0701348078202
92.0134749116908
91.9763561756928
91.9553488496723
91.9470489514903
91.9480676054651
91.955022924062
91.9645343952736
91.9732197594301
91.9777424743145
91.9757248599954
91.9656759744228
91.9461429342155
91.9156806427553
91.8728550027426
91.8162465594531
91.7444545568094
91.6561013834862
91.5498373809697
91.4243460055636
91.2792685633991
91.1176138172312
90.9431267604519
90.7595101628784
90.5704159649927
90.3794397190873
90.190117973453
90.0059284828541
89.8302931254561
89.6665834123762
89.5181122221466
89.3870237893899
89.2735958601692
89.1779509024573
89.1002305343988
89.0405962122272
88.9992299819809
88.9763352998154
88.9721379261849
88.9868868997116
89.0208555971483
89.0742892825364
89.1463886587225
89.2353840742485
89.3394748639246
89.4568595441897
89.5857299542254
89.7242661112673
89.8706317787516
90.0229707541728
90.1794038906038
90.3380268717375
90.4967760886094
90.6528523239806
90.8031838692298
90.9446600739127
91.074136309668
91.1884409895767
91.2843848306113
91.3587723769445
91.4084157716317
91.4301507273103
91.4209543203326
91.3815986643681
91.317678371469
91.2351133375032
91.1398095348532
91.0376388675852
90.9344266907737
90.8359468839948
90.7479243225337
90.6760445838214
90.6259707594494
90.6022860446724
90.6019264674769
90.6185436928362
90.6457915095869
90.6773197684498
90.7067639212481
90.7277434708359
90.7338693816151
90.7187604832276
90.6760688296712
90.5995450647026
90.4883092120219
90.3526718079352
90.2042840427022
90.0546662989247
89.9151908394832
89.7970935734851
89.7115139986047
89.6695626942759
89.6824163045768
89.7614408003712
89.9175991171398
90.1474122923598
90.4338228196813
90.7590621757428
91.1049677522122
91.4528582644996
91.7834823230023
92.0770458296977
92.3133241396976
92.4718637350681
92.532300573715
92.4848334597781
92.34587767499
92.1362065704574
91.8766221079408
91.5876875918517
91.2895547230579
91.0018825822086
90.7438438221334
90.5342127105524
90.3915305516763
90.3335569950108
90.3626171554302
90.4669812254643
90.6346838161007
90.853880863867
91.1126964137335
91.399100278872
91.7008162249127
92.0052615237791
92.2995195918851
92.5703584793577
92.8085119952386
93.0153573296478
93.1940491815939
93.3478512073961
93.4801172845671
93.5942747511675
93.6938098452695
93.7822555236092
93.8631817983716
93.9401886974907
94.0164806171372
94.0932462025429
94.171067076653
94.2505286254932
94.3322202980556
94.416735855904
94.5046736985841
94.5966372664448
94.6932355226814
94.7950835166527
94.902498762594
95.0136375926111
95.1257006842285
95.2358587013899
95.3412562437263
95.439013771184
95.5262312727044
95.5999937098884
95.6573782550819
95.695463327183
95.711862902044
95.7083254067269
95.688565655146
95.6563231067
95.6153391818841
95.5693489829226
95.5220759425993
95.4772293899903
95.4385050090825
95.4095881630593
95.3938410306664
95.3915442606322
95.4012586429551
95.4215345136619
95.4509274405903
95.4879952357849
95.5312954080655
95.5793830514022
95.6308091676952
95.6841194249705
95.7377603527218
95.7891671778717
95.8351509136544
95.8725029274663
95.8980083514567
95.9084529282298
95.9006320087672
95.8713616730819
95.8174919160085
95.735921806942
95.6242639848745
95.4880040458948
95.337766135073
95.184155485627
95.0376463283309
94.9085864444235
94.8072243669677
94.7437586604269
94.7284090585894
94.7715097885152
94.8830017382275
95.0606854665281
95.2910282356366
95.5599999479786
95.8533632785742
96.1565766497811
96.4547394619103
96.73258203507
96.9745031624352
97.1646580210704
97.2883046152708
97.3453758192487
97.3457531162437
97.2997151832742
97.2176562664149
97.1099985182017
96.9871263763401
96.8593433051417
96.7368507337504
96.6297487388131
96.5472403089182
96.4905936312322
96.4566832410186
96.4423786120261
96.444579519236
96.4602044377492
96.4861809737756
96.5194382803612
96.5569014335944
96.5954877627423
96.6323817294959
96.6669327207657
96.6995157371565
96.7305131587677
96.7603085381615
96.7892864904424
96.8178326136359
96.8463334395941
96.8751764156369
96.9047499171223
96.9355814897462
96.9690076782793
97.0066615588043
97.0501825486453
97.101217712755
97.1614240366753
97.2324712737737
97.3160453808114
97.4138525604837
97.5276239012903
97.6579025569296
97.8008027751936
97.9513883227927
98.1046669050697
98.2555846407865
98.399025664807
98.5298170234406
98.64273901826
98.7325411214134
98.794011453874
98.8253172007264
98.8301833872209
98.8128937815891
98.7777601585512
98.7291048795584
98.6712472107314
98.6084934227559
98.5451306737827
98.4854246470491
98.4334441795596
98.3901653455386
98.3539523012085
98.3230945709897
98.2958881223077
98.270633802802
98.2456363693946
98.2192041047081
98.1896490173025
98.1552876223471
98.1146204018226
98.067552091622
98.0146494813837
97.9564830904643
97.89362261747
97.8266363696787
97.756090759509
97.6825498679005
97.6065750742453
97.528724752313
97.4491603038896
97.36614501277
97.2773839262076
97.1806004114911
97.0735394650719
96.9539719326822
96.8196997216747
96.668561961056
96.4984420541369
96.3072755567651
96.0941744212747
95.8631762258277
95.6196005495447
95.3686758865016
95.1155294281385
94.865182603541
94.6225520562457
94.392455768769
94.1796240643736
93.9887152549694
93.8236813962636
93.6827760168289
93.5613938247108
93.4549801127089
93.3590382500301
93.2691173754871
93.1808044545907
93.0897205834107
92.9915214458026
92.8819018374327
92.7566916757965
92.6150494204069
92.4603259684127
92.2961125646764
92.1259583386796
91.95336461858
91.7817819826089
91.6146099531695
91.4551992344878
91.3068563983572
91.1728509338267
91.0557728179777
90.9544036151332
90.8661799926065
90.7885689938458
90.719063316655
90.6551761302069
90.5944372939696
90.5343909470721
90.4725944438446
90.4066186153071
90.3340618929678
90.2540570308074
90.1686861837557
90.0803555640395
89.9914537205287
89.9043506464765
89.8213981458504
89.7449314331888
89.677271944169
89.6207313389714
89.5776166879971
89.550161665722
89.5391102442931
89.5438412645346
89.5636987870215
89.5980414949148
89.6462405554529
89.7076776018611
89.781742826314
89.8678331758465
89.9653506442664
90.0737006541879
90.1925940720944
90.3235234107292
90.4686522629455
90.6301841156753
90.810368916216
91.0115117424263
91.2359827851092
91.4862287543398
91.7647858462215
92.0742944358701
92.4173863690935
92.7933393505229
93.1976428401405
93.6254745797396
94.0718575962523
94.5316348779174
94.9994489872657
95.4697271200273
95.936672213186
96.3942607757322
96.8361652523553
97.2541794908985
97.6383065506969
97.9782515382473
98.2635558698787
98.4836980911877
98.6282174738678
98.6868591912219
98.6497387102133
98.5075217500941
98.2541208110488
97.9038424170374
97.4803945988616
97.0071749736228
96.5069336027753
96.0016047200727
95.5122445263213
95.0590654500961
94.6615571720686
94.338686269025
94.1079247749406
93.967815782349
93.9025571041339
93.8964455706086
93.9340538639111
94.0000612682256
94.0791357107102
94.1558658927024
94.214743589467
94.2401967851773
94.2168364456243
94.1354982168483
93.9950068652174
93.7949249227056
93.5350530632226
93.2154349634301
92.8363597642652
92.398362059326
91.9022193821786
91.3489472118965
90.7397915633286
90.0771393614797
89.3699593013712
88.6296539314405
87.867079300057
87.0924803332059
86.3154649072304
85.5450015995728
84.7894375442706
84.056532999039
83.3535095626349
82.6871094140858
82.0636624135075
81.4884296039519
80.9644560205742
80.4943995279957
80.0809327026415
79.7267891218455
79.4348117171944
79.2080039532869
79.0495847715669
78.96304844983
78.9522307840169
79.0213833161647
79.1752577319588
79.4155045494112
79.7294467130556
80.1006746736671
80.5124262761208
80.9473701607307
81.3874575975844
81.8138491471747
82.2069247249678
82.5463864114279
82.8114623756038
82.9812172524239
83.0355065812601
82.9718400284878
82.8085362680624
82.565571434225
82.2630141344508
81.9206960574877
81.5579808282064
81.1936291736981
80.8457548678276
80.5318642565517
80.2689722212225
80.0737889615186
79.962524892899
79.9375127544749
79.9849429968895
80.0904306283845
80.2397376988266
80.4185900997598
80.6125450394873
80.8069091244351
80.986708601619
81.1367141803149
81.2415229045938
81.2856987241313
81.2540519069423
81.1414951178022
80.9621803277667
80.7325354808813
80.4688632610354
80.1871751881054
79.9030919601169
79.6318071620671
79.3881103752272
79.1864656566548
79.0411421991214
78.9663956259569
78.9766967556153
79.0806415068733
79.2681353920515
79.5257802607985
79.8402358813846
80.197998496806
80.5852230488379
80.9875895638767
81.3902164849923
81.7776254273385
82.133762847809
82.442084318529
82.6860972945113
82.8597048531348
82.9684943288922
83.0190172202947
83.0181248429296
82.9728773759108
82.8904625660922
82.7781255828342
82.6431109899477
82.4926173421324
82.3337645371701
82.1735737709721
82.0185000127866
81.8713049511571
81.7330204540826
81.6046589643446
81.48722607861
81.3817232320009
81.2891506202469
81.2105103641258
81.1468099240921
81.0990657764794
81.0683073664614
81.0555813571264
81.0620439797493
81.0893024018058
81.1391264696854
81.2133304551012
81.3137834274509
81.4424207360404
81.6012567039928
81.7923986883303
82.0180626918789
82.2805907493193
82.5824703531237
82.9262731125827
83.3100831193923
83.724886650364
84.1607697420684
84.6074237836298
85.0541004781241
85.4895923401345
85.9022417002228
86.2799813006921
86.6104093390828
86.880901184852
87.0788741651453
87.1999600989482
87.2534363652451
87.2502070302526
87.2014254594774
87.1183638666369
87.0123106257811
86.894496573311
86.7760505758143
86.6679840008134
86.5812034058014
86.526521887516
86.509881167456
86.5269794062029
86.5722779746331
86.6402780790091
86.7254882537211
86.8223988737376
86.9254636082591
87.0290878549494
87.1276242751339
87.2153755940749
87.2866171573706
87.3376865229523
87.3693450769902
87.382945736228
87.3798667212602
87.3615060652499
87.3292765062657
87.2846007924608
87.2289074229059
87.1636268409124
87.0901880912318
87.0100157853528
86.9244873668551
86.8348786190357
86.7424432914283
86.6484253625259
86.5540584365429
86.4605654967896
86.3691590079224
86.2810413592807
86.1974056418719
86.1194367523138
86.0483128232142
85.9853882280736
85.9326729056259
85.892323155082
85.8664965909141
85.8573589369133
85.8670919303423
85.8979023751614
85.9520324016515
86.0317710110674
86.1394670086295
86.2775434567936
86.4472535631427
86.6432165262596
86.8577735468567
87.0831397771917
87.3113782401128
87.5343863177852
87.7438969364815
87.9314952385657
88.088651468991
88.2067706106271
88.2772590513598
88.2944550341822
88.2632313394238
88.1909724100772
88.0851439817803
87.9532304921009
87.8026850102126
87.6408919353262
87.4751424031565
87.3126221220383
87.1604112333433
87.0254957507082
86.9131831272833
86.8223398202169
86.7502724679223
86.6943316913341
86.6519014812551
86.6203902786946
86.5972236782711
86.5798387055228
86.5656796354311
86.5521953318723
86.5368380962374
86.5179146687198
86.4982473231535
86.4821439281462
86.4739074766295
86.4778408351251
86.4982567201442
86.5394919924772
86.6059263532377
86.7020055953766
86.8322696545079
87.0013858155612
87.2124027274768
87.458055280585
87.7271834780348
88.008390260045
88.2899980911028
88.5600301736893
88.8062234393778
89.0160753431914
89.1769261609819
89.2760777457738
89.3009566999498
89.2452214595614
89.1192997658473
88.9366535454851
88.7107844158502
88.4550849692659
88.1827313147477
87.9066163646727
87.6393222722177
87.3931298598741
87.1800627908328
87.0119624442947
86.8972334887617
86.8341939197771
86.8194417916124
86.8497481769038
86.9220225221251
87.033281392607
87.1806201258916
87.3611870112525
87.5721596980246
87.8107236090757
88.0740488295595
88.3584270269379
88.6581063419779
88.9669120070602
89.2785004107727
89.5863490731426
89.8837558455032
90.1638480166338
90.4196019892541
90.6438741066958
90.8294430515318
90.9696438872394
91.0657469524911
91.1248601049243
91.1543581430018
91.1617039219073
91.1544059567098
91.1399881284287
91.125971730266
91.1198699247745
91.1291946013756
91.1614742831653
91.2221538459942
91.3102851151009
91.4237408546753
91.5604163026261
91.7182176713836
91.8950516529083
92.0888158803009
92.2973903180701
92.51862957084
92.7503561162742
92.9902016532043
93.2344146571022
93.4784731442429
93.717754253239
93.9475417186294
94.1630324482317
94.3593480613679
94.5315515771285
94.6746693822428
94.7837185246966
94.8542465124512
94.8887536992809
94.8948011449662
94.8801249784276
94.8524869220334
94.8196467655033
94.7893475249093
94.7693132785664
94.7672596132591
94.7909166426122
94.8477452080032
94.9379400493999
95.0543867604159
95.1896306993268
95.3361603076856
95.4863829769238
95.6326127657696
95.7670703107786
95.8818953156767
95.9691719647731
96.0213113803122
96.0386716807035
96.0295983618336
96.0028286776762
95.9671080019442
95.931165586379
95.9037062328139
95.8934178017648
95.9089944771618
95.959175824083
96.0524328920638
96.1888922273974
96.3602538667725
96.5578128202367
96.7727710637976
96.9961967722712
97.2189994901105
97.4319218892028
97.6255488974414
97.7903349842258
97.9173947231755
98.005873802598
98.059918019458
98.0838413140733
98.0820275114418
98.0589053238352
98.0189271269412
97.9665516723347
97.9062308265359
97.8424003688761
97.7789428380353
97.7166181165661
97.6550606128559
97.5939050674443
97.5327880594661
97.4713479873714
97.4092250765873
97.3460614137652
97.2815010072534
97.2151898734177
97.1473155578548
97.0802193744023
97.0167677586396
96.9598126982786
96.9121947407392
96.8767476602106
96.8563047765858
96.8537069321862
96.871812149812
96.9135058798702
96.9799108739684
97.0667218225807
97.1685988811556
97.2801747048691
97.3960406033873
97.5107386139029
97.6187596132568
97.714547613475
97.7925103798859
97.847069573771
97.8756496357814
97.8810555032674
97.8666817571016
97.8359459429219
97.7922759735637
97.7390998961601
97.6798380584036
97.6178976819544
97.556669831523
97.4994518779502
97.4471093903799
97.3976628260204
97.3489785727148
97.2989317213981
97.2454061852347
97.1862957405915
97.1195059785796
97.0429571532025
96.9545879078451
96.8525398181552
96.7385621231582
96.6176902756961
96.495037594542
96.3756669393715
96.2645916443014
96.1667816887124
96.0871749864454
96.0306937128732
96.0022656493617
96.0065454166953
96.0421579226695
96.1021649691267
96.1794283297386
96.2667882905386
96.3570431526761
96.4429394006976
96.5171727032395
96.5723999412922
96.6012624182702
96.5968087205804
96.5581035814366
96.4889383958131
96.3932696760571
96.2750715088435
96.1383156179691
95.9869547017086
95.8249090790627
95.6560566277222
95.4842259566683
95.3131227526074
95.1450092400603
94.9808384934737
94.8215033752185
94.6678856682155
94.5208571232156
94.3812806589206
94.2500117115179
94.1278997312054
94.0157898243958
93.9145077893419
93.8237070606775
93.7411332056089
93.6643751318617
93.5910402129753
93.5187519000128
93.4451485566339
93.367883496191
93.2846262007812
93.1930647009325
93.0909090909091
92.9764284487298
92.8500416824345
92.7127024894914
92.5653623163236
92.4089682997018
92.2444614084108
92.0727747855017
91.8948322899671
91.7115472353697
91.5238213218398
91.3325913861825
91.1398711115481
90.948727382509
90.7622230421653
90.5833714228238
90.4151406982239
90.2604601503932
90.1222282884092
90.0033227764639
89.9066121534051
89.8349693553247
89.7905526712707
89.7703453400753
89.7691227851609
89.781681070692
89.802826931999
89.8273648251055
89.8500899884136
89.8657875235404
89.8692375214125
89.8552262494792
89.8185658852816
89.7559317068343
89.6690679327294
89.5606026506593
89.4331732891415
89.2894149217821
89.1319501258193
88.9633804155737
88.7862792485783
88.6031865832625
88.4166049521527
88.2289970035589
88.0427844574772
87.8603484177487
87.684030982125
87.5161380945452
87.3589435893895
87.2146943855135
87.0856167983147
86.9739239508108
86.8818242796656
86.8115311493035
86.7652736068178
