Value(μV)
38.7203598022461
41.1046180725098
46.2546157836914
48.6388740539551
44.251838684082
43.1073951721191
41.0092468261719
33.761100769043
28.8972129821777
28.8018417358398
33.3796195983887
42.8212814331055
48.8296127319336
47.4944305419922
50.7370223999023
56.5546112060547
51.3092422485352
43.2981338500977
43.5842437744141
43.3935050964355
45.9685020446777
55.0286865234375
63.2305335998535
71.3370132446289
76.3916397094727
80.3018264770508
81.16015625
74.5796051025391
70.2879409790039
66.3777542114258
63.5166473388672
64.1842422485352
63.4212760925293
67.8083114624023
73.2444229125977
73.1490478515625
76.1055297851563
74.8657150268555
68.3805313110352
65.6147918701172
62.0860900878906
60.9416465759277
67.6175689697266
69.9064559936523
68.9527587890625
71.8138656616211
74.8657150268555
81.16015625
76.0101623535156
60.5601654052734
62.3722038269043
72.0999755859375
74.0073852539063
76.7731246948242
82.1138610839844
83.1629333496094
78.012939453125
74.2934951782227
67.8083114624023
52.6444282531738
43.3935050964355
40.4370231628418
35.0009155273438
30.2323970794678
30.0416564941406
35.382396697998
39.9601707458496
37.0036926269531
33.6657295227051
27.3712882995605
12.0166625976563
2.8611102104187
0.572222054004669
2.09814739227295
13.4472179412842
17.1666603088379
9.06018257141113
6.1037015914917
4.95925760269165
-5.81759071350098
-18.3111057281494
-24.6055469512939
-28.8972129821777
-30.995361328125
-30.8999900817871
-32.9027671813965
-35.0009155273438
-39.864803314209
-51.7860946655273
-58.8434982299805
-59.701831817627
-62.4675712585449
-58.8434982299805
-54.0749816894531
-54.8379440307617
-55.9823913574219
-58.652759552002
-56.4592399597168
-53.8842430114746
-63.2305335998535
-72.5768280029297
-72.0999755859375
-71.7184982299805
-78.2990493774414
-81.0647888183594
-76.3916397094727
-77.5360870361328
-84.9749755859375
-86.5009002685547
-83.7351608276367
-78.1083068847656
-73.1490478515625
-79.06201171875
-83.1629333496094
-79.6342315673828
-83.2583084106445
-87.0731201171875
-83.3536758422852
-74.1027526855469
-68.0944213867188
-72.0046081542969
-72.9583129882813
-66.7592391967773
-69.1434936523438
-79.3481216430664
-81.6370086669922
-77.2499771118164
-75.8194198608398
-68.1897964477539
-57.8897972106934
-58.4620170593262
-58.0805358886719
-48.734245300293
-48.6388740539551
-57.5083160400391
-51.3092422485352
-41.962947845459
-48.6388740539551
-54.6472053527832
-55.6962776184082
-55.5055389404297
-46.4453544616699
-39.3879508972168
-42.7259140014648
-39.864803314209
-31.5675830841064
-30.6138782501221
-37.099063873291
-42.630542755127
-34.5240631103516
-28.4203605651855
-31.6629524230957
-26.9898052215576
-21.6490669250488
-21.5536975860596
-24.891658782959
-28.4203605651855
-29.5648059844971
-34.7148017883301
-35.0962867736816
-23.6518440246582
-15.9268465042114
-13.5425882339478
-7.24814605712891
-3.43333220481873
-4.67314672470093
-4.57777643203735
-3.8148136138916
-5.1499981880188
-3.43333220481873
3.24259161949158
2.09814739227295
-9.34629344940186
-15.5453653335571
-13.0657367706299
-11.5398111343384
-11.5398111343384
-12.7796258926392
-14.4009208679199
-7.43888664245605
0.858333051204681
-0.381481349468231
-3.43333220481873
-8.0111083984375
-10.5861072540283
-6.58055353164673
-7.6296272277832
-10.3953666687012
-4.38703584671021
0.762962698936462
4.1962947845459
8.58333015441895
6.38981294631958
1.23981440067291
7.6296272277832
19.2648086547852
20.6953639984131
17.5481433868408
12.6842555999756
8.86944198608398
12.4935140609741
15.6407356262207
18.787956237793
26.226842880249
26.6083240509033
25.5592517852783
31.2814712524414
26.4175834655762
14.4009208679199
14.8777732849121
18.8833274841309
20.5046234130859
20.0277709960938
15.5453653335571
15.7361059188843
16.8805503845215
14.8777732849121
20.3138828277588
23.1749935150146
17.5481433868408
16.6898097991943
16.4036979675293
18.6925868988037
22.7935104370117
17.8342533111572
16.9759197235107
25.5592517852783
32.04443359375
32.6166572570801
25.2731399536133
20.7907333374023
26.0361022949219
32.6166572570801
42.5351715087891
48.6388740539551
45.7777633666992
43.5842437744141
43.679615020752
43.3935050964355
39.7694320678711
38.148136138916
40.7231369018555
45.0148010253906
48.8296127319336
44.5379486083984
34.3333206176758
28.8018417358398
30.3277683258057
29.9462871551514
22.8888816833496
20.6953639984131
27.7527694702148
29.278694152832
21.7444381713867
18.5018463134766
19.074068069458
16.4036979675293
18.3111057281494
15.5453653335571
16.8805503845215
23.3657341003418
19.074068069458
11.3490705490112
19.360179901123
35.2870254516602
46.8268356323242
57.5083160400391
59.9879455566406
47.017578125
39.864803314209
45.9685020446777
46.2546157836914
37.2898025512695
30.995361328125
32.2351760864258
34.4286918640137
30.70924949646
19.5509204864502
15.35462474823
16.4990692138672
12.0166625976563
14.1148099899292
20.8861045837402
18.3111057281494
10.1092557907104
0
-12.302773475647
-16.30832862854
-15.0685138702393
-16.30832862854
-15.7361059188843
-14.3055505752563
-10.204626083374
-3.5287024974823
-1.04907369613647
-2.95648050308228
-7.72499752044678
-10.204626083374
-6.00833129882813
-3.91018390655518
-4.10092449188232
-4.57777643203735
-10.6814785003662
-13.1611070632935
-11.0629596710205
-9.34629344940186
-10.5861072540283
-15.0685138702393
-11.0629596710205
-7.24814605712891
-11.4444408416748
-14.5916624069214
-18.6925868988037
-16.4036979675293
-9.537034034729
-6.86666440963745
-2.67036962509155
-1.04907369613647
-4.29166507720947
-6.19907188415527
-10.1092557907104
-23.8425846099854
-55.887020111084
-94.7981185913086
-116.924034118652
-132.087921142578
-170.331420898438
-223.261962890625
-263.317504882813
-286.492492675781
-293.645263671875
-271.137878417969
-164.323089599609
19.6462898254395
180.440689086914
307.187866210938
404.560974121094
491.634094238281
622.291442871094
747.226623535156
814.939575195313
798.345092773438
704.023864746094
545.518371582031
325.689697265625
224.787887573242
291.070281982422
253.398986816406
78.6805267333984
-43.1073951721191
-101.092559814453
-135.711990356445
-154.404586791992
-175.099945068359
-202.471237182617
-240.142517089844
-287.255462646484
-322.82861328125
-328.169342041016
-311.479522705078
-292.119354248047
-281.437866210938
-269.421203613281
-252.1591796875
-239.856399536133
-242.908248901367
-254.924911499023
-255.687881469727
-250.251770019531
-247.390655517578
-230.891586303711
-200.659194946289
-174.527725219727
-159.840682983398
-147.824020385742
-139.908294677734
-144.390701293945
-152.687911987305
-151.066619873047
-144.009216308594
-138.76383972168
-125.125885009766
-109.771263122559
-104.62126159668
-92.4138565063477
-74.2934951782227
-65.9009017944336
-66.6638641357422
-69.0481262207031
-66.7592391967773
-59.6064605712891
-49.783317565918
-36.9083213806152
-18.6925868988037
-7.43888664245605
-11.3490705490112
-14.3055505752563
-13.8286991119385
-17.4527721405029
-9.44166374206543
3.43333220481873
1.43055510520935
-2.38425850868225
2.38425850868225
9.06018257141113
12.4935140609741
15.1638841629028
20.0277709960938
20.9814739227295
23.9379558563232
31.9490642547607
32.9981384277344
25.8453617095947
18.4064750671387
18.1203651428223
30.6138782501221
39.2925796508789
39.2925796508789
48.3527641296387
58.652759552002
61.4184989929199
62.9444236755371
55.1240577697754
46.0638732910156
52.5490570068359
57.5083160400391
57.2222023010254
64.9472045898438
68.2851638793945
62.3722038269043
60.7509078979492
54.8379440307617
39.864803314209
36.1453590393066
39.3879508972168
37.099063873291
34.4286918640137
35.0009155273438
39.6740608215332
40.5323944091797
38.148136138916
38.5296173095703
41.1999855041504
46.8268356323242
51.404613494873
50.832389831543
44.8240585327148
42.0583190917969
43.7749862670898
43.4888763427734
46.6360969543457
44.7286911010742
38.9110984802246
48.066650390625
54.6472053527832
43.0120239257813
44.1564674377441
58.7481307983398
58.9388694763184
56.8407211303711
67.9990539550781
76.3916397094727
76.3916397094727
79.6342315673828
79.5388641357422
72.1953506469727
71.6231231689453
72.1953506469727
66.7592391967773
65.6147918701172
67.3314590454102
69.0481262207031
76.8684921264648
72.6721954345703
70.2879409790039
68.8573837280273
72.1953506469727
69.0481262207031
66.5684967041016
72.9583129882813
70.0018310546875
65.9962768554688
73.1490478515625
73.1490478515625
69.8110885620117
71.6231231689453
68.7620162963867
66.1870193481445
73.4351654052734
82.0184936523438
81.2555313110352
78.7759017944336
84.0212707519531
83.2583084106445
73.1490478515625
62.4675712585449
54.7425765991211
57.7944259643555
61.6092376708984
53.6935005187988
42.1536903381348
35.5731353759766
33.3796195983887
28.4203605651855
21.2675857543945
16.022216796875
9.34629344940186
5.24536848068237
3.05185079574585
-3.62407302856445
-5.24536848068237
0
1.04907369613647
-6.6759238243103
-19.8370304107666
-26.6083240509033
-26.5129547119141
-24.1286964416504
-21.6490669250488
-20.6953639984131
-22.0305480957031
-29.1833248138428
-32.9027671813965
-31.1861019134521
-28.3249912261963
-28.5157318115234
-38.2435073852539
-42.3444290161133
-40.0555419921875
-43.2027626037598
-44.1564674377441
-49.8786888122559
-59.4157218933105
-59.5110931396484
-60.6555366516113
-62.0860900878906
-63.039794921875
-66.6638641357422
-63.9934997558594
-61.1323890686035
-63.7073860168457
-67.5222015380859
-71.8138656616211
-71.5277557373047
-68.4759063720703
-69.0481262207031
-69.9064559936523
-71.6231231689453
-73.8166427612305
-70.0018310546875
-67.9990539550781
-67.8083114624023
-64.0888671875
-68.7620162963867
-74.2934951782227
-76.1055297851563
-84.6888580322266
-91.4601593017578
-90.9833068847656
-84.6888580322266
-78.4897918701172
-75.0564575195313
-66.4731292724609
-63.039794921875
-70.2879409790039
-70.4786834716797
-66.0916442871094
-70.0018310546875
-67.7129440307617
-56.4592399597168
-56.1731300354004
-63.8027572631836
-66.1870193481445
-65.6147918701172
-60.9416465759277
-52.8351669311523
-48.9249839782715
-45.300910949707
-41.962947845459
-42.8212814331055
-42.630542755127
-38.9110984802246
-37.2898025512695
-38.148136138916
-36.0499877929688
-36.2407302856445
-36.9083213806152
-30.4231376647949
-25.0823993682861
-24.3194370269775
-22.8888816833496
-21.1722145080566
-23.8425846099854
-23.9379558563232
-21.3629570007324
-29.278694152832
-32.1398048400879
-19.8370304107666
-12.0166625976563
-8.86944198608398
-6.1037015914917
-14.4009208679199
-21.9351787567139
-14.2101802825928
-4.10092449188232
-2.95648050308228
-2.47962880134583
-0.381481349468231
-3.24259161949158
-4.10092449188232
1.14444410800934
0.381481349468231
-6.58055353164673
-7.6296272277832
-2.38425850868225
5.34073925018311
13.5425882339478
12.7796258926392
7.91573810577393
10.1092557907104
12.2074031829834
13.0657367706299
12.588885307312
8.20184898376465
7.34351634979248
8.86944198608398
11.635181427002
20.3138828277588
20.1231422424316
12.4935140609741
12.9703664779663
15.7361059188843
13.6379585266113
11.5398111343384
13.9240694046021
17.6435127258301
21.839807510376
20.5046234130859
12.8749961853027
11.1583299636841
15.35462474823
18.787956237793
21.5536975860596
22.6981410980225
21.3629570007324
18.2157344818115
14.4962921142578
11.5398111343384
12.2074031829834
19.9324016571045
24.7962875366211
20.6953639984131
18.1203651428223
18.9786968231201
16.4036979675293
17.6435127258301
25.177770614624
26.7036952972412
26.226842880249
32.8073959350586
32.04443359375
24.3194370269775
23.3657341003418
24.3194370269775
23.5564746856689
23.6518440246582
26.6083240509033
33.0935096740723
30.6138782501221
29.5648059844971
36.6222114562988
33.1888771057129
27.4666576385498
27.0851764678955
24.2240657806396
22.6027698516846
23.5564746856689
26.1314735412598
28.5157318115234
24.2240657806396
16.1175880432129
15.0685138702393
20.2185115814209
24.9870281219482
29.5648059844971
28.8972129821777
21.9351787567139
19.074068069458
26.7990646362305
32.1398048400879
24.9870281219482
23.5564746856689
28.8972129821777
22.6027698516846
12.4935140609741
11.7305517196655
18.5018463134766
22.6027698516846
17.9296245574951
13.256477355957
12.588885307312
20.0277709960938
34.7148017883301
37.7666549682617
34.1425819396973
38.0527648925781
43.1073951721191
45.0148010253906
37.5759124755859
25.8453617095947
21.839807510376
19.360179901123
12.0166625976563
4.38703584671021
-2.47962880134583
-3.71944332122803
-1.62129580974579
-5.53147983551025
-4.86388731002808
-0.0953703373670578
-4.38703584671021
-13.3518476486206
-17.2620315551758
-15.9268465042114
-13.7333288192749
-13.7333288192749
-19.5509204864502
-24.0333251953125
-18.9786968231201
-17.9296245574951
-20.0277709960938
-15.6407356262207
-10.5861072540283
-8.10647869110107
-10.0138854980469
-9.82314491271973
-4.29166507720947
-1.23981440067291
-0.762962698936462
-1.52592539787292
-5.43610954284668
-8.0111083984375
-4.38703584671021
1.23981440067291
4.00555419921875
8.86944198608398
8.0111083984375
-4.48240613937378
-10.5861072540283
-8.3925895690918
-2.38425850868225
7.82036781311035
10.3953666687012
9.72777462005615
16.6898097991943
20.2185115814209
16.30832862854
13.6379585266113
2.1935179233551
-29.0879535675049
-68.2851638793945
-99.0897827148438
-123.027740478516
-156.884216308594
-213.534194946289
-261.696197509766
-282.10546875
-296.411010742188
-269.516571044922
-157.074951171875
14.7824029922485
181.489761352539
323.877685546875
447.477630615234
550.668334960938
697.443298339844
857.665466308594
916.69970703125
870.826599121094
760.578430175781
589.102600097656
348.101745605469
174.146240234375
197.225860595703
220.400848388672
80.3018264770508
-75.9147872924805
-152.306427001953
-189.882339477539
-210.863815307617
-215.72770690918
-224.883255004883
-262.64990234375
-308.618408203125
-339.232299804688
-358.973968505859
-368.606353759766
-366.126739501953
-345.335998535156
-304.422119140625
-270.756408691406
-255.401763916016
-251.014739990234
-258.548980712891
-267.799926757813
-271.519348144531
-275.238800048828
-270.374908447266
-246.150848388672
-215.441604614258
-193.411056518555
-173.287902832031
-155.262908935547
-151.257354736328
-157.361053466797
-161.652725219727
-162.701797485352
-164.323089599609
-158.314758300781
-138.286987304688
-112.441627502441
-88.2175674438477
-70.0018310546875
-60.9416465759277
-58.3666496276855
-60.0833129882813
-63.8027572631836
-66.0916442871094
-59.701831817627
-41.6768379211426
-23.6518440246582
-8.58333015441895
6.38981294631958
13.256477355957
12.3981437683105
10.9675893783569
5.05462789535522
2.67036962509155
14.687032699585
25.7499923706055
29.7555465698242
34.1425819396973
40.4370231628418
46.3499870300293
45.3962821960449
41.2953567504883
34.4286918640137
32.04443359375
37.4805450439453
36.5268402099609
44.5379486083984
63.6120147705078
70.9555358886719
66.3777542114258
61.1323890686035
63.039794921875
66.854606628418
66.5684967041016
59.701831817627
58.2712783813477
64.4703521728516
61.1323890686035
56.2685012817383
58.7481307983398
63.6120147705078
68.5712738037109
70.2879409790039
68.5712738037109
66.0916442871094
64.0888671875
62.6583137512207
59.7972030639648
58.1759071350098
56.5546112060547
56.5546112060547
59.7972030639648
62.5629425048828
60.9416465759277
55.1240577697754
47.3036880493164
37.9573936462402
33.4749908447266
35.0009155273438
32.8073959350586
32.04443359375
37.1944313049316
41.5814666748047
48.4481315612793
51.9768333435059
47.6851692199707
47.8759117126465
46.8268356323242
45.9685020446777
51.7860946655273
50.355541229248
49.0203552246094
58.652759552002
61.7999801635742
62.1814613342285
68.4759063720703
70.8601608276367
67.9990539550781
63.8027572631836
61.1323890686035
58.4620170593262
60.6555366516113
70.0018310546875
80.0157165527344
86.5009002685547
85.5471954345703
80.3018264770508
76.0101623535156
71.2416458129883
65.6147918701172
65.6147918701172
68.3805313110352
73.9120101928711
86.5009002685547
90.3157119750977
87.2638626098633
89.8388595581055
88.5036773681641
78.8712692260742
68.1897964477539
61.6092376708984
61.7046089172363
65.137939453125
71.7184982299805
81.9231185913086
81.827751159668
76.9638671875
76.1055297851563
63.7073860168457
51.9768333435059
51.1185035705566
46.8268356323242
44.8240585327148
45.8731346130371
46.9222068786621
49.5925750732422
46.1592445373535
39.4833221435547
30.8046188354492
21.839807510376
18.8833274841309
15.8314762115479
15.2592544555664
13.8286991119385
6.29444265365601
2.67036962509155
1.62129580974579
-0.381481349468231
-4.48240613937378
-7.6296272277832
-7.91573810577393
-13.0657367706299
-23.8425846099854
-30.8046188354492
-26.1314735412598
-16.4990692138672
-10.8722190856934
-13.6379585266113
-21.2675857543945
-29.278694152832
-36.8129501342773
-41.962947845459
-45.8731346130371
-48.5435028076172
-49.6879463195801
-55.887020111084
-62.7536849975586
-70.4786834716797
-77.1546020507813
-74.9610900878906
-75.0564575195313
-80.8740463256836
-80.111083984375
-75.0564575195313
-80.111083984375
-87.2638626098633
-76.296272277832
-63.2305335998535
-65.805534362793
-71.6231231689453
-75.0564575195313
-78.2036819458008
-82.9721984863281
-91.9370040893555
-94.5120086669922
-87.0731201171875
-80.9694213867188
-85.7379379272461
-87.3592300415039
-75.4379425048828
-72.5768280029297
-77.0592346191406
-69.2388687133789
-63.6120147705078
-69.6203460693359
-77.0592346191406
-82.5907135009766
-89.2666397094727
-87.6453399658203
-76.296272277832
-77.1546020507813
-86.1194152832031
-87.3592300415039
-88.0268249511719
-86.5009002685547
-83.925895690918
-84.5934906005859
-79.4434967041016
-72.9583129882813
-72.0999755859375
-70.5740509033203
-63.7073860168457
-56.6499824523926
-51.3092422485352
-42.3444290161133
-38.2435073852539
-41.6768379211426
-40.4370231628418
-40.5323944091797
-38.6249885559082
-30.8046188354492
-31.8536930084229
-34.3333206176758
-33.1888771057129
-31.6629524230957
-30.0416564941406
-25.8453617095947
-24.7962875366211
-29.3740653991699
-31.1861019134521
-31.4722118377686
-33.1888771057129
-34.4286918640137
-33.2842483520508
-32.3305435180664
-35.2870254516602
-35.6685066223145
-32.5212860107422
-26.5129547119141
-15.5453653335571
-7.91573810577393
-6.96203470230103
-10.3953666687012
-10.3953666687012
-6.6759238243103
-4.57777643203735
-4.57777643203735
-5.34073925018311
-4.1962947845459
-7.53425693511963
-12.3981437683105
-6.96203470230103
0.667592406272888
2.76573991775513
2.76573991775513
5.34073925018311
5.05462789535522
1.04907369613647
1.33518481254578
4.86388731002808
12.9703664779663
20.8861045837402
19.8370304107666
11.5398111343384
5.91296100616455
11.5398111343384
18.0249938964844
17.1666603088379
14.8777732849121
12.3981437683105
15.2592544555664
23.9379558563232
28.8972129821777
29.4694347381592
26.6083240509033
20.409252166748
16.7851791381836
17.2620315551758
20.2185115814209
23.6518440246582
17.8342533111572
10.204626083374
8.86944198608398
9.9185152053833
15.4499950408936
20.7907333374023
24.3194370269775
22.125919342041
12.7796258926392
12.2074031829834
21.5536975860596
25.3685111999512
26.8944358825684
33.3796195983887
38.0527648925781
37.0036926269531
30.8999900817871
28.9925842285156
30.2323970794678
22.3166599273682
12.7796258926392
14.4962921142578
20.409252166748
22.3166599273682
29.6601753234863
36.431468963623
31.0907306671143
30.3277683258057
33.0935096740723
25.3685111999512
14.9731435775757
11.0629596710205
14.7824029922485
20.1231422424316
24.6055469512939
24.0333251953125
21.0768451690674
22.4120292663574
18.787956237793
17.4527721405029
25.6546211242676
28.2296199798584
23.4611034393311
17.5481433868408
13.6379585266113
16.1175880432129
20.5999927520752
20.5046234130859
21.6490669250488
30.6138782501221
34.0472106933594
26.4175834655762
20.409252166748
22.3166599273682
27.3712882995605
26.0361022949219
19.2648086547852
15.7361059188843
18.5972156524658
20.1231422424316
14.9731435775757
11.8259220123291
17.6435127258301
27.943510055542
28.5157318115234
20.409252166748
22.6981410980225
29.4694347381592
30.1370277404785
33.0935096740723
30.0416564941406
23.0796222686768
23.6518440246582
27.657398223877
36.2407302856445
35.0009155273438
24.9870281219482
23.3657341003418
22.6027698516846
20.1231422424316
21.6490669250488
24.3194370269775
23.1749935150146
15.1638841629028
6.1037015914917
5.62685012817383
14.0194396972656
26.226842880249
33.6657295227051
33.8564720153809
31.2814712524414
33.1888771057129
40.6277656555176
42.1536903381348
37.3851737976074
32.8073959350586
24.5101776123047
10.7768487930298
2.95648050308228
3.71944332122803
-0.381481349468231
-6.77129411697388
-5.91296100616455
-3.5287024974823
-4.57777643203735
-6.96203470230103
-9.44166374206543
-12.0166625976563
-14.0194396972656
-12.4935140609741
-14.687032699585
-23.4611034393311
-22.4120292663574
-12.7796258926392
-10.8722190856934
-12.2074031829834
-9.82314491271973
-11.0629596710205
-11.0629596710205
-8.0111083984375
-11.4444408416748
-11.2537002563477
-8.20184898376465
-11.2537002563477
-10.9675893783569
-8.29721927642822
-9.9185152053833
-6.96203470230103
-4.7685170173645
-9.72777462005615
-3.71944332122803
-3.43333220481873
-21.839807510376
-22.2212886810303
-13.8286991119385
-19.360179901123
-17.2620315551758
-12.3981437683105
-12.9703664779663
-6.1037015914917
-0.572222054004669
-3.33796191215515
-9.537034034729
-14.3055505752563
-14.5916624069214
-21.2675857543945
-43.7749862670898
-73.2444229125977
-99.3758926391602
-118.926811218262
-142.674026489258
-194.841598510742
-253.685104370117
-278.386016845703
-287.446197509766
-269.611938476563
-13.6379585266113
-37.0036926269531
128.36848449707
283.917510986328
424.111907958984
524.059997558594
650.616455078125
812.364562988281
890.472839355469
856.139526367188
757.812744140625
611.991455078125
389.492462158203
174.432357788086
152.020324707031
224.50178527832
142.960144042969
-27.0851764678955
-137.333282470703
-192.934204101563
-213.248077392578
-219.637893676758
-230.510116577148
-256.927703857422
-295.648040771484
-327.02490234375
-354.014709472656
-377.475799560547
-385.105438232422
-363.933227539063
-325.403594970703
-289.639709472656
-260.647125244141
-244.529556274414
-245.578628540039
-251.110107421875
-253.398986816406
-264.652679443359
-273.712860107422
-257.023071289063
-225.264739990234
-195.413833618164
-174.718460083008
-163.369384765625
-153.641616821289
-152.020324707031
-160.41291809082
-168.042541503906
-168.71012878418
-159.840682983398
-139.431442260742
-116.733299255371
-92.2231216430664
-66.9499816894531
-56.5546112060547
-57.6036834716797
-59.1296119689941
-64.3749771118164
-64.9472045898438
-59.0342407226563
-54.170352935791
-44.0610961914063
-29.5648059844971
-13.3518476486206
1.23981440067291
7.6296272277832
4.86388731002808
4.38703584671021
13.3518476486206
20.5999927520752
23.3657341003418
28.3249912261963
37.9573936462402
45.8731346130371
44.5379486083984
43.3935050964355
47.5897979736328
50.2601699829102
48.734245300293
44.9194297790527
42.8212814331055
42.5351715087891
48.3527641296387
55.4101676940918
55.5055389404297
59.6064605712891
67.8083114624023
71.1462707519531
71.1462707519531
69.4296035766602
69.3342361450195
67.3314590454102
65.9962768554688
69.0481262207031
69.9064559936523
72.7675704956055
74.4842376708984
74.198127746582
82.0184936523438
83.8305282592773
76.4870147705078
73.3397903442383
73.9120101928711
71.0509033203125
62.0860900878906
56.6499824523926
56.0777587890625
55.4101676940918
60.274055480957
64.9472045898438
61.7046089172363
56.3638725280762
55.887020111084
58.2712783813477
61.7046089172363
58.4620170593262
50.7370223999023
51.9768333435059
58.4620170593262
61.4184989929199
62.3722038269043
64.2796096801758
63.1351661682129
52.2629470825195
41.6768379211426
43.4888763427734
53.5027618408203
58.9388694763184
61.6092376708984
71.5277557373047
78.6805267333984
74.198127746582
72.5768280029297
72.8629379272461
66.1870193481445
65.4240493774414
75.1518249511719
83.6397857666016
88.4083023071289
91.1740417480469
87.7407150268555
80.4925689697266
75.3425674438477
68.7620162963867
62.5629425048828
61.7046089172363
65.3286819458008
69.8110885620117
78.5851593017578
90.4110794067383
94.03515625
95.9425582885742
97.0870056152344
90.5064544677734
97.849967956543
84.4027481079102
74.198127746582
69.4296035766602
74.4842376708984
81.5416412353516
82.876823425293
77.7268295288086
76.3916397094727
79.9203414916992
77.7268295288086
67.9990539550781
53.2166481018066
44.5379486083984
45.300910949707
40.5323944091797
34.5240631103516
31.8536930084229
28.8972129821777
26.7036952972412
17.2620315551758
3.62407302856445
-0.190740674734116
-1.9074068069458
-6.1037015914917
-6.1037015914917
-6.6759238243103
-6.48518323898315
-3.5287024974823
-9.25092315673828
-23.9379558563232
-35.2870254516602
-36.3360977172852
-36.7175827026367
-39.4833221435547
-38.8157272338867
-42.1536903381348
-44.1564674377441
-39.9601707458496
-45.5870208740234
-58.4620170593262
-64.8518295288086
-69.4296035766602
-75.5333099365234
-79.729606628418
-81.827751159668
-78.394416809082
-72.7675704956055
-73.2444229125977
-80.3018264770508
-84.1166381835938
-80.8740463256836
-83.925895690918
-90.9833068847656
-90.1249694824219
-87.4546051025391
-87.9314498901367
-88.9805297851563
-90.4110794067383
-91.269416809082
-91.1740417480469
-86.5009002685547
-87.9314498901367
-94.702751159668
-95.751823425293
-86.8823776245117
-82.0184936523438
-83.0675659179688
-85.7379379272461
-89.5527496337891
-92.4138565063477
-91.1740417480469
-87.5499725341797
-86.1194152832031
-84.9749755859375
-84.8796005249023
-83.0675659179688
-78.012939453125
-79.06201171875
-80.3971939086914
-77.9175643920898
-78.394416809082
-75.247200012207
-72.5768280029297
-75.8194198608398
-70.7647933959961
-66.854606628418
-71.8138656616211
-66.3777542114258
-57.0314636230469
-57.5083160400391
-58.652759552002
-56.6499824523926
-46.8268356323242
-40.3416519165039
-50.6416511535645
-55.887020111084
-53.2166481018066
-55.887020111084
-53.7888717651367
-45.6823921203613
-38.6249885559082
-34.4286918640137
-27.7527694702148
-20.6953639984131
-25.3685111999512
-34.1425819396973
-38.5296173095703
-38.148136138916
-28.4203605651855
-18.6925868988037
-22.7935104370117
-26.3222141265869
-18.1203651428223
-9.72777462005615
-6.6759238243103
-3.5287024974823
-4.38703584671021
-16.4990692138672
-23.5564746856689
-17.9296245574951
-13.6379585266113
-12.588885307312
-14.3055505752563
-15.35462474823
-7.43888664245605
-1.14444410800934
-2.95648050308228
-2.8611102104187
-0.0953703373670578
-0.190740674734116
0.190740674734116
7.0574049949646
11.5398111343384
7.72499752044678
7.15277528762817
3.91018390655518
-4.7685170173645
-3.5287024974823
1.33518481254578
0.286111027002335
-6.48518323898315
-4.1962947845459
14.9731435775757
27.943510055542
24.3194370269775
16.2129573822021
20.1231422424316
29.6601753234863
20.1231422424316
12.302773475647
23.4611034393311
24.1286964416504
21.4583263397217
30.3277683258057
30.995361328125
24.2240657806396
20.9814739227295
20.7907333374023
27.657398223877
33.2842483520508
27.1805477142334
21.4583263397217
21.3629570007324
22.4120292663574
20.8861045837402
19.1694374084473
22.3166599273682
22.5074005126953
20.0277709960938
20.6953639984131
23.3657341003418
29.6601753234863
36.3360977172852
36.3360977172852
37.099063873291
41.962947845459
43.8703575134277
43.9657249450684
39.7694320678711
31.6629524230957
24.7009181976318
23.2703628540039
24.1286964416504
17.8342533111572
13.5425882339478
21.3629570007324
28.6111011505127
32.6166572570801
38.7203598022461
36.0499877929688
25.9407329559326
23.2703628540039
31.3768424987793
37.0036926269531
37.3851737976074
39.2925796508789
40.2462844848633
38.0527648925781
36.9083213806152
39.197208404541
41.7722091674805
44.3472061157227
47.1129493713379
43.8703575134277
38.4342460632324
37.5759124755859
36.431468963623
36.2407302856445
34.4286918640137
29.3740653991699
27.4666576385498
28.1342506408691
26.8944358825684
25.8453617095947
29.1833248138428
36.0499877929688
41.7722091674805
39.9601707458496
34.7148017883301
32.4259147644043
28.0388793945313
24.6055469512939
27.4666576385498
29.7555465698242
39.1018409729004
45.4916534423828
34.4286918640137
28.5157318115234
25.8453617095947
19.6462898254395
24.0333251953125
28.4203605651855
29.5648059844971
36.1453590393066
35.5731353759766
24.7962875366211
20.9814739227295
20.8861045837402
20.5046234130859
24.4148063659668
24.891658782959
17.2620315551758
5.1499981880188
0.858333051204681
1.81203651428223
-1.62129580974579
-6.48518323898315
-6.29444265365601
0
5.43610954284668
4.7685170173645
-9.82314491271973
-20.8861045837402
-3.8148136138916
11.7305517196655
10.6814785003662
17.0712909698486
21.1722145080566
15.8314762115479
18.0249938964844
20.2185115814209
17.357400894165
15.6407356262207
13.6379585266113
13.4472179412842
10.9675893783569
0.858333051204681
-9.63240432739258
-12.0166625976563
-4.48240613937378
-1.14444410800934
-5.43610954284668
-3.24259161949158
-3.91018390655518
-18.787956237793
-31.2814712524414
-31.2814712524414
-27.0851764678955
-22.7935104370117
-19.9324016571045
-17.6435127258301
-10.2999963760376
-1.23981440067291
1.52592539787292
1.43055510520935
-0.0953703373670578
-6.29444265365601
-8.67870044708252
-6.48518323898315
-7.82036781311035
-10.5861072540283
-15.1638841629028
-17.4527721405029
-17.0712909698486
-21.839807510376
-23.7472152709961
-26.3222141265869
-32.9027671813965
-28.9925842285156
-28.6111011505127
-33.3796195983887
-24.4148063659668
-16.8805503845215
-16.30832862854
-15.35462474823
-15.7361059188843
-14.3055505752563
-16.4036979675293
-25.8453617095947
-46.3499870300293
-80.5879364013672
-114.158294677734
-136.474960327148
-155.167541503906
-183.015686035156
-238.521224975586
-296.220275878906
-318.727661132813
-325.785095214844
-311.861022949219
-219.447158813477
-45.3962821960449
129.322174072266
268.467498779297
375.282287597656
466.933197021484
597.113708496094
728.438659667969
808.740478515625
809.312683105469
724.43310546875
588.530395507813
379.192474365234
216.013824462891
253.303619384766
277.050842285156
123.504592895508
-32.8073959350586
-107.86385345459
-136.379592895508
-146.202728271484
-169.186981201172
-200.9453125
-235.850845336914
-279.435089111328
-321.779541015625
-335.703582763672
-328.264709472656
-318.155456542969
-294.122131347656
-268.181396484375
-253.685104370117
-245.483261108398
-245.67399597168
-254.25732421875
-265.320281982422
-267.990661621094
-263.031402587891
-253.589736938477
-231.273071289063
-208.384185791016
-191.122161865234
-169.473098754883
-152.592544555664
-149.159210205078
-147.53791809082
-144.962921142578
-148.777725219727
-147.824020385742
-127.796257019043
-111.201812744141
-108.531448364258
-93.8444137573242
-76.7731246948242
-70.6694183349609
-66.7592391967773
-65.3286819458008
-60.3694267272949
-53.6935005187988
-47.2083168029785
-34.0472106933594
-24.1286964416504
-20.7907333374023
-13.1611070632935
-1.71666610240936
2.5749990940094
-2.28888821601868
-1.9074068069458
4.1962947845459
13.1611070632935
27.5620288848877
30.70924949646
28.8018417358398
33.761100769043
34.5240631103516
40.6277656555176
55.1240577697754
54.6472053527832
48.4481315612793
54.4564628601074
57.9851684570313
57.7944259643555
63.8027572631836
67.9990539550781
73.1490478515625
80.8740463256836
78.1083068847656
71.2416458129883
70.2879409790039
73.3397903442383
78.2036819458008
76.3916397094727
69.6203460693359
68.2851638793945
73.1490478515625
78.2036819458008
72.9583129882813
63.8027572631836
62.6583137512207
66.4731292724609
69.4296035766602
74.3888626098633
80.4925689697266
73.9120101928711
62.3722038269043
64.9472045898438
66.3777542114258
55.6009063720703
57.8897972106934
73.9120101928711
72.2907180786133
51.4999847412109
36.6222114562988
35.1916542053223
37.7666549682617
43.3935050964355
52.3583183288574
53.7888717651367
48.066650390625
48.734245300293
48.5435028076172
40.6277656555176
38.5296173095703
39.0064697265625
39.2925796508789
51.404613494873
65.0425720214844
69.7157211303711
68.8573837280273
65.9009017944336
64.6610870361328
62.5629425048828
52.2629470825195
44.3472061157227
47.7805404663086
51.2138710021973
53.5027618408203
60.274055480957
65.4240493774414
67.7129440307617
65.9962768554688
63.039794921875
58.7481307983398
54.4564628601074
58.0805358886719
58.2712783813477
56.936092376709
64.0888671875
69.2388687133789
69.0481262207031
67.3314590454102
67.9990539550781
66.1870193481445
57.3175735473633
57.2222023010254
62.7536849975586
64.0888671875
62.6583137512207
58.8434982299805
61.99072265625
70.0971984863281
73.0536804199219
74.0073852539063
67.1407165527344
51.404613494873
40.8185043334961
39.0064697265625
39.197208404541
38.8157272338867
40.1509132385254
36.7175827026367
25.9407329559326
21.7444381713867
22.125919342041
18.6925868988037
15.6407356262207
14.1148099899292
6.1037015914917
-5.81759071350098
-4.67314672470093
3.24259161949158
2.76573991775513
-0.381481349468231
-4.57777643203735
-12.7796258926392
-23.8425846099854
-30.5185089111328
-25.5592517852783
-25.2731399536133
-32.3305435180664
-35.382396697998
-39.1018409729004
-41.4860992431641
-43.0120239257813
-46.3499870300293
-49.1157264709473
-55.887020111084
-58.3666496276855
-53.3120193481445
-55.0286865234375
-61.2277565002441
-64.0888671875
-64.0888671875
-69.0481262207031
-77.1546020507813
-74.7703475952148
-68.0944213867188
-64.5657196044922
-58.7481307983398
-58.1759071350098
-59.701831817627
-59.4157218933105
-66.0916442871094
-70.0971984863281
-69.2388687133789
-74.1027526855469
-79.1573791503906
-79.5388641357422
-81.4462738037109
-86.5009002685547
-82.6860809326172
-72.6721954345703
-68.1897964477539
-61.0370178222656
-57.1268348693848
-62.4675712585449
-62.8490524291992
-60.1786842346191
-63.4212760925293
-67.3314590454102
-66.9499816894531
-68.6666412353516
-70.6694183349609
-66.854606628418
-63.039794921875
-59.701831817627
-57.4129447937012
-55.5055389404297
-49.2110939025879
-45.0148010253906
-46.1592445373535
-44.4425773620605
-42.5351715087891
-48.9249839782715
-48.8296127319336
-36.8129501342773
-35.5731353759766
-38.3388748168945
-33.5703582763672
-40.3416519165039
-49.5925750732422
-45.2055397033691
-41.1046180725098
-44.0610961914063
-42.9166526794434
-39.9601707458496
-45.6823921203613
-42.0583190917969
-26.226842880249
-20.8861045837402
-23.5564746856689
-23.7472152709961
-21.3629570007324
-21.6490669250488
-27.1805477142334
-27.2759170532227
-20.6953639984131
-15.8314762115479
-16.4036979675293
-18.8833274841309
-14.687032699585
-7.72499752044678
-5.53147983551025
-7.24814605712891
-4.1962947845459
5.34073925018311
6.19907188415527
3.05185079574585
3.91018390655518
-1.04907369613647
-6.96203470230103
-6.86666440963745
-3.91018390655518
2.09814739227295
4.10092449188232
6.38981294631958
12.9703664779663
9.25092315673828
4.00555419921875
6.58055353164673
2.95648050308228
-2.09814739227295
-4.00555419921875
-6.00833129882813
-3.8148136138916
-2.00277709960938
-2.09814739227295
-1.52592539787292
0.667592406272888
7.53425693511963
7.53425693511963
6.96203470230103
15.8314762115479
19.9324016571045
18.3111057281494
18.6925868988037
18.0249938964844
16.022216796875
20.0277709960938
25.4638805389404
22.7935104370117
16.8805503845215
14.9731435775757
17.4527721405029
19.7416610717773
16.7851791381836
17.5481433868408
27.2759170532227
32.2351760864258
28.4203605651855
23.0796222686768
18.2157344818115
16.9759197235107
18.3111057281494
17.4527721405029
21.7444381713867
30.6138782501221
30.2323970794678
30.995361328125
41.4860992431641
41.5814666748047
32.6166572570801
34.7148017883301
35.8592491149902
31.6629524230957
33.0935096740723
33.8564720153809
35.0009155273438
30.4231376647949
21.0768451690674
25.3685111999512
30.70924949646
29.1833248138428
32.2351760864258
28.8972129821777
20.7907333374023
24.891658782959
33.3796195983887
37.5759124755859
37.4805450439453
31.9490642547607
27.943510055542
29.4694347381592
29.278694152832
23.9379558563232
21.839807510376
23.7472152709961
26.226842880249
25.3685111999512
19.7416610717773
14.4009208679199
7.15277528762817
3.5287024974823
13.4472179412842
28.3249912261963
33.4749908447266
31.6629524230957
30.2323970794678
29.0879535675049
30.6138782501221
33.1888771057129
33.1888771057129
25.7499923706055
8.96481227874756
0.286111027002335
2.8611102104187
2.8611102104187
-1.14444410800934
-4.10092449188232
-3.05185079574585
-1.04907369613647
-1.62129580974579
-0.667592406272888
1.33518481254578
-0.47685170173645
-2.8611102104187
-10.204626083374
-10.7768487930298
-11.5398111343384
-4.67314672470093
-5.62685012817383
-12.302773475647
-11.8259220123291
-8.96481227874756
-4.00555419921875
7.43888664245605
11.4444408416748
4.86388731002808
2.28888821601868
3.24259161949158
5.7222204208374
14.8777732849121
15.35462474823
3.8148136138916
9.82314491271973
19.6462898254395
10.2999963760376
4.86388731002808
4.7685170173645
-1.04907369613647
-1.23981440067291
3.8148136138916
7.34351634979248
14.687032699585
23.2703628540039
14.0194396972656
0.47685170173645
2.76573991775513
-9.06018257141113
-41.2953567504883
-78.6805267333984
-116.35181427002
-133.804580688477
-146.488845825195
-187.593460083008
-242.145294189453
-274.380462646484
-289.925842285156
-287.827697753906
-220.591598510742
-70.7647933959961
119.975891113281
290.498046875
441.564666748047
567.835021972656
676.461791992188
832.296936035156
972.10986328125
990.993225097656
903.157104492188
762.390502929688
555.436828613281
304.231384277344
187.593460083008
211.912887573242
147.728652954102
-21.4583263397217
-150.399032592773
-212.580490112305
-233.848068237305
-240.142517089844
-256.450836181641
-283.154541015625
-319.490631103516
-355.445251464844
-381.767456054688
-397.598937988281
-398.552642822266
-389.873962402344
-367.080444335938
-330.648956298828
-303.277679443359
-283.726776123047
-270.661010742188
-278.099914550781
-293.645263671875
-298.795288085938
-295.648040771484
-282.773071289063
-255.497146606445
-221.354553222656
-193.601791381836
-178.533279418945
-168.328643798828
-163.941619873047
-169.663833618164
-178.056427001953
-177.770309448242
-162.3203125
-141.529586791992
-124.744407653809
-104.144409179688
-82.9721984863281
-72.3860855102539
-74.1027526855469
-76.4870147705078
-74.8657150268555
-79.9203414916992
-79.06201171875
-65.6147918701172
-52.2629470825195
-36.8129501342773
-20.7907333374023
-9.9185152053833
-3.8148136138916
-3.43333220481873
-5.62685012817383
-11.4444408416748
-18.0249938964844
-11.0629596710205
6.29444265365601
17.0712909698486
20.2185115814209
31.5675830841064
42.3444290161133
42.2490615844727
48.734245300293
53.3120193481445
46.0638732910156
46.0638732910156
54.9333152770996
59.3203506469727
59.5110931396484
57.8897972106934
53.9796104431152
58.9388694763184
67.903678894043
67.903678894043
69.0481262207031
73.1490478515625
67.9990539550781
62.1814613342285
65.9962768554688
65.6147918701172
58.4620170593262
56.2685012817383
59.6064605712891
65.7101669311523
69.4296035766602
68.2851638793945
70.9555358886719
70.4786834716797
58.9388694763184
53.5981292724609
61.0370178222656
69.1434936523438
74.0073852539063
76.296272277832
75.6286773681641
74.6749725341797
69.3342361450195
56.1731300354004
45.1101722717285
40.1509132385254
34.2379531860352
29.4694347381592
34.3333206176758
43.2981338500977
50.7370223999023
54.2657241821289
50.6416511535645
50.4509086608887
51.8814659118652
47.017578125
48.8296127319336
55.5055389404297
60.5601654052734
67.0453491210938
68.5712738037109
64.5657196044922
61.4184989929199
59.5110931396484
62.3722038269043
70.0018310546875
70.7647933959961
68.2851638793945
71.7184982299805
75.0564575195313
83.7351608276367
92.4138565063477
87.3592300415039
76.0101623535156
71.9092330932617
78.9666442871094
85.7379379272461
84.2120132446289
83.1629333496094
89.5527496337891
98.9944152832031
99.2805252075195
105.288856506348
106.337928771973
104.716636657715
100.138854980469
92.1277465820313
94.8934860229492
98.6129302978516
96.6101531982422
98.2314529418945
100.52033996582
98.9944152832031
94.1305236816406
84.3073806762695
72.4814605712891
66.7592391967773
58.9388694763184
52.6444282531738
61.1323890686035
65.4240493774414
62.3722038269043
62.9444236755371
63.039794921875
59.701831817627
46.2546157836914
33.1888771057129
24.891658782959
16.2129573822021
17.1666603088379
20.5046234130859
14.0194396972656
8.10647869110107
7.82036781311035
3.43333220481873
-4.48240613937378
-8.67870044708252
-12.588885307312
-17.6435127258301
-26.1314735412598
-28.8972129821777
-19.5509204864502
-22.5074005126953
-34.4286918640137
-39.4833221435547
-46.6360969543457
-49.2110939025879
-49.4018363952637
-55.887020111084
-57.7944259643555
-57.8897972106934
-61.7046089172363
-65.9962768554688
-71.2416458129883
-71.9092330932617
-69.0481262207031
-74.3888626098633
-83.6397857666016
-87.0731201171875
-86.3101577758789
-90.7925643920898
-97.182373046875
-91.7462692260742
-86.4055252075195
-88.3129348754883
-87.3592300415039
-82.9721984863281
-81.3508987426758
-81.6370086669922
-79.729606628418
-82.0184936523438
-90.5064544677734
-95.9425582885742
-94.416633605957
-92.986083984375
-93.2721939086914
-93.6536712646484
-95.9425582885742
-98.0407104492188
-95.5610809326172
-92.0323791503906
-91.8416366577148
-87.6453399658203
-80.778678894043
-81.827751159668
-85.7379379272461
-84.5934906005859
-81.7323837280273
-80.0157165527344
-81.2555313110352
-83.7351608276367
-80.111083984375
-79.8249740600586
-85.0703430175781
-82.9721984863281
-76.9638671875
-68.6666412353516
-62.7536849975586
-68.7620162963867
-69.8110885620117
-60.274055480957
-56.2685012817383
-58.4620170593262
-56.8407211303711
-52.6444282531738
-51.3092422485352
-46.5407257080078
-36.0499877929688
-33.9518394470215
-40.1509132385254
-40.4370231628418
-37.5759124755859
-34.4286918640137
-32.6166572570801
-35.9546165466309
-35.0009155273438
-33.3796195983887
-30.8046188354492
-22.125919342041
-20.3138828277588
-21.2675857543945
-26.226842880249
-37.0036926269531
-35.0962867736816
-31.9490642547607
-41.1999855041504
-35.0962867736816
-16.4990692138672
-13.5425882339478
-21.6490669250488
-21.9351787567139
-12.0166625976563
-3.43333220481873
-3.147221326828
-10.8722190856934
-12.302773475647
-0.47685170173645
5.81759071350098
-0.286111027002335
-2.00277709960938
3.91018390655518
0
-5.34073925018311
3.43333220481873
9.9185152053833
10.204626083374
8.10647869110107
3.05185079574585
4.29166507720947
12.302773475647
19.8370304107666
21.5536975860596
17.738883972168
17.6435127258301
16.6898097991943
8.77407169342041
8.77407169342041
20.7907333374023
28.0388793945313
28.3249912261963
26.8944358825684
24.6055469512939
31.3768424987793
37.099063873291
30.995361328125
30.2323970794678
36.5268402099609
38.8157272338867
34.0472106933594
29.5648059844971
32.4259147644043
37.3851737976074
40.5323944091797
41.0092468261719
39.864803314209
38.7203598022461
35.4777679443359
33.8564720153809
36.3360977172852
35.9546165466309
31.9490642547607
26.5129547119141
23.8425846099854
30.4231376647949
35.382396697998
27.943510055542
23.2703628540039
30.4231376647949
35.2870254516602
35.0962867736816
36.1453590393066
37.1944313049316
36.1453590393066
38.148136138916
47.3990592956543
47.3036880493164
35.8592491149902
32.8073959350586
35.8592491149902
36.431468963623
37.8620262145996
37.3851737976074
34.5240631103516
34.3333206176758
38.3388748168945
41.1999855041504
33.6657295227051
21.6490669250488
18.1203651428223
18.0249938964844
15.5453653335571
13.5425882339478
10.2999963760376
9.25092315673828
11.2537002563477
12.302773475647
17.357400894165
22.7935104370117
18.5018463134766
15.35462474823
20.6953639984131
23.2703628540039
26.7990646362305
31.1861019134521
26.4175834655762
18.3111057281494
14.2101802825928
23.7472152709961
36.431468963623
35.1916542053223
37.099063873291
47.6851692199707
55.887020111084
55.9823913574219
49.2110939025879
47.1129493713379
41.8675804138184
22.4120292663574
6.96203470230103
6.58055353164673
6.96203470230103
1.9074068069458
-6.77129411697388
-11.9212923049927
-8.3925895690918
-5.34073925018311
-2.67036962509155
0.47685170173645
-2.76573991775513
-3.62407302856445
5.34073925018311
8.48795986175537
-0.762962698936462
-6.58055353164673
-4.95925760269165
-4.38703584671021
-7.15277528762817
-5.05462789535522
4.1962947845459
7.53425693511963
9.34629344940186
12.9703664779663
4.95925760269165
-0.190740674734116
2.8611102104187
-2.67036962509155
-7.91573810577393
-2.8611102104187
-0.381481349468231
-5.05462789535522
-4.7685170173645
2.00277709960938
6.19907188415527
6.58055353164673
1.14444410800934
-4.10092449188232
2.8611102104187
9.82314491271973
2.09814739227295
-3.147221326828
-3.43333220481873
-6.86666440963745
-18.4064750671387
-52.0722045898438
-94.702751159668
-117.400886535645
-136.379592895508
-181.775863647461
-242.336029052734
-285.061950683594
-307.85546875
-315.389709472656
-272.663787841797
-150.875885009766
28.4203605651855
205.809188842773
369.750793457031
509.277618408203
612.754455566406
768.398803710938
937.871948242188
987.464477539063
923.375610351563
795.674743652344
611.705383300781
366.126739501953
181.58512878418
181.203643798828
188.451797485352
46.0638732910156
-109.389778137207
-189.500869750977
-225.264739990234
-233.466598510742
-244.911026000977
-271.233245849609
-305.47119140625
-341.521179199219
-371.9443359375
-392.925811767578
-398.075805664063
-387.585052490234
-364.314697265625
-331.411926269531
-296.315643310547
-267.227691650391
-256.35546875
-261.982330322266
-271.32861328125
-284.394348144531
-292.405456542969
-286.969360351563
-269.421203613281
-241.47770690918
-217.348999023438
-195.890670776367
-170.331420898438
-160.699020385742
-168.042541503906
-175.862899780273
-181.775863647461
-176.339752197266
-159.649948120117
-138.382369995117
-115.398109436035
-101.855522155762
-90.4110794067383
-74.1027526855469
-68.8573837280273
-72.7675704956055
-73.0536804199219
-69.3342361450195
-61.7999801635742
-47.7805404663086
-34.810173034668
-24.7009181976318
-13.4472179412842
-6.96203470230103
-2.1935179233551
-0.190740674734116
-7.43888664245605
-12.6842555999756
-9.72777462005615
2.1935179233551
12.302773475647
21.2675857543945
39.9601707458496
51.6907234191895
52.2629470825195
58.2712783813477
63.8981285095215
57.3175735473633
51.2138710021973
50.832389831543
49.4972076416016
53.0259094238281
61.5138702392578
68.8573837280273
67.903678894043
60.0833129882813
60.9416465759277
65.2333145141602
64.6610870361328
66.6638641357422
72.1953506469727
71.9092330932617
72.1953506469727
70.8601608276367
70.3833084106445
67.5222015380859
68.7620162963867
76.5823822021484
79.1573791503906
73.8166427612305
62.3722038269043
54.2657241821289
58.0805358886719
60.5601654052734
56.7453536987305
57.0314636230469
59.1296119689941
62.1814613342285
65.5194244384766
57.6990547180176
47.5897979736328
51.404613494873
55.6962776184082
55.4101676940918
49.9740562438965
44.7286911010742
55.6962776184082
67.7129440307617
67.8083114624023
66.5684967041016
63.7073860168457
54.2657241821289
46.9222068786621
43.0120239257813
41.3907279968262
50.2601699829102
63.5166473388672
67.0453491210938
65.6147918701172
71.4323883056641
78.7759017944336
74.198127746582
66.1870193481445
68.1897964477539
70.1925735473633
72.0999755859375
81.5416412353516
91.7462692260742
98.8036727905273
97.849967956543
91.0786743164063
88.2175674438477
88.4083023071289
87.8360824584961
86.3101577758789
88.6944122314453
95.6564483642578
99.4712677001953
101.664779663086
105.479598999023
100.711082458496
92.318489074707
93.4629364013672
91.269416809082
83.4490509033203
82.6860809326172
84.8796005249023
90.3157119750977
94.6073760986328
94.3212661743164
100.424964904785
100.52033996582
84.1166381835938
78.2990493774414
80.8740463256836
68.9527587890625
63.1351661682129
71.4323883056641
65.2333145141602
53.5027618408203
64.1842422485352
68.4759063720703
51.2138710021973
45.300910949707
42.2490615844727
25.5592517852783
19.9324016571045
26.7990646362305
24.7962875366211
19.9324016571045
11.2537002563477
0.572222054004669
-0.286111027002335
-3.33796191215515
-11.2537002563477
-19.4555492401123
-29.4694347381592
-36.5268402099609
-33.9518394470215
-20.409252166748
-26.1314735412598
-28.1342506408691
-37.099063873291
-47.2083168029785
-50.7370223999023
-52.453685760498
-56.1731300354004
-63.1351661682129
-70.3833084106445
-76.7731246948242
-76.296272277832
-71.0509033203125
-76.8684921264648
-86.2147903442383
-94.702751159668
-104.62126159668
-100.043487548828
-89.0758972167969
-86.9777526855469
-87.9314498901367
-88.1221923828125
-89.9342269897461
-91.4601593017578
-92.7953414916992
-94.6073760986328
-97.182373046875
-99.0897827148438
-96.8962631225586
-93.2721939086914
-97.7546005249023
-110.629592895508
-116.35181427002
-110.057373046875
-106.910148620605
-108.722190856934
-101.283302307129
-94.03515625
-91.9370040893555
-86.4055252075195
-86.0240478515625
-94.6073760986328
-96.5147857666016
-84.7842330932617
-79.1573791503906
-78.2990493774414
-73.1490478515625
-77.6314544677734
-83.925895690918
-87.0731201171875
-91.3647842407227
-87.5499725341797
-82.6860809326172
-87.7407150268555
-89.5527496337891
-82.0184936523438
-77.9175643920898
-76.5823822021484
-70.8601608276367
-67.2360916137695
-67.1407165527344
-62.2768325805664
-55.5055389404297
-53.2166481018066
-50.6416511535645
-42.630542755127
-30.1370277404785
-28.0388793945313
-32.9027671813965
-33.4749908447266
-36.9083213806152
-44.1564674377441
-46.9222068786621
-40.0555419921875
-35.7638778686523
-42.4398002624512
-44.1564674377441
-35.1916542053223
-28.8018417358398
-28.7064723968506
-23.2703628540039
-14.5916624069214
-15.6407356262207
-23.6518440246582
-21.1722145080566
-10.9675893783569
-8.48795986175537
-8.58333015441895
-6.86666440963745
-10.5861072540283
-20.5046234130859
-29.1833248138428
-25.4638805389404
-15.35462474823
-13.4472179412842
-15.9268465042114
-13.9240694046021
-7.15277528762817
-3.33796191215515
-8.77407169342041
-14.4962921142578
-10.7768487930298
-4.48240613937378
-3.43333220481873
-5.7222204208374
-4.00555419921875
2.8611102104187
4.7685170173645
0.47685170173645
6.29444265365601
15.35462474823
13.4472179412842
11.8259220123291
14.4962921142578
11.7305517196655
9.06018257141113
16.022216796875
22.4120292663574
24.7009181976318
24.891658782959
22.7935104370117
22.3166599273682
16.8805503845215
10.3953666687012
14.7824029922485
21.1722145080566
29.0879535675049
44.0610961914063
53.8842430114746
55.5055389404297
53.7888717651367
51.6907234191895
47.1129493713379
42.1536903381348
45.2055397033691
50.1647987365723
51.6907234191895
49.1157264709473
40.913875579834
37.6712837219238
45.9685020446777
46.4453544616699
33.3796195983887
32.3305435180664
38.0527648925781
33.5703582763672
31.8536930084229
31.6629524230957
26.7036952972412
29.9462871551514
35.1916542053223
31.7583236694336
30.8046188354492
35.6685066223145
39.9601707458496
36.6222114562988
25.3685111999512
19.4555492401123
22.7935104370117
23.1749935150146
16.4036979675293
13.0657367706299
16.1175880432129
19.7416610717773
26.9898052215576
36.0499877929688
34.9055442810059
25.8453617095947
18.8833274841309
16.5944385528564
24.3194370269775
30.8046188354492
26.9898052215576
28.6111011505127
35.9546165466309
36.6222114562988
33.5703582763672
32.9027671813965
36.7175827026367
40.4370231628418
35.382396697998
31.1861019134521
30.2323970794678
23.8425846099854
27.8481388092041
39.197208404541
34.3333206176758
25.7499923706055
29.7555465698242
33.3796195983887
33.0935096740723
33.5703582763672
30.3277683258057
28.0388793945313
31.5675830841064
34.810173034668
33.4749908447266
29.278694152832
28.0388793945313
31.1861019134521
35.2870254516602
42.9166526794434
46.7314682006836
45.300910949707
40.7231369018555
24.9870281219482
14.2101802825928
12.8749961853027
4.38703584671021
-5.53147983551025
-5.81759071350098
2.76573991775513
11.5398111343384
10.8722190856934
6.86666440963745
9.34629344940186
10.7768487930298
9.15555286407471
4.7685170173645
-0.381481349468231
1.71666610240936
4.1962947845459
2.76573991775513
4.48240613937378
5.81759071350098
3.91018390655518
7.53425693511963
12.6842555999756
13.1611070632935
12.1120328903198
2.67036962509155
-9.25092315673828
-12.2074031829834
-6.6759238243103
3.24259161949158
4.67314672470093
-0.9537034034729
4.29166507720947
17.6435127258301
21.0768451690674
12.1120328903198
2.67036962509155
0.190740674734116
0.858333051204681
-2.8611102104187
-4.95925760269165
-2.5749990940094
-6.96203470230103
-11.635181427002
-16.1175880432129
-39.1018409729004
-73.3397903442383
-101.283302307129
-118.831443786621
-138.668472290039
-187.87956237793
-245.292510986328
-281.723999023438
-312.0517578125
-302.896209716797
-220.782333374023
-73.3397903442383
99.7573776245117
249.679550170898
379.764678955078
477.805389404297
597.018310546875
772.404357910156
876.2626953125
852.133972167969
763.05810546875
629.062744140625
405.419311523438
186.353637695313
178.437911987305
267.036956787109
179.3916015625
-5.53147983551025
-112.25089263916
-154.786056518555
-171.094390869141
-180.154571533203
-203.04345703125
-241.38232421875
-286.111022949219
-331.507293701172
-354.968414306641
-371.9443359375
-374.614685058594
-353.633209228516
-314.436004638672
-271.519348144531
-243.57585144043
-237.281402587891
-241.57307434082
-253.589736938477
-273.4267578125
-288.686004638672
-287.446197509766
-260.647125244141
-216.204559326172
-182.634201049805
-165.181427001953
-149.731430053711
-139.049957275391
-144.104583740234
-163.464767456055
-175.290679931641
-169.473098754883
-155.549026489258
-139.812911987305
-119.785148620605
-90.7925643920898
-69.7157211303711
-69.5249786376953
-75.6286773681641
-79.4434967041016
-80.5879364013672
-79.1573791503906
-71.2416458129883
-53.5027618408203
-38.8157272338867
-25.6546211242676
-9.25092315673828
-7.24814605712891
-15.5453653335571
-18.5018463134766
-20.5046234130859
-17.357400894165
-10.6814785003662
-9.44166374206543
-7.24814605712891
2.76573991775513
19.2648086547852
29.278694152832
29.6601753234863
29.1833248138428
29.5648059844971
29.0879535675049
26.7036952972412
25.2731399536133
26.9898052215576
29.5648059844971
32.1398048400879
34.2379531860352
41.5814666748047
48.066650390625
48.734245300293
53.6935005187988
56.2685012817383
51.9768333435059
50.6416511535645
52.1675758361816
52.2629470825195
50.5462799072266
54.5518341064453
62.6583137512207
61.99072265625
62.3722038269043
67.0453491210938
67.2360916137695
63.039794921875
54.5518341064453
48.4481315612793
47.3990592956543
47.5897979736328
50.6416511535645
51.0231323242188
49.1157264709473
54.6472053527832
61.7999801635742
63.5166473388672
63.4212760925293
55.5055389404297
44.3472061157227
43.5842437744141
49.5925750732422
55.6009063720703
58.9388694763184
59.2249794006348
59.701831817627
57.8897972106934
54.3610954284668
50.1647987365723
45.2055397033691
45.2055397033691
48.8296127319336
51.9768333435059
56.8407211303711
64.8518295288086
70.0971984863281
62.4675712585449
52.2629470825195
51.7860946655273
55.4101676940918
67.7129440307617
77.5360870361328
76.3916397094727
82.5907135009766
86.1194152832031
84.1166381835938
88.0268249511719
88.5036773681641
84.4027481079102
79.4434967041016
74.7703475952148
73.0536804199219
78.394416809082
85.5471954345703
88.6944122314453
93.8444137573242
92.986083984375
87.7407150268555
84.3073806762695
75.7240524291992
75.0564575195313
82.2092361450195
84.1166381835938
90.6018218994141
98.5175628662109
100.138854980469
104.812004089355
105.956443786621
94.702751159668
87.6453399658203
84.0212707519531
77.0592346191406
76.8684921264648
71.9092330932617
59.3203506469727
61.1323890686035
57.0314636230469
53.8842430114746
48.734245300293
39.864803314209
26.4175834655762
17.4527721405029
15.7361059188843
18.5972156524658
24.4148063659668
25.8453617095947
20.5046234130859
13.4472179412842
6.48518323898315
-0.667592406272888
-11.9212923049927
-20.5046234130859
-16.30832862854
-14.1148099899292
-21.2675857543945
-27.943510055542
-34.2379531860352
-35.9546165466309
-37.099063873291
-45.2055397033691
-50.832389831543
-55.9823913574219
-68.2851638793945
-74.8657150268555
-73.3397903442383
-75.0564575195313
-74.3888626098633
-71.7184982299805
-75.4379425048828
-82.5907135009766
-87.5499725341797
-87.4546051025391
-88.8851547241211
-88.8851547241211
-84.1166381835938
-83.6397857666016
-82.876823425293
-76.4870147705078
-76.8684921264648
-83.4490509033203
-83.8305282592773
-83.3536758422852
-89.0758972167969
-89.0758972167969
-83.3536758422852
-86.5009002685547
-87.7407150268555
-78.6805267333984
-76.6777496337891
-82.1138610839844
-85.7379379272461
-87.4546051025391
-87.4546051025391
-84.9749755859375
-82.3999710083008
-86.1194152832031
-90.8879318237305
-89.5527496337891
-87.5499725341797
-87.0731201171875
-86.6916351318359
-86.3101577758789
-83.6397857666016
-77.7268295288086
-76.3916397094727
-80.778678894043
-79.1573791503906
-78.6805267333984
-76.6777496337891
-65.805534362793
-68.0944213867188
-76.7731246948242
-64.9472045898438
-49.1157264709473
-49.4018363952637
-54.0749816894531
-60.3694267272949
-66.3777542114258
-62.9444236755371
-57.8897972106934
-54.170352935791
-51.6907234191895
-49.6879463195801
-46.1592445373535
-40.8185043334961
-34.6194343566895
-37.9573936462402
-40.6277656555176
-31.7583236694336
-27.3712882995605
-26.0361022949219
-18.9786968231201
-16.1175880432129
-18.787956237793
-19.6462898254395
-18.3111057281494
-18.5018463134766
-23.5564746856689
-22.7935104370117
-16.9759197235107
-12.3981437683105
-8.10647869110107
-6.1037015914917
-1.9074068069458
8.29721927642822
12.3981437683105
3.05185079574585
0.762962698936462
10.0138854980469
12.0166625976563
8.29721927642822
2.95648050308228
-0.381481349468231
-0.47685170173645
1.52592539787292
2.1935179233551
-2.38425850868225
0.0953703373670578
7.15277528762817
7.72499752044678
8.86944198608398
15.0685138702393
18.3111057281494
14.4009208679199
10.8722190856934
11.8259220123291
11.3490705490112
10.2999963760376
14.2101802825928
14.5916624069214
11.8259220123291
18.9786968231201
24.6055469512939
20.9814739227295
24.7962875366211
32.6166572570801
31.6629524230957
27.4666576385498
27.4666576385498
27.3712882995605
22.9842510223389
26.226842880249
36.2407302856445
40.5323944091797
41.4860992431641
37.8620262145996
33.6657295227051
34.5240631103516
33.2842483520508
32.1398048400879
28.4203605651855
24.0333251953125
33.5703582763672
39.3879508972168
30.4231376647949
31.0907306671143
36.431468963623
27.657398223877
17.8342533111572
19.5509204864502
23.1749935150146
19.360179901123
20.409252166748
27.5620288848877
25.5592517852783
23.0796222686768
27.3712882995605
26.226842880249
24.9870281219482
27.5620288848877
25.9407329559326
29.8509159088135
38.7203598022461
43.0120239257813
48.066650390625
50.832389831543
49.5925750732422
46.9222068786621
44.4425773620605
47.1129493713379
51.404613494873
47.2083168029785
38.6249885559082
38.0527648925781
42.1536903381348
40.1509132385254
32.9027671813965
30.1370277404785
34.5240631103516
34.2379531860352
31.9490642547607
39.197208404541
43.1073951721191
35.2870254516602
29.278694152832
31.7583236694336
35.8592491149902
35.7638778686523
35.382396697998
38.148136138916
38.3388748168945
38.8157272338867
40.1509132385254
35.1916542053223
30.995361328125
30.995361328125
32.3305435180664
31.6629524230957
27.7527694702148
29.7555465698242
36.1453590393066
36.1453590393066
30.5185089111328
25.7499923706055
26.7036952972412
22.125919342041
9.9185152053833
4.95925760269165
2.38425850868225
-1.81203651428223
-3.5287024974823
-8.0111083984375
-14.0194396972656
-18.8833274841309
-18.9786968231201
-14.3055505752563
-15.1638841629028
-15.0685138702393
-9.82314491271973
-12.3981437683105
-18.0249938964844
-17.6435127258301
-18.9786968231201
-20.9814739227295
-18.9786968231201
-17.357400894165
-10.8722190856934
0
0
-1.71666610240936
2.76573991775513
5.24536848068237
2.28888821601868
-4.67314672470093
-11.635181427002
-16.5944385528564
-16.1175880432129
-8.10647869110107
-4.57777643203735
-10.8722190856934
-15.1638841629028
-15.1638841629028
-14.5916624069214
-13.6379585266113
-10.1092557907104
-4.57777643203735
-3.71944332122803
-3.147221326828
-9.15555286407471
-27.0851764678955
-52.1675758361816
-90.5064544677734
-118.545333862305
-125.888847351074
-151.448104858398
-203.997161865234
-253.208251953125
-279.339721679688
-298.318420410156
-301.942504882813
-230.128631591797
-69.7157211303711
105.288856506348
251.110107421875
372.230438232422
467.123931884766
583.284973144531
729.773864746094
828.291381835938
832.583068847656
761.055297851563
627.155334472656
411.999877929688
224.787887573242
234.229553222656
279.72119140625
152.211059570313
-2.00277709960938
-80.111083984375
-124.172180175781
-137.905517578125
-152.687911987305
-183.397171020508
-222.689743041992
-277.241577148438
-323.114715576172
-344.954528808594
-351.630432128906
-340.758209228516
-319.776763916016
-290.974914550781
-261.123992919922
-247.77214050293
-241.38232421875
-238.425842285156
-248.344360351563
-264.175842285156
-269.23046875
-259.884185791016
-240.905471801758
-211.722152709961
-185.495315551758
-166.898101806641
-153.641616821289
-150.303649902344
-147.728652954102
-143.723098754883
-147.34716796875
-151.257354736328
-142.960144042969
-130.943481445313
-119.212921142578
-99.948112487793
-82.7814559936523
-78.012939453125
-79.6342315673828
-84.7842330932617
-89.6481170654297
-86.6916351318359
-78.1083068847656
-64.3749771118164
-49.2110939025879
-36.7175827026367
-18.4064750671387
-13.0657367706299
-11.1583299636841
-10.9675893783569
-7.6296272277832
-0.762962698936462
1.81203651428223
0.858333051204681
7.82036781311035
18.0249938964844
25.9407329559326
32.9981384277344
36.5268402099609
35.9546165466309
36.2407302856445
36.5268402099609
35.1916542053223
37.7666549682617
38.8157272338867
36.1453590393066
37.3851737976074
45.300910949707
52.5490570068359
50.355541229248
48.2573928833008
55.219425201416
60.3694267272949
54.4564628601074
48.4481315612793
54.9333152770996
59.8925743103027
55.219425201416
55.6962776184082
63.2305335998535
64.9472045898438
59.4157218933105
57.0314636230469
59.7972030639648
62.7536849975586
59.5110931396484
50.7370223999023
46.9222068786621
48.9249839782715
51.4999847412109
54.0749816894531
55.219425201416
54.8379440307617
57.1268348693848
64.1842422485352
67.0453491210938
55.5055389404297
42.7259140014648
42.630542755127
49.8786888122559
55.219425201416
55.9823913574219
55.9823913574219
57.3175735473633
59.6064605712891
59.0342407226563
58.0805358886719
56.8407211303711
57.7944259643555
66.7592391967773
69.8110885620117
64.3749771118164
62.6583137512207
59.4157218933105
55.887020111084
58.8434982299805
60.4647941589355
61.1323890686035
67.7129440307617
75.9147872924805
85.7379379272461
96.0379333496094
95.8471908569336
88.7897872924805
84.1166381835938
78.7759017944336
79.4434967041016
84.4981231689453
82.876823425293
84.2120132446289
90.1249694824219
93.9397811889648
97.182373046875
92.986083984375
83.7351608276367
78.6805267333984
73.1490478515625
66.7592391967773
66.1870193481445
71.2416458129883
74.1027526855469
71.1462707519531
70.0018310546875
66.854606628418
60.9416465759277
58.7481307983398
54.170352935791
46.1592445373535
34.1425819396973
24.2240657806396
28.3249912261963
35.0009155273438
40.0555419921875
48.066650390625
44.9194297790527
33.2842483520508
28.1342506408691
22.0305480957031
14.1148099899292
12.4935140609741
16.1175880432129
16.9759197235107
10.7768487930298
3.5287024974823
-3.05185079574585
-9.15555286407471
-14.3055505752563
-23.4611034393311
-29.4694347381592
-32.5212860107422
-35.9546165466309
-38.8157272338867
-37.099063873291
-35.382396697998
-34.3333206176758
-42.4398002624512
-49.2110939025879
-48.734245300293
-53.7888717651367
-62.3722038269043
-66.1870193481445
-72.2907180786133
-72.8629379272461
-61.1323890686035
-53.4073905944824
-59.4157218933105
-71.9092330932617
-79.3481216430664
-85.5471954345703
-90.3157119750977
-87.9314498901367
-87.2638626098633
-90.6018218994141
-93.6536712646484
-88.7897872924805
-79.4434967041016
-74.3888626098633
-75.6286773681641
-76.4870147705078
-67.9990539550781
-68.4759063720703
-79.5388641357422
-78.7759017944336
-75.8194198608398
-79.5388641357422
-78.2036819458008
-72.6721954345703
-75.6286773681641
-79.2527542114258
-73.7212753295898
-75.3425674438477
-80.9694213867188
-80.111083984375
-74.4842376708984
-67.2360916137695
-66.5684967041016
-66.854606628418
-64.4703521728516
-64.2796096801758
-63.6120147705078
-60.9416465759277
-59.9879455566406
-61.7999801635742
-60.0833129882813
-55.5055389404297
-51.8814659118652
-47.017578125
-43.2027626037598
-41.2953567504883
-40.3416519165039
-44.251838684082
-45.2055397033691
-37.4805450439453
-30.70924949646
-27.0851764678955
-26.8944358825684
-27.7527694702148
-23.6518440246582
-20.2185115814209
-21.839807510376
-21.2675857543945
-18.8833274841309
-23.8425846099854
-29.9462871551514
-31.6629524230957
-30.8046188354492
-29.4694347381592
-29.6601753234863
-21.7444381713867
-16.4036979675293
-20.6953639984131
-11.5398111343384
-3.5287024974823
-8.48795986175537
-5.62685012817383
-6.1037015914917
-15.6407356262207
-15.8314762115479
-12.8749961853027
-10.6814785003662
-8.58333015441895
7.6296272277832
3.71944332122803
2.67036962509155
-6.29444265365601
-5.53147983551025
1.52592539787292
13.0657367706299
18.8833274841309
15.5453653335571
15.7361059188843
14.4962921142578
8.77407169342041
9.25092315673828
13.4472179412842
11.7305517196655
10.2999963760376
12.6842555999756
10.5861072540283
8.48795986175537
10.9675893783569
13.4472179412842
16.6898097991943
15.1638841629028
8.77407169342041
4.57777643203735
-1.62129580974579
-1.23981440067291
6.6759238243103
6.58055353164673
10.0138854980469
19.4555492401123
15.7361059188843
7.15277528762817
2.76573991775513
1.62129580974579
6.96203470230103
12.1120328903198
18.4064750671387
24.5101776123047
23.8425846099854
26.9898052215576
34.810173034668
36.3360977172852
33.1888771057129
28.8018417358398
23.4611034393311
27.7527694702148
35.1916542053223
31.1861019134521
27.8481388092041
25.4638805389404
11.5398111343384
4.29166507720947
12.0166625976563
17.6435127258301
20.7907333374023
28.0388793945313
33.5703582763672
38.3388748168945
45.6823921203613
48.6388740539551
50.4509086608887
57.7944259643555
52.7397994995117
32.6166572570801
20.5046234130859
16.4990692138672
13.6379585266113
16.30832862854
17.1666603088379
15.0685138702393
20.5999927520752
18.5018463134766
15.6407356262207
20.2185115814209
20.7907333374023
15.0685138702393
8.10647869110107
0.381481349468231
1.52592539787292
11.5398111343384
16.5944385528564
19.4555492401123
26.9898052215576
31.1861019134521
28.8018417358398
23.4611034393311
15.0685138702393
12.6842555999756
11.3490705490112
3.147221326828
4.86388731002808
17.0712909698486
23.7472152709961
25.2731399536133
28.6111011505127
27.7527694702148
22.0305480957031
19.9324016571045
23.1749935150146
22.5074005126953
15.7361059188843
12.8749961853027
13.6379585266113
13.3518476486206
9.25092315673828
0.858333051204681
-9.15555286407471
-34.5240631103516
-74.8657150268555
-106.051818847656
-123.313850402832
-143.15087890625
-181.775863647461
-230.79621887207
-257.404541015625
-266.369354248047
-270.756408691406
-221.640670776367
-79.4434967041016
99.1851501464844
264.366577148438
435.7470703125
570.600769042969
666.9248046875
803.78125
926.713562011719
945.406188964844
880.840454101563
753.997924804688
539.796142578125
315.103607177734
239.47492980957
243.194366455078
128.177734375
-39.6740608215332
-132.374038696289
-179.010131835938
-199.037902832031
-205.618453979492
-225.264739990234
-246.627700805664
-275.715637207031
-324.259155273438
-354.777648925781
-353.633209228516
-350.772094726563
-342.570251464844
-316.248046875
-293.263793945313
-283.249908447266
-278.099914550781
-281.437866210938
-289.735107421875
-290.7841796875
-290.021209716797
-281.056396484375
-258.358245849609
-231.559188842773
-205.046234130859
-179.677719116211
-162.892547607422
-163.369384765625
-173.764755249023
-174.813827514648
-170.903656005859
-166.039764404297
-153.450881958008
-133.613845825195
-108.817558288574
-95.5610809326172
-88.0268249511719
-72.2907180786133
-69.8110885620117
-77.0592346191406
-75.9147872924805
-73.0536804199219
-63.8027572631836
-49.6879463195801
-39.2925796508789
-25.6546211242676
-9.9185152053833
0.572222054004669
1.43055510520935
-2.76573991775513
-2.38425850868225
0
0.47685170173645
6.77129411697388
11.7305517196655
12.6842555999756
21.3629570007324
34.4286918640137
42.3444290161133
43.9657249450684
43.2981338500977
41.5814666748047
39.197208404541
41.1046180725098
46.2546157836914
47.3990592956543
51.2138710021973
61.6092376708984
67.5222015380859
67.6175689697266
68.5712738037109
64.3749771118164
57.2222023010254
61.7999801635742
66.854606628418
61.1323890686035
55.4101676940918
61.323127746582
65.0425720214844
57.4129447937012
62.0860900878906
65.3286819458008
60.4647941589355
56.0777587890625
60.6555366516113
58.7481307983398
52.3583183288574
55.1240577697754
59.0342407226563
64.0888671875
70.6694183349609
69.7157211303711
65.5194244384766
62.0860900878906
55.4101676940918
47.3036880493164
44.6333198547363
41.4860992431641
38.7203598022461
40.7231369018555
37.8620262145996
38.2435073852539
50.2601699829102
55.0286865234375
49.8786888122559
48.6388740539551
49.8786888122559
48.4481315612793
50.1647987365723
51.5953521728516
53.7888717651367
62.0860900878906
61.6092376708984
56.6499824523926
58.7481307983398
58.652759552002
58.5573883056641
60.6555366516113
61.5138702392578
65.137939453125
73.6259002685547
80.3018264770508
80.0157165527344
79.9203414916992
84.5934906005859
86.4055252075195
83.1629333496094
78.4897918701172
70.6694183349609
72.1953506469727
81.9231185913086
89.3620071411133
90.8879318237305
92.6999740600586
96.6101531982422
93.7490463256836
84.6888580322266
76.6777496337891
73.5305328369141
74.1027526855469
74.0073852539063
75.3425674438477
80.8740463256836
82.9721984863281
80.6833038330078
78.2036819458008
70.1925735473633
58.7481307983398
55.6009063720703
55.5055389404297
51.7860946655273
50.9277610778809
45.9685020446777
38.9110984802246
37.6712837219238
28.3249912261963
13.256477355957
7.72499752044678
6.29444265365601
4.1962947845459
-0.190740674734116
-7.53425693511963
-8.58333015441895
-10.204626083374
-18.2157344818115
-20.1231422424316
-18.6925868988037
-22.5074005126953
-28.8018417358398
-33.8564720153809
-33.0935096740723
-30.0416564941406
-34.5240631103516
-39.1018409729004
-33.5703582763672
-30.4231376647949
-40.7231369018555
-52.8351669311523
-61.323127746582
-68.8573837280273
-73.4351654052734
-77.0592346191406
-79.5388641357422
-74.9610900878906
-69.9064559936523
-69.6203460693359
-67.9990539550781
-69.6203460693359
-74.8657150268555
-78.4897918701172
-85.2610855102539
-93.1768188476563
-96.4194107055664
-95.1795959472656
-87.6453399658203
-78.5851593017578
-76.7731246948242
-80.5879364013672
-79.1573791503906
-76.6777496337891
-85.4518280029297
-90.7925643920898
-87.3592300415039
-95.4657135009766
-102.427742004395
-93.8444137573242
-84.4027481079102
-77.0592346191406
-72.3860855102539
-70.0971984863281
-68.4759063720703
-72.3860855102539
-71.9092330932617
-63.8027572631836
-64.0888671875
-68.0944213867188
-68.9527587890625
-76.3916397094727
-85.2610855102539
-89.3620071411133
-88.5990447998047
-81.16015625
-80.2064590454102
-84.4027481079102
-79.8249740600586
-72.6721954345703
-68.3805313110352
-65.3286819458008
-66.854606628418
-68.8573837280273
-60.274055480957
-45.6823921203613
-38.4342460632324
-39.864803314209
-43.8703575134277
-42.630542755127
-38.4342460632324
-36.7175827026367
-31.6629524230957
-26.7990646362305
-22.3166599273682
-13.256477355957
-12.4935140609741
-19.2648086547852
-17.9296245574951
-15.2592544555664
-17.5481433868408
-15.35462474823
-14.4009208679199
-18.1203651428223
-23.5564746856689
-20.9814739227295
-11.9212923049927
-4.38703584671021
-1.9074068069458
-5.81759071350098
-7.53425693511963
-2.09814739227295
-2.67036962509155
-9.72777462005615
-6.29444265365601
-1.33518481254578
-2.76573991775513
0.9537034034729
-0.858333051204681
-11.0629596710205
-12.4935140609741
-9.9185152053833
-10.2999963760376
-8.58333015441895
-3.91018390655518
-2.38425850868225
-0.0953703373670578
3.62407302856445
-1.43055510520935
-7.24814605712891
-1.23981440067291
7.6296272277832
8.96481227874756
8.58333015441895
12.4935140609741
17.9296245574951
20.6953639984131
15.7361059188843
6.58055353164673
3.71944332122803
8.20184898376465
10.7768487930298
10.6814785003662
11.635181427002
18.5972156524658
30.8046188354492
39.1018409729004
42.2490615844727
41.7722091674805
37.1944313049316
30.8046188354492
25.5592517852783
24.891658782959
30.70924949646
33.9518394470215
33.1888771057129
37.9573936462402
38.6249885559082
34.4286918640137
32.2351760864258
29.278694152832
30.70924949646
37.2898025512695
45.8731346130371
49.8786888122559
46.9222068786621
42.5351715087891
41.4860992431641
44.4425773620605
48.066650390625
49.4018363952637
43.7749862670898
41.1999855041504
44.6333198547363
43.5842437744141
42.4398002624512
45.3962821960449
38.9110984802246
35.9546165466309
48.734245300293
57.7944259643555
54.6472053527832
49.9740562438965
43.8703575134277
43.2027626037598
54.5518341064453
59.1296119689941
51.5953521728516
41.0092468261719
29.1833248138428
24.5101776123047
25.8453617095947
27.5620288848877
25.3685111999512
15.1638841629028
4.7685170173645
3.33796191215515
7.53425693511963
9.34629344940186
9.82314491271973
9.63240432739258
7.53425693511963
7.0574049949646
0.572222054004669
-7.0574049949646
-6.38981294631958
-1.81203651428223
7.43888664245605
12.8749961853027
11.9212923049927
11.7305517196655
10.204626083374
13.3518476486206
12.9703664779663
2.8611102104187
3.91018390655518
9.25092315673828
2.47962880134583
-1.04907369613647
-1.04907369613647
-5.1499981880188
-3.24259161949158
2.38425850868225
1.23981440067291
0
2.76573991775513
4.00555419921875
2.00277709960938
6.38981294631958
14.2101802825928
8.58333015441895
-3.8148136138916
-8.48795986175537
-18.4064750671387
-47.4944305419922
-82.6860809326172
-107.100891113281
-116.924034118652
-146.870330810547
-208.574935913086
-249.202697753906
-270.088806152344
-283.059173583984
-231.082336425781
-83.0675659179688
107.196258544922
270.565643310547
428.308197021484
570.409973144531
687.047912597656
848.12841796875
985.366333007813
1005.01263427734
933.294128417969
792.813659667969
572.8896484375
327.406372070313
219.447158813477
233.371215820313
151.161987304688
-27.5620288848877
-156.502731323242
-215.536972045898
-232.703628540039
-237.376770019531
-255.115661621094
-284.298980712891
-325.880462646484
-376.426727294922
-414.670227050781
-426.686889648438
-420.77392578125
-405.80078125
-368.224884033203
-327.215637207031
-298.986022949219
-282.582305908203
-277.9091796875
-289.830474853516
-302.037872314453
-306.997131347656
-301.465637207031
-282.868438720703
-253.494369506836
-220.591598510742
-197.416610717773
-183.397171020508
-172.715682983398
-170.617538452148
-173.860122680664
-175.004577636719
-174.050872802734
-163.750869750977
-144.772171020508
-124.553665161133
-103.286079406738
-89.5527496337891
-84.9749755859375
-79.1573791503906
-75.0564575195313
-77.5360870361328
-79.9203414916992
-71.7184982299805
-51.8814659118652
-36.6222114562988
-27.657398223877
-14.2101802825928
-2.95648050308228
5.1499981880188
5.62685012817383
-5.62685012817383
-10.0138854980469
-6.19907188415527
-3.147221326828
4.67314672470093
15.2592544555664
23.8425846099854
36.5268402099609
47.6851692199707
49.3064651489258
49.1157264709473
47.7805404663086
44.4425773620605
43.3935050964355
42.9166526794434
47.1129493713379
51.1185035705566
45.6823921203613
48.6388740539551
55.9823913574219
52.453685760498
55.6962776184082
63.5166473388672
61.323127746582
61.323127746582
61.2277565002441
59.701831817627
49.5925750732422
51.5953521728516
62.8490524291992
62.7536849975586
65.3286819458008
73.2444229125977
67.7129440307617
58.9388694763184
53.3120193481445
50.355541229248
59.2249794006348
65.137939453125
58.7481307983398
53.5981292724609
52.5490570068359
53.121280670166
55.219425201416
51.404613494873
44.8240585327148
43.3935050964355
43.9657249450684
44.9194297790527
50.7370223999023
57.2222023010254
57.6990547180176
54.6472053527832
50.5462799072266
45.300910949707
38.0527648925781
34.810173034668
41.8675804138184
42.9166526794434
35.4777679443359
37.9573936462402
49.4018363952637
57.1268348693848
55.6009063720703
50.4509086608887
54.170352935791
60.6555366516113
55.0286865234375
44.9194297790527
46.7314682006836
58.8434982299805
71.5277557373047
82.3999710083008
93.0814514160156
98.7083053588867
96.3240432739258
91.6508941650391
87.1684875488281
83.7351608276367
81.827751159668
80.9694213867188
91.9370040893555
109.771263122559
111.964782714844
107.100891113281
108.912925720215
106.337928771973
103.667556762695
107.387001037598
102.141632080078
98.3268203735352
110.057373046875
113.681442260742
106.910148620605
107.577743530273
101.569412231445
88.6944122314453
84.8796005249023
80.0157165527344
72.8629379272461
70.8601608276367
72.9583129882813
75.1518249511719
65.805534362793
50.7370223999023
46.2546157836914
47.8759117126465
39.864803314209
25.2731399536133
20.2185115814209
20.8861045837402
21.1722145080566
20.0277709960938
13.6379585266113
12.1120328903198
11.635181427002
7.0574049949646
4.38703584671021
-4.95925760269165
-12.8749961853027
-11.4444408416748
-16.9759197235107
-21.3629570007324
-13.4472179412842
-12.2074031829834
-17.8342533111572
-28.7064723968506
-49.2110939025879
-62.5629425048828
-62.8490524291992
-61.6092376708984
-65.805534362793
-69.6203460693359
-66.6638641357422
-68.2851638793945
-75.6286773681641
-78.012939453125
-80.8740463256836
-84.3073806762695
-82.876823425293
-81.5416412353516
-81.827751159668
-84.1166381835938
-82.0184936523438
-75.7240524291992
-79.1573791503906
-87.0731201171875
-86.5009002685547
-86.5009002685547
-92.1277465820313
-91.6508941650391
-93.4629364013672
-106.624038696289
-112.727745056152
-105.479598999023
-95.751823425293
-91.4601593017578
-85.6425628662109
-79.1573791503906
-82.5907135009766
-87.5499725341797
-87.5499725341797
-89.5527496337891
-94.03515625
-93.7490463256836
-92.986083984375
-95.3703384399414
-90.5064544677734
-86.7870101928711
-83.5444183349609
-74.1027526855469
-77.5360870361328
-82.6860809326172
-81.2555313110352
-85.4518280029297
-82.3046035766602
-74.7703475952148
-72.5768280029297
-69.6203460693359
-70.2879409790039
-70.0018310546875
-65.0425720214844
-60.274055480957
-55.1240577697754
-49.6879463195801
-46.4453544616699
-49.4018363952637
-50.9277610778809
-45.8731346130371
-43.5842437744141
-43.2027626037598
-46.0638732910156
-48.6388740539551
-42.9166526794434
-41.6768379211426
-42.3444290161133
-37.5759124755859
-35.8592491149902
-31.6629524230957
-23.3657341003418
-17.6435127258301
-17.8342533111572
-10.8722190856934
-13.5425882339478
-21.2675857543945
-18.0249938964844
-14.1148099899292
-16.8805503845215
-16.022216796875
-9.82314491271973
-8.96481227874756
-12.0166625976563
-11.9212923049927
-11.635181427002
-10.4907369613647
-10.0138854980469
-9.25092315673828
-5.24536848068237
-5.7222204208374
-2.76573991775513
4.57777643203735
6.96203470230103
14.9731435775757
21.1722145080566
11.7305517196655
3.8148136138916
8.0111083984375
12.2074031829834
12.4935140609741
15.6407356262207
16.30832862854
11.9212923049927
13.0657367706299
11.1583299636841
2.5749990940094
4.95925760269165
14.5916624069214
18.3111057281494
17.8342533111572
18.2157344818115
20.0277709960938
16.5944385528564
10.7768487930298
10.7768487930298
14.2101802825928
14.9731435775757
12.302773475647
15.0685138702393
18.5018463134766
16.022216796875
16.30832862854
18.9786968231201
26.226842880249
34.3333206176758
32.9027671813965
30.0416564941406
27.943510055542
26.3222141265869
30.2323970794678
34.6194343566895
34.4286918640137
36.8129501342773
40.8185043334961
39.9601707458496
37.8620262145996
37.3851737976074
39.1018409729004
43.2027626037598
42.3444290161133
38.5296173095703
41.3907279968262
46.3499870300293
47.7805404663086
46.9222068786621
40.5323944091797
32.9027671813965
29.0879535675049
27.8481388092041
26.9898052215576
24.3194370269775
28.8972129821777
42.630542755127
44.9194297790527
39.6740608215332
40.5323944091797
34.7148017883301
28.2296199798584
35.1916542053223
44.4425773620605
43.3935050964355
36.5268402099609
39.9601707458496
45.8731346130371
48.066650390625
55.6962776184082
54.170352935791
42.630542755127
32.7120246887207
21.7444381713867
11.9212923049927
5.62685012817383
-0.9537034034729
-3.8148136138916
1.52592539787292
7.0574049949646
12.0166625976563
18.787956237793
15.9268465042114
8.29721927642822
7.82036781311035
6.6759238243103
1.52592539787292
3.24259161949158
13.6379585266113
14.5916624069214
9.15555286407471
8.3925895690918
4.38703584671021
3.147221326828
6.29444265365601
5.62685012817383
6.19907188415527
3.5287024974823
-2.09814739227295
-1.33518481254578
-1.14444410800934
-1.14444410800934
3.91018390655518
6.48518323898315
1.14444410800934
-6.58055353164673
-10.204626083374
-10.204626083374
-9.72777462005615
-12.588885307312
-13.4472179412842
-3.24259161949158
4.00555419921875
0.858333051204681
2.1935179233551
3.147221326828
-9.06018257141113
-33.1888771057129
-68.4759063720703
-102.332374572754
-119.022186279297
-138.76383972168
-187.021240234375
-238.235107421875
-267.704528808594
-286.206390380859
-269.516571044922
-184.350860595703
-28.8972129821777
145.916625976563
301.27490234375
443.758178710938
547.425720214844
671.216430664063
850.321960449219
955.03857421875
931.768249511719
836.874755859375
680.944213867188
445.856353759766
245.006408691406
230.033264160156
260.074920654297
134.758285522461
-39.3879508972168
-141.624954223633
-191.980499267578
-201.422164916992
-205.523086547852
-232.703628540039
-269.898071289063
-312.242492675781
-350.581359863281
-373.279510498047
-381.576721191406
-376.998962402344
-354.300811767578
-324.831390380859
-297.07861328125
-271.614715576172
-256.546203613281
-253.398986816406
-265.0341796875
-282.582305908203
-284.585083007813
-275.048065185547
-261.696197509766
-231.559188842773
-199.037902832031
-171.475875854492
-161.175872802734
-150.780502319336
-151.066619873047
-164.418472290039
-167.565689086914
-158.219390869141
-140.099029541016
-114.34903717041
-89.0758972167969
-72.0999755859375
-69.0481262207031
-67.2360916137695
-67.8083114624023
-75.8194198608398
-72.9583129882813
-62.1814613342285
-53.7888717651367
-48.8296127319336
-45.300910949707
-35.382396697998
-21.2675857543945
-9.9185152053833
-4.95925760269165
-5.53147983551025
-9.44166374206543
-7.91573810577393
-2.1935179233551
-2.00277709960938
7.0574049949646
23.1749935150146
28.1342506408691
30.8999900817871
36.2407302856445
37.7666549682617
36.0499877929688
29.6601753234863
22.4120292663574
23.7472152709961
26.9898052215576
26.5129547119141
33.5703582763672
47.3990592956543
53.6935005187988
54.5518341064453
60.3694267272949
61.6092376708984
54.3610954284668
56.0777587890625
60.8462753295898
56.4592399597168
56.6499824523926
59.7972030639648
59.2249794006348
61.7999801635742
61.7999801635742
59.7972030639648
62.6583137512207
60.1786842346191
57.9851684570313
61.1323890686035
62.3722038269043
60.6555366516113
55.219425201416
51.2138710021973
53.7888717651367
58.8434982299805
60.0833129882813
54.4564628601074
44.251838684082
41.1046180725098
46.5407257080078
41.962947845459
36.8129501342773
48.3527641296387
55.3147964477539
55.0286865234375
60.0833129882813
61.323127746582
53.121280670166
48.3527641296387
52.6444282531738
49.6879463195801
40.1509132385254
42.3444290161133
47.7805404663086
50.355541229248
62.4675712585449
76.9638671875
83.5444183349609
79.1573791503906
68.4759063720703
65.5194244384766
64.8518295288086
61.0370178222656
64.5657196044922
73.9120101928711
82.876823425293
90.4110794067383
92.2231216430664
87.5499725341797
84.7842330932617
82.5907135009766
74.4842376708984
72.5768280029297
82.9721984863281
89.6481170654297
97.0870056152344
108.722190856934
103.76293182373
95.3703384399414
95.5610809326172
89.1712646484375
85.8333053588867
87.4546051025391
81.2555313110352
80.5879364013672
89.0758972167969
90.3157119750977
85.4518280029297
81.5416412353516
78.012939453125
72.4814605712891
69.7157211303711
74.9610900878906
81.7323837280273
81.0647888183594
68.1897964477539
51.1185035705566
43.5842437744141
41.1999855041504
37.3851737976074
28.7064723968506
16.4036979675293
7.24814605712891
8.29721927642822
15.5453653335571
10.9675893783569
2.95648050308228
2.5749990940094
1.23981440067291
-2.76573991775513
-14.8777732849121
-30.8046188354492
-37.8620262145996
-39.5786895751953
-44.4425773620605
-48.8296127319336
-46.1592445373535
-42.8212814331055
-44.5379486083984
-48.734245300293
-55.7916488647461
-59.2249794006348
-60.274055480957
-67.0453491210938
-69.2388687133789
-67.3314590454102
-67.4268264770508
-70.8601608276367
-77.6314544677734
-81.16015625
-85.4518280029297
-92.8907089233398
-98.7083053588867
-96.13330078125
-92.318489074707
-95.084228515625
-91.7462692260742
-86.6916351318359
-89.7434921264648
-91.0786743164063
-90.6018218994141
-93.7490463256836
-99.3758926391602
-103.667556762695
-97.4684906005859
-90.8879318237305
-92.6999740600586
-92.0323791503906
-93.0814514160156
-96.9916381835938
-92.8907089233398
-81.16015625
-74.6749725341797
-79.2527542114258
-80.3971939086914
-77.4407196044922
-81.6370086669922
-85.1657104492188
-83.0675659179688
-82.1138610839844
-83.3536758422852
-76.6777496337891
-73.5305328369141
-77.4407196044922
-78.8712692260742
-77.2499771118164
-73.4351654052734
-67.8083114624023
-64.0888671875
-59.9879455566406
-55.9823913574219
-59.3203506469727
-57.0314636230469
-44.251838684082
-40.8185043334961
-41.962947845459
-38.148136138916
-43.4888763427734
-52.453685760498
-51.9768333435059
-49.4018363952637
-42.9166526794434
-37.2898025512695
-46.3499870300293
-49.2110939025879
-33.8564720153809
-28.4203605651855
-34.4286918640137
-25.7499923706055
-21.6490669250488
-30.8046188354492
-24.6055469512939
-14.4009208679199
-16.022216796875
-15.0685138702393
-14.4009208679199
-20.3138828277588
-19.7416610717773
-9.63240432739258
-4.95925760269165
-9.537034034729
-4.86388731002808
4.86388731002808
2.8611102104187
-2.09814739227295
-2.1935179233551
2.76573991775513
10.7768487930298
9.34629344940186
-1.9074068069458
-8.10647869110107
-4.7685170173645
2.28888821601868
10.1092557907104
16.4990692138672
17.0712909698486
10.8722190856934
13.1611070632935
16.2129573822021
9.34629344940186
11.635181427002
17.0712909698486
12.3981437683105
12.4935140609741
18.0249938964844
18.1203651428223
16.30832862854
13.7333288192749
14.687032699585
19.074068069458
16.4036979675293
17.5481433868408
20.6953639984131
15.2592544555664
13.5425882339478
19.074068069458
25.8453617095947
28.6111011505127
28.1342506408691
22.6981410980225
17.4527721405029
22.9842510223389
31.2814712524414
33.9518394470215
37.8620262145996
39.0064697265625
33.9518394470215
31.2814712524414
27.3712882995605
24.891658782959
25.6546211242676
20.1231422424316
22.7935104370117
34.9055442810059
35.0009155273438
35.4777679443359
45.2055397033691
42.7259140014648
31.8536930084229
30.1370277404785
29.5648059844971
26.7990646362305
32.1398048400879
38.2435073852539
34.0472106933594
25.8453617095947
25.5592517852783
29.1833248138428
27.2759170532227
32.8073959350586
40.6277656555176
35.8592491149902
31.5675830841064
25.177770614624
12.8749961853027
13.6379585266113
19.074068069458
21.5536975860596
35.2870254516602
51.0231323242188
56.3638725280762
54.8379440307617
47.6851692199707
42.5351715087891
45.0148010253906
41.4860992431641
26.4175834655762
16.9759197235107
14.4962921142578
8.77407169342041
4.10092449188232
4.48240613937378
8.96481227874756
12.2074031829834
9.537034034729
10.4907369613647
19.5509204864502
26.8944358825684
25.0823993682861
15.1638841629028
2.67036962509155
-4.00555419921875
0.190740674734116
9.9185152053833
11.4444408416748
16.022216796875
12.302773475647
6.6759238243103
1.71666610240936
-2.09814739227295
-2.8611102104187
-4.67314672470093
-3.33796191215515
2.76573991775513
1.9074068069458
-2.00277709960938
-2.8611102104187
-0.9537034034729
6.38981294631958
7.0574049949646
-5.05462789535522
-8.96481227874756
1.43055510520935
4.86388731002808
5.53147983551025
19.2648086547852
25.9407329559326
20.6953639984131
21.4583263397217
15.2592544555664
-7.24814605712891
-40.8185043334961
-81.4462738037109
-112.060150146484
-125.030517578125
-144.009216308594
-193.887893676758
-250.919357299805
-279.435089111328
-289.162872314453
-286.3017578125
-223.643447875977
-67.9990539550781
107.387001037598
250.919357299805
372.707275390625
470.652618408203
586.432189941406
719.95068359375
815.416381835938
807.214538574219
766.205322265625
630.39794921875
421.536895751953
263.985107421875
293.740661621094
305.089721679688
146.870330810547
-2.8611102104187
-74.1027526855469
-116.828666687012
-135.330505371094
-150.112915039063
-174.527725219727
-212.008270263672
-260.647125244141
-304.517486572266
-325.403594970703
-321.588775634766
-302.705444335938
-278.576751708984
-259.598052978516
-244.243438720703
-237.472152709961
-246.723068237305
-254.25732421875
-257.118438720703
-261.982330322266
-254.734176635742
-240.905471801758
-222.403625488281
-195.413833618164
-178.914764404297
-169.473098754883
-159.459213256836
-155.453659057617
-151.543472290039
-150.112915039063
-149.731430053711
-138.286987304688
-124.93514251709
-116.924034118652
-102.61848449707
-82.9721984863281
-72.3860855102539
-68.4759063720703
-67.5222015380859
-71.7184982299805
-73.2444229125977
-71.8138656616211
-68.0944213867188
-59.1296119689941
-42.3444290161133
-25.5592517852783
-17.1666603088379
-12.8749961853027
-14.4009208679199
-18.8833274841309
-19.1694374084473
-17.0712909698486
-13.5425882339478
-5.91296100616455
6.86666440963745
19.1694374084473
25.4638805389404
27.3712882995605
26.3222141265869
25.6546211242676
26.0361022949219
26.8944358825684
29.7555465698242
28.1342506408691
24.2240657806396
33.5703582763672
39.4833221435547
32.9981384277344
35.8592491149902
45.6823921203613
44.6333198547363
36.2407302856445
35.9546165466309
44.5379486083984
54.5518341064453
61.1323890686035
63.8981285095215
61.8953514099121
56.6499824523926
61.0370178222656
65.805534362793
60.8462753295898
60.4647941589355
58.0805358886719
46.9222068786621
42.1536903381348
48.1620216369629
54.9333152770996
54.6472053527832
52.9305381774902
53.8842430114746
57.5083160400391
61.4184989929199
58.7481307983398
50.2601699829102
42.9166526794434
45.8731346130371
53.9796104431152
50.6416511535645
49.9740562438965
59.1296119689941
57.0314636230469
52.1675758361816
48.9249839782715
38.4342460632324
36.9083213806152
40.4370231628418
35.0962867736816
34.9055442810059
41.4860992431641
46.2546157836914
55.5055389404297
66.0916442871094
70.8601608276367
72.7675704956055
77.1546020507813
80.4925689697266
80.0157165527344
84.2120132446289
89.6481170654297
86.7870101928711
80.3018264770508
76.6777496337891
78.012939453125
82.6860809326172
82.7814559936523
77.1546020507813
72.7675704956055
72.6721954345703
75.4379425048828
78.012939453125
78.012939453125
77.9175643920898
80.0157165527344
73.1490478515625
58.5573883056641
48.9249839782715
47.3990592956543
54.170352935791
54.170352935791
47.017578125
52.9305381774902
65.805534362793
69.6203460693359
62.2768325805664
53.6935005187988
57.2222023010254
60.8462753295898
47.4944305419922
36.431468963623
38.0527648925781
35.6685066223145
29.278694152832
26.3222141265869
19.6462898254395
9.34629344940186
6.48518323898315
7.91573810577393
5.05462789535522
2.47962880134583
-3.5287024974823
3.71944332122803
-1.14444410800934
-2.28888821601868
-6.19907188415527
-4.86388731002808
-10.3953666687012
-17.738883972168
-24.4148063659668
-32.6166572570801
-34.0472106933594
-35.0009155273438
-39.3879508972168
-39.6740608215332
-39.4833221435547
-39.1018409729004
-41.7722091674805
-51.404613494873
-59.0342407226563
-61.2277565002441
-56.5546112060547
-56.6499824523926
-64.3749771118164
-64.8518295288086
-67.6175689697266
-69.8110885620117
-68.9527587890625
-69.3342361450195
-75.3425674438477
-79.06201171875
-72.8629379272461
-70.2879409790039
-72.0046081542969
-69.2388687133789
-71.7184982299805
-70.5740509033203
-64.2796096801758
-61.8953514099121
-60.8462753295898
-67.2360916137695
-72.0046081542969
-66.2823867797852
-61.2277565002441
-61.7046089172363
-65.805534362793
-72.0999755859375
-73.3397903442383
-70.1925735473633
-72.1953506469727
-72.0999755859375
-66.0916442871094
-68.5712738037109
-69.3342361450195
-64.4703521728516
-68.0944213867188
-66.6638641357422
-60.3694267272949
-64.6610870361328
-69.9064559936523
-72.2907180786133
-73.6259002685547
-67.1407165527344
-60.7509078979492
-63.2305335998535
-63.6120147705078
-57.2222023010254
-52.5490570068359
-53.6935005187988
-57.3175735473633
-52.3583183288574
-44.7286911010742
-40.8185043334961
-40.913875579834
-30.70924949646
-31.8536930084229
-31.2814712524414
-24.7962875366211
-27.1805477142334
-31.4722118377686
-28.0388793945313
-24.7009181976318
-21.5536975860596
-21.0768451690674
-26.0361022949219
-27.657398223877
-22.4120292663574
-18.787956237793
-22.6981410980225
-23.8425846099854
-12.588885307312
-6.29444265365601
-8.3925895690918
-9.82314491271973
-12.4935140609741
-11.4444408416748
-8.77407169342041
-10.7768487930298
-17.6435127258301
-15.6407356262207
-6.29444265365601
-8.20184898376465
-10.5861072540283
-10.1092557907104
-16.4990692138672
-21.4583263397217
-16.1175880432129
-2.76573991775513
1.52592539787292
-2.8611102104187
2.67036962509155
10.8722190856934
7.34351634979248
3.8148136138916
2.47962880134583
1.81203651428223
6.00833129882813
4.86388731002808
3.24259161949158
10.2999963760376
15.8314762115479
12.2074031829834
4.00555419921875
-3.8148136138916
-4.86388731002808
3.43333220481873
9.15555286407471
8.29721927642822
9.34629344940186
14.0194396972656
18.9786968231201
23.9379558563232
22.4120292663574
16.30832862854
21.6490669250488
28.8972129821777
28.4203605651855
30.4231376647949
33.1888771057129
31.4722118377686
24.9870281219482
23.9379558563232
32.8073959350586
38.148136138916
36.7175827026367
29.278694152832
25.3685111999512
29.6601753234863
30.1370277404785
36.1453590393066
44.4425773620605
36.7175827026367
33.5703582763672
44.9194297790527
47.017578125
39.0064697265625
37.2898025512695
42.7259140014648
44.6333198547363
46.6360969543457
49.5925750732422
40.4370231628418
27.2759170532227
20.5999927520752
17.0712909698486
18.2157344818115
22.5074005126953
24.7962875366211
29.9462871551514
39.4833221435547
41.1999855041504
34.6194343566895
34.1425819396973
43.3935050964355
49.0203552246094
42.5351715087891
32.04443359375
23.0796222686768
16.5944385528564
14.4962921142578
16.9759197235107
19.2648086547852
19.074068069458
21.0768451690674
24.891658782959
26.1314735412598
25.3685111999512
22.125919342041
16.2129573822021
9.06018257141113
-4.1962947845459
-14.3055505752563
-7.34351634979248
0
3.8148136138916
11.4444408416748
17.2620315551758
22.3166599273682
16.6898097991943
2.5749990940094
-1.04907369613647
0.0953703373670578
0
2.47962880134583
5.34073925018311
2.09814739227295
-2.8611102104187
-3.05185079574585
-2.38425850868225
1.14444410800934
5.24536848068237
5.1499981880188
2.5749990940094
-3.62407302856445
3.71944332122803
15.7361059188843
7.72499752044678
1.62129580974579
2.8611102104187
-6.38981294631958
-13.6379585266113
-36.431468963623
-83.8305282592773
-118.354591369629
-128.273101806641
-142.960144042969
-186.258270263672
-239.379547119141
-268.467498779297
-277.336944580078
-267.990661621094
-202.280487060547
-47.3036880493164
143.436996459961
310.621185302734
463.309112548828
579.088684082031
688.764587402344
836.684020996094
943.975646972656
947.599670410156
868.728454589844
720.427551269531
486.960968017578
277.718414306641
239.856399536133
244.338806152344
112.060150146484
-50.9277610778809
-135.616622924805
-182.252716064453
-205.236968994141
-212.008270263672
-234.229553222656
-269.611938476563
-314.14990234375
-358.401733398438
-374.423950195313
-378.23876953125
-378.23876953125
-348.864715576172
-313.768432617188
-296.601745605469
-277.9091796875
-268.658233642578
-276.478607177734
-278.386016845703
-282.677673339844
-290.879547119141
-283.917510986328
-265.797149658203
-241.096221923828
-210.768447875977
-183.397171020508
-165.276794433594
-157.933288574219
-157.647171020508
-159.363830566406
-161.080505371094
-162.3203125
-158.219390869141
-142.960144042969
-118.44995880127
-93.2721939086914
-79.6342315673828
-78.1083068847656
-76.8684921264648
-73.4351654052734
-73.2444229125977
-71.0509033203125
-65.0425720214844
-53.5981292724609
-31.6629524230957
-11.7305517196655
-0.667592406272888
6.6759238243103
6.6759238243103
2.67036962509155
0
-4.7685170173645
-9.63240432739258
-6.77129411697388
9.15555286407471
26.5129547119141
28.2296199798584
27.5620288848877
36.8129501342773
42.9166526794434
45.1101722717285
46.4453544616699
41.962947845459
37.9573936462402
45.300910949707
59.1296119689941
62.4675712585449
58.7481307983398
62.7536849975586
65.805534362793
62.2768325805664
59.7972030639648
62.7536849975586
66.1870193481445
59.701831817627
52.8351669311523
55.219425201416
57.1268348693848
56.936092376709
54.7425765991211
53.3120193481445
54.5518341064453
55.5055389404297
53.6935005187988
47.017578125
44.7286911010742
48.8296127319336
51.4999847412109
47.3036880493164
44.7286911010742
53.3120193481445
57.6990547180176
58.8434982299805
65.805534362793
64.756462097168
55.3147964477539
49.8786888122559
48.6388740539551
50.9277610778809
53.5027618408203
50.0694274902344
51.4999847412109
60.274055480957
57.6990547180176
50.6416511535645
49.0203552246094
41.962947845459
33.9518394470215
33.3796195983887
37.8620262145996
44.3472061157227
51.5953521728516
61.7046089172363
69.0481262207031
66.5684967041016
61.6092376708984
59.4157218933105
56.7453536987305
55.1240577697754
59.701831817627
68.0944213867188
67.2360916137695
65.4240493774414
75.6286773681641
81.4462738037109
78.4897918701172
76.1055297851563
69.9064559936523
67.7129440307617
75.8194198608398
86.6916351318359
96.2286758422852
104.716636657715
106.337928771973
98.5175628662109
92.986083984375
88.5990447998047
77.4407196044922
71.0509033203125
73.6259002685547
77.7268295288086
79.3481216430664
80.2064590454102
76.9638671875
69.0481262207031
72.3860855102539
73.5305328369141
66.1870193481445
62.1814613342285
50.6416511535645
41.7722091674805
47.4944305419922
54.2657241821289
56.7453536987305
54.8379440307617
45.300910949707
33.9518394470215
25.2731399536133
20.6953639984131
13.7333288192749
4.86388731002808
15.6407356262207
12.4935140609741
4.86388731002808
-7.82036781311035
-9.25092315673828
-12.3981437683105
-22.0305480957031
-25.177770614624
-25.5592517852783
-28.1342506408691
-27.8481388092041
-28.8018417358398
-33.3796195983887
-36.2407302856445
-39.3879508972168
-40.3416519165039
-40.0555419921875
-45.5870208740234
-47.2083168029785
-49.8786888122559
-62.4675712585449
-69.1434936523438
-64.4703521728516
-61.8953514099121
-65.2333145141602
-67.5222015380859
-70.5740509033203
-73.5305328369141
-75.4379425048828
-75.3425674438477
-69.0481262207031
-66.7592391967773
-72.1953506469727
-75.0564575195313
-76.3916397094727
-78.012939453125
-78.9666442871094
-86.3101577758789
-94.5120086669922
-94.03515625
-88.8851547241211
-85.9286727905273
-88.5990447998047
-88.1221923828125
-79.6342315673828
-77.7268295288086
-80.8740463256836
-82.876823425293
-91.5555267333984
-97.7546005249023
-91.5555267333984
-83.2583084106445
-81.6370086669922
-83.0675659179688
-83.8305282592773
-82.1138610839844
-75.6286773681641
-74.0073852539063
-79.729606628418
-78.012939453125
-70.6694183349609
-68.2851638793945
-69.8110885620117
-68.9527587890625
-67.2360916137695
-69.5249786376953
-62.8490524291992
-52.453685760498
-49.9740562438965
-47.3990592956543
-42.7259140014648
-41.7722091674805
-50.6416511535645
-58.0805358886719
-50.6416511535645
-46.8268356323242
-45.300910949707
-32.5212860107422
-24.7009181976318
-27.657398223877
-31.0907306671143
-32.8073959350586
-29.7555465698242
-26.1314735412598
-20.5046234130859
-13.4472179412842
-21.6490669250488
-30.3277683258057
-25.3685111999512
-20.8861045837402
-19.1694374084473
-20.1231422424316
-18.3111057281494
-10.2999963760376
-13.8286991119385
-20.8861045837402
-15.4499950408936
-8.67870044708252
-3.33796191215515
-1.04907369613647
-4.29166507720947
-2.8611102104187
3.24259161949158
5.34073925018311
5.1499981880188
8.29721927642822
10.3953666687012
9.06018257141113
13.5425882339478
21.9351787567139
24.0333251953125
21.9351787567139
16.6898097991943
3.43333220481873
-1.23981440067291
7.34351634979248
4.1962947845459
-4.1962947845459
0.286111027002335
7.91573810577393
9.63240432739258
6.86666440963745
6.77129411697388
10.6814785003662
12.1120328903198
10.3953666687012
12.588885307312
17.8342533111572
21.5536975860596
25.2731399536133
26.5129547119141
23.6518440246582
25.3685111999512
28.2296199798584
21.2675857543945
14.3055505752563
14.8777732849121
19.1694374084473
25.177770614624
28.4203605651855
29.4694347381592
29.8509159088135
24.4148063659668
24.4148063659668
30.8999900817871
27.5620288848877
19.9324016571045
20.1231422424316
22.8888816833496
25.2731399536133
29.8509159088135
30.3277683258057
29.1833248138428
30.1370277404785
27.943510055542
25.4638805389404
22.6027698516846
18.5018463134766
22.0305480957031
25.5592517852783
22.7935104370117
22.0305480957031
24.5101776123047
31.7583236694336
35.7638778686523
28.8972129821777
21.6490669250488
21.839807510376
24.2240657806396
25.9407329559326
26.3222141265869
24.1286964416504
26.1314735412598
28.8018417358398
28.8018417358398
29.8509159088135
21.4583263397217
11.635181427002
13.9240694046021
20.7907333374023
27.657398223877
29.6601753234863
26.1314735412598
27.3712882995605
34.5240631103516
38.148136138916
34.6194343566895
28.8972129821777
26.4175834655762
29.7555465698242
36.7175827026367
37.3851737976074
40.7231369018555
39.197208404541
48.8296127319336
51.9768333435059
50.1647987365723
51.4999847412109
49.6879463195801
39.197208404541
30.3277683258057
24.2240657806396
16.4990692138672
12.0166625976563
7.53425693511963
-1.33518481254578
-5.62685012817383
-4.7685170173645
-3.24259161949158
-8.86944198608398
-8.10647869110107
-1.81203651428223
-5.34073925018311
-16.5944385528564
-20.9814739227295
-13.256477355957
-4.1962947845459
-4.57777643203735
-4.86388731002808
-0.0953703373670578
1.04907369613647
1.23981440067291
4.57777643203735
4.57777643203735
-1.81203651428223
-6.6759238243103
-6.38981294631958
-8.86944198608398
-11.635181427002
-10.2999963760376
-8.96481227874756
-10.0138854980469
-10.1092557907104
-7.6296272277832
-7.15277528762817
-6.1037015914917
-1.71666610240936
2.38425850868225
5.7222204208374
4.48240613937378
6.00833129882813
13.8286991119385
11.2537002563477
1.14444410800934
-4.00555419921875
-14.1148099899292
-39.0064697265625
-68.4759063720703
-91.3647842407227
-109.580520629883
-136.951812744141
-192.361968994141
-249.87028503418
-277.9091796875
-288.304534912109
-265.320281982422
-166.421249389648
8.86944198608398
194.46012878418
348.483215332031
483.527618408203
589.6748046875
728.820129394531
902.298767089844
980.120971679688
938.25341796875
830.866394042969
662.251647949219
415.051727294922
213.534194946289
196.462905883789
211.722152709961
85.7379379272461
-77.345344543457
-164.895324707031
-202.85270690918
-219.256408691406
-231.082336425781
-257.499908447266
-297.841583251953
-337.706359863281
-371.467468261719
-399.697082519531
-408.18505859375
-397.980438232422
-374.996185302734
-338.183227539063
-307.473968505859
-285.920288085938
-264.557312011719
-262.554534912109
-282.868438720703
-294.6943359375
-292.977691650391
-288.972137451172
-271.519348144531
-236.041595458984
-205.427719116211
-183.111053466797
-159.363830566406
-149.159210205078
-156.979583740234
-165.467544555664
-166.135131835938
-165.181427001953
-158.1240234375
-135.139770507813
-108.817558288574
-88.9805297851563
-74.9610900878906
-72.1953506469727
-77.4407196044922
-80.4925689697266
-78.2036819458008
-75.7240524291992
-75.4379425048828
-67.2360916137695
-52.8351669311523
-39.6740608215332
-24.5101776123047
-14.2101802825928
-10.6814785003662
-7.6296272277832
-5.43610954284668
0.190740674734116
3.33796191215515
4.00555419921875
15.4499950408936
29.278694152832
36.3360977172852
40.7231369018555
43.2981338500977
41.6768379211426
37.9573936462402
38.2435073852539
40.913875579834
42.4398002624512
48.066650390625
56.6499824523926
61.7999801635742
62.1814613342285
62.9444236755371
65.805534362793
63.4212760925293
56.2685012817383
54.6472053527832
52.1675758361816
45.3962821960449
46.6360969543457
49.6879463195801
50.2601699829102
58.8434982299805
67.7129440307617
69.4296035766602
66.4731292724609
63.8981285095215
64.2796096801758
58.9388694763184
48.066650390625
43.7749862670898
48.066650390625
52.1675758361816
55.3147964477539
50.6416511535645
45.7777633666992
46.8268356323242
49.2110939025879
45.2055397033691
37.7666549682617
37.8620262145996
38.9110984802246
38.8157272338867
43.2027626037598
44.8240585327148
50.7370223999023
60.9416465759277
60.6555366516113
55.6962776184082
52.9305381774902
45.3962821960449
39.4833221435547
45.300910949707
51.7860946655273
52.2629470825195
61.2277565002441
65.6147918701172
70.0018310546875
70.7647933959961
68.1897964477539
67.0453491210938
66.0916442871094
64.5657196044922
69.9064559936523
76.8684921264648
82.3046035766602
87.4546051025391
89.4573822021484
92.6045989990234
88.4083023071289
78.5851593017578
78.2036819458008
79.3481216430664
80.8740463256836
87.2638626098633
90.1249694824219
95.8471908569336
102.237007141113
98.899040222168
99.8527450561523
103.572189331055
94.6073760986328
86.9777526855469
89.8388595581055
90.6971969604492
89.4573822021484
93.7490463256836
100.043487548828
107.291633605957
103.953666687012
81.2555313110352
71.1462707519531
79.6342315673828
74.2934951782227
67.4268264770508
71.7184982299805
68.7620162963867
60.4647941589355
54.6472053527832
51.0231323242188
43.4888763427734
31.9490642547607
27.4666576385498
18.9786968231201
13.1611070632935
13.1611070632935
9.82314491271973
8.77407169342041
13.6379585266113
12.4935140609741
10.4907369613647
6.48518323898315
-4.29166507720947
-11.0629596710205
-15.6407356262207
-24.0333251953125
-22.2212886810303
-17.738883972168
-25.4638805389404
-31.2814712524414
-38.3388748168945
-51.5953521728516
-53.6935005187988
-54.2657241821289
-57.5083160400391
-52.8351669311523
-55.3147964477539
-55.1240577697754
-52.6444282531738
-52.9305381774902
-60.4647941589355
-62.6583137512207
-64.4703521728516
-74.0073852539063
-82.7814559936523
-82.2092361450195
-77.6314544677734
-74.2934951782227
-74.198127746582
-80.4925689697266
-87.3592300415039
-91.4601593017578
-96.4194107055664
-95.9425582885742
-93.5583038330078
-90.3157119750977
-84.2120132446289
-82.0184936523438
-79.729606628418
-83.0675659179688
-90.0296020507813
-86.6916351318359
-83.7351608276367
-89.0758972167969
-91.5555267333984
-87.0731201171875
-85.3564529418945
-86.3101577758789
-84.5934906005859
-82.5907135009766
-76.4870147705078
-77.6314544677734
-85.6425628662109
-77.7268295288086
-68.8573837280273
-76.0101623535156
-81.2555313110352
-79.3481216430664
-78.1083068847656
-73.9120101928711
-70.0971984863281
-67.9990539550781
-64.5657196044922
-61.99072265625
-61.6092376708984
-64.9472045898438
-68.1897964477539
-67.8083114624023
-67.1407165527344
-64.1842422485352
-57.2222023010254
-51.3092422485352
-48.1620216369629
-43.0120239257813
-37.2898025512695
-36.9083213806152
-41.3907279968262
-46.0638732910156
-46.3499870300293
-42.1536903381348
-35.7638778686523
-28.4203605651855
-24.4148063659668
-27.8481388092041
-26.226842880249
-16.30832862854
-18.0249938964844
-23.6518440246582
-19.360179901123
-23.0796222686768
-30.5185089111328
-27.3712882995605
-18.6925868988037
-9.06018257141113
-4.10092449188232
-5.24536848068237
-4.29166507720947
-4.86388731002808
-9.44166374206543
-8.3925895690918
-7.91573810577393
-12.3981437683105
-8.96481227874756
-3.05185079574585
-3.62407302856445
-2.09814739227295
2.5749990940094
-0.286111027002335
-4.7685170173645
-0.762962698936462
-0.762962698936462
-6.00833129882813
-0.0953703373670578
10.3953666687012
7.72499752044678
7.0574049949646
17.5481433868408
19.5509204864502
14.0194396972656
12.8749961853027
9.537034034729
9.63240432739258
20.9814739227295
24.1286964416504
20.7907333374023
25.2731399536133
25.6546211242676
27.4666576385498
36.2407302856445
38.0527648925781
38.5296173095703
37.0036926269531
29.0879535675049
26.5129547119141
27.0851764678955
25.4638805389404
25.5592517852783
30.0416564941406
29.1833248138428
18.8833274841309
13.256477355957
13.5425882339478
14.0194396972656
17.1666603088379
21.7444381713867
25.8453617095947
26.5129547119141
25.0823993682861
25.7499923706055
25.6546211242676
24.6055469512939
21.3629570007324
23.8425846099854
28.8018417358398
22.0305480957031
21.6490669250488
28.7064723968506
28.5157318115234
30.8046188354492
30.2323970794678
19.1694374084473
16.022216796875
21.6490669250488
22.125919342041
19.7416610717773
18.787956237793
19.4555492401123
27.8481388092041
34.3333206176758
26.9898052215576
20.3138828277588
24.2240657806396
26.5129547119141
24.1286964416504
24.7009181976318
23.6518440246582
22.9842510223389
25.7499923706055
29.7555465698242
38.2435073852539
46.0638732910156
48.4481315612793
44.4425773620605
36.5268402099609
28.8972129821777
30.0416564941406
30.3277683258057
30.2323970794678
34.0472106933594
30.995361328125
14.4009208679199
7.0574049949646
17.8342533111572
33.2842483520508
36.2407302856445
28.2296199798584
29.3740653991699
39.0064697265625
43.9657249450684
48.2573928833008
54.5518341064453
51.6907234191895
46.5407257080078
43.9657249450684
30.6138782501221
22.7935104370117
25.7499923706055
15.5453653335571
4.7685170173645
6.86666440963745
1.23981440067291
-7.34351634979248
-0.858333051204681
3.91018390655518
-4.10092449188232
-6.48518323898315
-0.286111027002335
-6.19907188415527
-15.6407356262207
-13.256477355957
-12.9703664779663
-10.5861072540283
-1.33518481254578
-3.24259161949158
-4.57777643203735
-0.858333051204681
-9.72777462005615
-13.5425882339478
-4.95925760269165
-10.8722190856934
-18.9786968231201
-9.82314491271973
-6.19907188415527
-9.537034034729
-2.5749990940094
4.67314672470093
4.10092449188232
4.48240613937378
10.3953666687012
11.635181427002
3.8148136138916
0.762962698936462
3.8148136138916
2.1935179233551
0.47685170173645
2.8611102104187
3.33796191215515
-2.76573991775513
-8.20184898376465
-4.86388731002808
-6.96203470230103
-23.3657341003418
-42.7259140014648
-69.6203460693359
-101.474044799805
-119.68977355957
-127.891624450684
-154.309204101563
-210.673080444336
-251.586959838867
-266.083251953125
-282.200836181641
-253.685104370117
-134.472183227539
42.3444290161133
202.089752197266
341.425811767578
471.987823486328
576.704467773438
726.054382324219
886.75341796875
932.721923828125
871.112670898438
754.474731445313
568.979431152344
317.869354248047
164.227722167969
204.474014282227
227.076782226563
81.9231185913086
-78.2036819458008
-153.927734375
-190.931427001953
-200.373077392578
-203.424942016602
-231.749923706055
-272.282318115234
-312.242492675781
-349.436920166016
-373.565612792969
-386.154510498047
-393.498016357422
-355.826751708984
-319.395263671875
-285.634155273438
-260.837890625
-249.107330322266
-251.300842285156
-273.4267578125
-296.124908447266
-297.269348144531
-283.154541015625
-255.497146606445
-215.346221923828
-182.538833618164
-160.985137939453
-147.44255065918
-145.916625976563
-146.488845825195
-149.731430053711
-157.265686035156
-151.257354736328
-131.134216308594
-106.528671264648
-77.9175643920898
-54.5518341064453
-46.3499870300293
-51.5953521728516
-57.6036834716797
-63.1351661682129
-71.4323883056641
-70.0018310546875
-64.0888671875
-55.887020111084
-33.1888771057129
-15.9268465042114
-12.8749961853027
-8.58333015441895
-4.29166507720947
-3.71944332122803
-5.91296100616455
-4.86388731002808
6.00833129882813
18.4064750671387
26.4175834655762
30.3277683258057
29.6601753234863
30.3277683258057
32.2351760864258
26.3222141265869
17.5481433868408
21.1722145080566
31.0907306671143
36.8129501342773
44.0610961914063
47.1129493713379
48.066650390625
55.6962776184082
57.1268348693848
54.0749816894531
57.6990547180176
60.5601654052734
54.5518341064453
54.4564628601074
43.9657249450684
38.7203598022461
43.9657249450684
52.5490570068359
58.2712783813477
60.7509078979492
57.4129447937012
53.4073905944824
52.453685760498
50.7370223999023
50.832389831543
52.453685760498
52.8351669311523
51.0231323242188
49.0203552246094
50.0694274902344
53.4073905944824
57.5083160400391
56.1731300354004
51.0231323242188
48.1620216369629
41.7722091674805
37.0036926269531
38.9110984802246
36.1453590393066
33.9518394470215
40.7231369018555
48.734245300293
49.8786888122559
49.4972076416016
51.0231323242188
44.8240585327148
37.5759124755859
38.9110984802246
40.6277656555176
43.9657249450684
47.4944305419922
50.832389831543
55.6962776184082
57.5083160400391
55.0286865234375
51.2138710021973
52.9305381774902
59.3203506469727
67.4268264770508
75.7240524291992
81.16015625
88.3129348754883
98.4221878051758
101.760154724121
97.9453353881836
96.800895690918
92.1277465820313
85.2610855102539
87.7407150268555
91.9370040893555
94.416633605957
102.141632080078
106.624038696289
104.812004089355
109.294410705566
114.062927246094
106.624038696289
98.1360778808594
97.0870056152344
96.8962631225586
97.849967956543
102.52311706543
107.005523681641
108.054595947266
106.719413757324
