Value(μV)
43.5827993723841
45.8399086503715
46.2651696818961
45.3292409769989
43.9107567999408
42.6549612652621
41.8383517069933
41.5256448614018
41.6665128253875
42.1205348195237
42.763992034996
43.6186007706292
44.796718440713
46.2909610380809
47.9104555873918
49.5122250765004
51.2473109988602
53.4517098759138
56.2534325859083
59.3713117316772
62.3713933628914
65.061739394458
67.5254953068367
69.7808572976752
71.5710702917793
72.620095733702
73.0411760462191
73.3291461162003
73.8797142576325
74.6052260692452
75.1189407990677
75.2422412879052
75.1844153445943
75.1877040983901
75.1400561256604
74.6969045351909
73.7691064681813
72.7334215330911
72.0700832125724
71.8720306837303
71.8300569985489
71.6773251706836
71.5024210815334
71.5587427803366
71.8895709672082
72.3137423738357
72.7862758845371
73.601152850297
75.0974904761002
77.2086913079034
79.4304859431881
81.2429702717584
82.4281180479197
82.8891848331233
82.2894619126642
80.1126373583747
76.1850244046229
71.0221331098651
65.5004983951891
60.1823281257672
55.07140732295
50.0418775397906
45.3287271389808
41.405637120044
38.3961779873093
35.8071171607012
32.9916804773887
29.8219201683315
26.7648981312872
24.2865526871679
22.3220544143011
20.4268802817073
18.3461181211455
16.2427495994407
14.3157359722707
12.3435721784662
9.76686114572957
6.210997959186
1.79818160621323
-3.09815713863742
-8.28521092765658
-13.811580656923
-19.6433968831815
-25.4517874607614
-30.8151462923048
-35.5499239149031
-39.7179093153466
-43.3255789299539
-46.1669865683942
-48.0580600847599
-49.1516851130123
-49.8885202439988
-50.6247006149517
-51.4207208837626
-52.2575488189545
-53.3504672012471
-55.0752847595309
-57.5435606762402
-60.3747099401686
-63.007599938774
-65.2110467315622
-67.1849564403169
-69.1598037448768
-71.0390200376293
-72.5528393162778
-73.6999575707064
-74.8555245647013
-76.350824562385
-78.0297212382781
-79.3441367339899
-79.8843760250054
-79.7085364963215
-79.1155243057688
-78.2189782008455
-76.8984723974013
-75.1669798067104
-73.4242559291403
-72.2103078258346
-71.7284125329355
-71.7100749294809
-71.7607663242422
-71.7340866699312
-71.6934118666463
-71.5860577535141
-71.1157032563234
-69.9997972390235
-68.2673497872992
-66.19952189991
-63.9917054709609
-61.5746398962978
-58.8082439006925
-55.7738003659492
-52.7857792259411
-50.1346804597558
-47.913518039071
-46.128081530341
-44.8827000909086
-44.3361401231864
-44.4560639441888
-44.8952720398196
-45.1675495091303
-44.9227865239132
-44.0228558562509
-42.414071523935
-40.0559144087507
-37.0403279457206
-33.7176816403732
-30.5960049651425
-28.0743046665957
-26.2959201091058
-25.2471008435954
-24.9048927053688
-25.207111450982
-25.9134402544339
-26.6182925503667
-26.973500969408
-26.8601695830147
-26.2825598892651
-25.1299803552665
-23.1549224988406
-20.2381462949319
-16.6061965385465
-12.6975013695278
-8.83264110565873
-5.12131509639394
-1.72983369446928
0.877694220166603
2.12845912581529
1.81897971936259
0.328584385903834
-1.70085089272789
-3.84361721126128
-5.97549054376465
-7.94217958994911
-9.33526788857962
-9.74586172561339
-9.20709804554954
-8.24224589471689
-7.40590266368764
-6.83817233248364
-6.32530228557814
-5.7152552079375
-5.11750930733307
-4.65582661968831
-4.1664022162469
-3.30365232673453
-1.94874161527872
-0.384618578066849
1.0088275531141
2.16154339494644
3.31968125055902
4.68446285218367
6.18731222071396
7.68514863322564
9.26331263263418
11.1817294830534
13.5010346002651
15.890922487886
17.9065103057032
19.4023135575901
20.5711830841027
21.5970803973882
22.4152956555179
22.8953855530787
23.1507072265744
23.4851243277395
23.9945513059423
24.3564470360787
24.1344653536289
23.2469203332457
22.0140113164228
20.7486568274804
19.4598327993157
18.068232863949
16.806088703925
16.1823575099238
16.4696119771846
17.3533041244817
18.2310318953022
18.8206692369486
19.3279794293298
20.0033617045931
20.7264682489324
21.2042714800463
21.5072960752366
22.1644850656251
23.60432837246
25.6338100449451
27.6543224335315
29.3661955916387
31.0576170219341
33.1113041292696
35.4056442622738
37.4358219204955
39.0040117338004
40.5227589749446
42.4548568587459
44.5794792152608
46.0669628334203
46.3240838701595
45.5597143955212
44.3737452740684
42.949917001284
40.9414755234662
38.1837877642034
35.2202000403454
32.8480646847956
31.2196289746635
29.6857294171777
27.6285968479788
25.2180771359808
23.1142705746546
21.5493862030277
20.0683482830293
18.3146647532517
16.782629637713
16.4224625662368
17.506633665393
19.2319784554716
20.6497518076725
21.7764038444818
23.4538831627278
26.145658416972
29.2688022461266
31.9641727468321
34.2709974149725
37.0766964159345
40.8132641527019
44.5837024399699
46.9164258351885
47.239089917514
46.2128366866823
44.5704906088165
42.0838722590785
38.082506570289
32.7959515859531
27.5916474283406
23.6167767269191
20.553873890425
17.1640902143316
12.9588232442035
8.80089621584253
5.63360814504626
3.08218287732283
-0.0811965002837987
-4.12496941146739
-7.66071590317024
-9.1799062702997
-8.95116846831148
-8.76465725678919
-9.74442025399316
-11.0367792540135
-11.112558840203
-9.96787027803429
-9.23737425527715
-9.96339949137688
-10.9695176964523
-10.1383441447097
-7.09254478596855
-3.82746118459681
-2.44544986655984
-2.94216880356558
-3.9039498446535
-5.02426536912725
-7.83301441589546
-13.4592519794896
-20.428054150985
-25.6573825412933
-27.5246240946193
-26.9193731957026
-24.8754967699008
-20.2725539042475
-11.3267677623563
0.689690910471001
10.8154479761042
14.6681068228809
12.6476535934132
8.31187825800946
2.4481223827646
-9.30867135174207
-31.1545040557904
-60.082980128592
-86.731527624722
-104.850561206931
-118.942860156867
-140.48455761981
-176.08493811357
-220.311151652576
-259.8021885036
-281.521222941211
-274.720424926517
-227.85033947743
-131.62547742927
8.45183508430148
164.54451195403
300.506940672747
401.120672378384
486.312240710744
588.226476184188
708.125593699551
798.736139956396
798.337984598006
689.311193595375
522.644757237111
379.308412573159
302.809698851465
268.043211554476
215.380673000816
113.223250405794
-13.8073542219016
-114.591068722475
-162.739591880054
-176.064601851055
-190.454787595438
-222.447593097199
-260.036203466297
-284.380540725842
-292.159981171805
-294.35294795233
-298.831909412405
-301.250168688198
-294.002587442945
-278.962048860902
-266.645309673342
-263.552388644674
-264.528966730457
-259.610278760955
-246.065323932065
-230.588432803844
-219.957968139357
-212.836574630567
-202.776266344553
-187.553012106741
-172.38123176557
-163.287123483467
-159.705184086362
-155.732128170374
-147.83227726718
-138.756031610341
-132.999709715854
-130.308036505401
-125.835574618334
-116.459052465248
-104.751800948309
-95.5369782911694
-89.7641214841214
-83.69631926498
-74.1698874810421
-62.8178541741488
-53.8402171371507
-48.5330309930451
-43.8582730184791
-36.7555598220223
-28.3200297140864
-22.3479889308145
-20.302177296123
-19.3721659069686
-16.0685859640886
-10.5119969032036
-5.8502169000368
-3.79383598952913
-2.29938148389946
1.59102342481993
7.63248909226439
12.4800105050824
13.8659696398717
13.3716754161217
14.2581852643561
17.3255894460415
20.2212680902079
20.9302741553876
20.6837155845567
22.431185923424
26.9753046316001
31.9179916099713
34.7756438385695
36.1187329702164
38.6452350982746
43.5143315203252
48.8140352274359
52.0973997349141
53.5116579042535
55.3480325972984
58.6841085458766
61.6689735817544
61.7848418678252
59.1120302480502
56.2868878440055
55.2125745462475
54.8405944319149
52.8729743371387
49.037418328785
45.5540364791458
44.1923690400624
43.8660159266387
42.0118627739604
38.0013298722829
34.1402462806579
32.957130028431
34.2951246208193
35.9000052559919
36.5722027881411
37.6445250910188
40.8609789497291
45.5404000368367
48.8610900239979
48.9930902760041
47.0789053312702
45.5898978716194
45.2915230527718
44.7469051640959
42.8350515562456
40.7889592775366
40.980074219459
44.0412863475576
48.1200391449717
51.2281253007996
53.5997635338127
57.0280572841027
62.1668801862829
67.4117623208199
70.7945527873294
72.3163671854536
73.6275323101255
75.5538804784048
76.8364339351067
75.7979927996305
72.7231108739117
69.7771946377019
68.548527729635
68.4200040329091
67.8313526585589
66.6415465864418
66.3810587258964
68.0591889732738
70.5048675242672
71.5483816230867
70.5868516355055
69.2186244948069
69.1452495689641
70.0970085286248
70.4483276687186
69.6054536198827
68.9309852636715
69.962826608198
72.3090985838815
74.040700589591
74.094352746471
73.5416186836148
74.0827890139182
75.7727071762206
76.9477579276913
76.3653005883836
74.6507469177446
73.1367291605425
71.7157173579248
68.6736045034882
62.8282341811434
55.1897484419587
47.9370339605406
42.0147643188732
36.4464206361616
30.159939699331
23.7929276286431
19.0065017292126
16.2032924111825
13.733227453337
9.75330325105651
4.40407240671439
-0.488080844674318
-3.76394743085702
-6.27136872422471
-9.51183533221139
-13.481979670488
-16.6261262371617
-17.9672011718849
-18.5557920881579
-20.2585273538629
-23.4275916500839
-26.4877298685036
-27.9679915398969
-28.3133683744952
-29.147980109164
-31.0562764145902
-32.889821089802
-33.5296679563805
-33.7143712642028
-35.4074692215981
-39.426422282205
-44.3903566830572
-48.3616459211775
-51.0590708239972
-53.811478557794
-57.4230659279887
-60.8628948805588
-62.558388186741
-62.5789942403238
-62.7715780595768
-64.5790220332852
-67.3199749442915
-69.1205554305921
-69.2494847532857
-68.8375104570079
-69.1520759397052
-69.819463185188
-69.3923753290031
-67.4909958734192
-65.6289861385342
-65.5684825278804
-67.3121346833014
-69.3106225268732
-70.5426144522367
-71.6984724559077
-73.961380809549
-77.1081354691754
-79.5366389717129
-80.2123317284611
-79.9259816767506
-80.1527927473062
-81.0040522906225
-80.9933956828608
-78.9463270736709
-75.5407044562467
-72.4589834867361
-70.3072285102994
-68.0840907937951
-64.8899512284298
-61.5377227108224
-59.8144355419392
-60.2641045675807
-61.3806370509284
-61.3072099524871
-59.8740795077749
-58.3815682844858
-57.5197530686024
-56.265361567384
-53.263440325574
-48.8505204075227
-44.9610306977474
-42.9221818325718
-41.948001383793
-40.270741741307
-37.422987976289
-34.7094342740286
-33.3213981090732
-32.6579014919208
-31.1166235802331
-28.3115119485361
-25.7452338659363
-24.9788115523478
-25.6467902906792
-25.8964020882954
-24.6710056344878
-22.8691537403539
-21.9276695033491
-21.7790747269539
-20.9239287732976
-18.5112591565294
-15.6250360055751
-14.0099801265416
-13.8652411817949
-13.5904562965471
-11.8182072019612
-9.07963464205991
-6.9671611150136
-5.97751328584777
-4.93529895995304
-2.74869231420637
-0.106439307829014
1.22237014556802
0.636851568853729
-0.438477589300181
-0.23331117306213
1.32378178563263
2.82093206135239
3.45963287299474
4.17952519495396
6.29494185723798
9.48878186628447
11.9130741594645
12.3676210432469
11.7453877707309
11.853015115731
13.1443141073172
14.3132981275329
14.215195457359
13.5026286864186
13.7676438749814
15.33313371076
16.677926206393
16.3395217846799
14.8365362043592
14.0771862445756
15.0017780943638
16.5203676157096
17.0877916457982
16.7764314098034
17.0741892014109
18.6925651122938
20.3567082062291
20.2787619652882
18.4471289770705
16.7293767109232
16.6199095901788
17.5426596552919
17.873356687293
17.2542174928297
17.0875711406091
18.549536215725
20.8035587549614
21.8703397307433
21.0940095173432
19.9886255804421
20.3355419623657
21.9993449118512
23.2855689247674
23.2996585104361
23.1338507420027
24.2985299131297
26.5185825916021
27.9016218946801
27.3457789973789
26.0406089933981
26.0494968146794
27.7842388821615
29.6423797424594
30.2234676375555
30.1371986943496
30.9833759036997
32.8865992006717
33.954127357611
32.5132794949557
29.2663119417621
26.5221300744492
25.4586259052539
24.9522843585525
23.4481329101874
21.3278949371334
20.5766043860711
22.1475644693083
24.5332753476582
25.5187869098728
24.896000060464
24.5948752177389
26.0367612736006
28.1619569543094
28.7138761457813
27.0901088771529
25.0143093061128
24.1664961664583
23.9405507173268
22.343631617681
18.88889724902
15.6486333964934
14.9995640465319
16.919979870756
19.2908704110871
20.7213583324933
22.1441457700239
25.1257837868376
29.2453602565188
32.1547633763328
32.3563618088298
31.0647501545221
30.657609684681
31.697286197846
32.390147491635
31.1202169185887
28.6192533089395
26.8465762349238
26.0963432417015
24.3011411824806
19.6256397483897
13.00766308724
7.24091890637973
3.69436546741472
0.910210622705819
-3.11078253799519
-7.99708931670145
-11.381273222324
-12.1094639752383
-11.9921194358951
-13.6390165122607
-17.1029422384562
-19.7356445065566
-19.5199556198068
-17.5720662123815
-16.564921721297
-17.1836500573857
-17.3252671893449
-15.1102305842995
-11.6679114076392
-9.89332690365187
-10.7172940791818
-11.8145339411928
-10.5241033783314
-7.17380457611987
-4.42681239365571
-3.56603144960284
-2.77708599589813
0.14955150276847
4.30286719709238
6.23352078670027
4.15089787723329
0.229205896032855
-2.23167406001387
-3.17658458180068
-5.69659564369489
-11.1204202285113
-15.5653599965594
-12.9592783436181
-1.54874937101209
13.7490356228396
25.9570718486794
32.0234536848923
33.2410837134569
30.4709249174849
21.0032846998238
1.24634822222205
-28.5970905849937
-64.3799047062013
-102.718336897497
-144.188938150616
-190.434779004446
-238.439843016519
-278.616601375259
-298.109258107018
-284.687035103103
-228.391197441888
-124.260630736894
21.0949884773049
185.304320212166
338.89460816316
465.545695851279
574.844966471569
688.469054992151
806.62056453294
888.696395728186
876.32015202998
745.829037506059
541.203400988243
349.702659748015
236.22915881666
195.50703815605
166.738230087094
95.378054949564
-18.1445089398337
-126.891579242243
-188.487527474273
-204.531485279085
-212.031886696193
-242.488099343351
-293.726006459878
-339.4896319229
-359.717799872749
-357.136747327138
-347.085442593403
-338.117368446751
-326.519997847263
-307.172719648976
-284.039328998794
-267.302417931081
-262.335095788098
-264.725765544031
-266.305109110694
-263.451925726115
-257.889204513556
-251.048524402014
-240.796448085121
-224.755865422088
-204.99010619561
-187.184878422085
-175.105992595429
-167.379426638486
-160.414462161765
-153.246924870212
-147.886552833463
-145.009728655436
-141.119893771897
-131.440399631712
-115.344142224519
-97.6807711097023
-84.2229703092148
-76.4071571694539
-71.0645440694746
-64.6981926749189
-56.8762763793941
-49.2396404693016
-42.3569549029729
-34.8412483292383
-25.5657803511703
-15.6331730813584
-7.32918942306573
-1.46127476798906
3.42181609830613
8.99877966893511
15.0520564094801
19.9442523576391
22.9130842032008
25.1155392238636
28.1156500838618
31.8607132728843
34.7700186616767
35.7701462813199
35.6655576724052
36.2030602423777
38.1490510215118
40.8012675339194
43.3454275981046
46.1005657665762
49.9992301318684
55.0583812004113
59.9052770214346
63.0156529115577
64.1353490930756
64.204902829084
64.0570153718683
63.6162623595655
62.5017131613282
61.0408986487765
60.2383405097006
60.7054538120061
61.9489699464572
62.9388262381212
63.2331548869706
63.2838354883782
63.6564050250146
64.2577597952642
64.5369231514852
64.2796604583228
63.8674842483012
63.6508709542003
63.2996388478134
62.0328368137782
59.4796646200117
56.1097100821398
52.7326642442357
49.736187108347
46.9926307672746
44.4348099422402
42.4326613125946
41.4163259826573
41.2369798006597
41.1492146372534
40.5291723663368
39.508525857448
38.7959619817428
38.9411147864888
39.9236408733672
41.4680570209405
43.5544656205494
46.4019521857162
49.9473049130134
53.5377299508001
56.3149581792097
57.9119105712873
58.6934188751137
59.3147527489959
60.1479343820618
61.1920558697993
62.4208274241832
63.9988169068967
66.0483295496303
68.2980516591136
70.1391106826801
71.113903152748
71.3146719931775
71.2612077295506
71.4308471669838
71.9753630862567
72.8599381387505
74.1164804715432
75.8097343618218
77.7592660158898
79.4417184063622
80.3085831349954
80.2287452725695
79.5727582585849
78.8509094389134
78.3163460488358
77.938039302013
77.6640205531062
77.5541735660509
77.5876331719035
77.434419049383
76.5816857509494
74.7703435185259
72.271992014015
69.6743599603818
67.3991437717
65.4696502668739
63.7159060899097
62.0704213908214
60.5425133462598
58.9356206260861
56.7630498470675
53.5961592446375
49.5067794377935
45.0782915306275
40.9285290068341
37.2517041254603
33.8459190793903
30.4978700776623
27.1945175261087
23.9207186970779
20.3927137227149
16.1908636889691
11.2296569368174
6.01467724737562
1.33278254122719
-2.32124074876999
-4.98231514853745
-6.94868988321828
-8.44027038967415
-9.61483369761516
-10.8157905935025
-12.5709854031444
-15.1998774998145
-18.4665855894228
-21.7431854203377
-24.5476092806629
-26.8646319978285
-28.9510011944918
-30.9866500677541
-33.0834274161005
-35.597530617137
-39.1848364530648
-44.3201711114428
-50.7490081159803
-57.5508165246954
-63.8136937555603
-69.1767800734101
-73.664348795319
-77.1380517294335
-79.1748258281862
-79.5880858772592
-78.8965532998898
-78.0254225144178
-77.4857903709333
-77.0013464243261
-76.0599453816531
-74.7311638787559
-73.7487662398019
-73.7725207403794
-74.7677663116879
-76.2609399269843
-78.0718291322979
-80.4913523225491
-83.6092830969062
-86.6634191110136
-88.3491473754764
-87.8600490375386
-85.4985862350424
-82.2027130054507
-78.6478935094047
-75.0335554809733
-71.6890682548187
-69.5169128933618
-69.4942711991507
-71.7229170764903
-75.1967945354623
-78.6388651524115
-81.4688487632625
-83.8418765871507
-85.8836720953115
-87.2091210774797
-87.3378425591191
-86.3787138903391
-84.9896565790221
-83.594145569368
-81.8470194402736
-79.0486429310738
-74.9952001128149
-70.2143384244299
-65.3596900980604
-60.6160788370055
-55.8772360000694
-51.3530849316923
-47.6549770434644
-45.1308861306935
-43.3071044819913
-41.2506436085012
-38.5001179436633
-35.4506335183328
-32.7548273674049
-30.5566970158981
-28.5573025534384
-26.7688007179987
-25.855159958097
-26.4778451687601
-28.4089622077531
-30.567781955067
-32.0169259498676
-32.7445570937551
-33.3288006497517
-33.9899884104325
-34.2656996875179
-33.6672578622778
-32.3675943132222
-30.9526820109244
-29.5491606193782
-27.5104455314654
-24.1412455913807
-19.5871024006257
-14.793141775026
-10.6297503359278
-7.31155872810396
-4.75803776492594
-3.23430999708414
-3.24659764932997
-4.74031477152133
-6.70000469516873
-7.82375136706631
-7.56290336338475
-6.31423793549438
-4.62326661856632
-2.50460667610119
0.245474696172707
3.26967170185604
5.61195860269752
6.645854701765
6.83150665500542
7.27141012189418
8.53594181798773
10.1762551820675
11.4685460145077
12.3619625078285
13.3921362424154
14.7468961783724
15.8321087072718
16.0199137226515
15.6358642150097
15.83233826258
17.3960125508344
19.9295566880238
22.3856810845193
24.2023988745316
25.5661295748231
26.5654971326478
26.5360873511096
24.6559951838883
21.1219826513848
17.3330338062416
14.7012476332531
13.4800388123362
13.0017864300382
12.90341873427
13.6603762771123
15.7239652388787
18.4889019612561
20.6200068084524
21.4783249502854
21.848853060176
22.9701672533298
25.0304554304869
27.0036513491816
27.9843696632492
28.2534863640998
28.6958205142073
29.3999466385276
29.3842882857691
27.9102547877136
25.6909757605854
24.3435967410591
24.6731899023026
25.9074123682281
26.7965366500155
27.1038638745134
27.5629561256466
28.4592379124276
28.8517289023051
27.606881299711
24.9615183380661
22.5247390182885
21.592909560099
21.8449896523889
22.0149434494656
21.5910080014087
21.3021487108212
21.8173182951277
22.4996063461741
22.0078242314493
20.0583634350681
18.0321876823812
17.536652902907
18.6809004375958
20.2099275485765
21.2309646448598
22.2198407306343
24.0158911826643
26.2466087151854
27.421206697557
26.6993021969265
25.0321348204867
24.1022424650259
24.3546566720803
24.6334546293276
23.8505690674458
22.4452293910218
21.6920396668133
21.8212939427215
21.5617542837022
19.8494720804356
17.4906325950978
16.4867969644591
17.7452157930765
20.0723253395336
21.7503375774302
22.6433187544346
24.0821310660916
26.7188932764296
29.2775998372363
29.9955752875559
28.9595541190821
28.2235079049527
29.3892227691948
31.6537210698561
32.8011513146568
31.8502042875005
29.9556505064952
28.4913680071664
26.9764045210884
23.7179545673085
18.4140228911417
13.2593076754658
10.9427516859733
11.9533143694738
14.532350367218
17.1816544190502
20.3528523548432
25.1394094027355
30.8779209259547
35.0871733957413
36.0540065540944
34.7430712435496
33.4616263300027
32.9492505787545
31.6716903956623
28.1963557469116
23.407239986426
19.5021152240314
17.0564646273386
14.161847804645
8.98834937788454
2.48792721529394
-2.43553811904454
-4.39298025302183
-5.14419083518776
-7.20688341509398
-10.5392120234251
-12.7036738585185
-12.3527681024858
-11.371571014168
-12.6424910670674
-16.2045381465702
-18.9051605675748
-18.2106094447536
-15.3282871300993
-13.547299300911
-13.9365379640791
-14.0927362534759
-11.6564148273075
-7.90899685509537
-6.48055283956106
-8.65168058361183
-11.4623535151465
-11.3565372222639
-8.73613468676318
-7.35718546105158
-9.21140521459666
-11.6905909908816
-11.0374066041522
-7.67004739192542
-6.09684209384947
-9.08442999983249
-13.6599115763662
-14.646514727924
-11.5847965006469
-9.88137669152227
-14.03955513861
-21.3137981697688
-24.2442526063075
-19.385662542737
-11.2813637282208
-6.52707694832475
-5.67911018035839
-3.88809395520611
0.30952656909836
0.0473374718670954
-13.1933832015617
-39.0150408576575
-67.9622730643545
-93.7071496344882
-122.646128031988
-166.930673796316
-226.589338986009
-281.245606723667
-302.58572810417
-275.18101879997
-203.919339089639
-102.712059931847
19.1772979318316
157.001319656848
301.283805243646
437.189459234087
556.785332613786
666.064500884066
770.039866062105
848.258470322875
854.223642605426
752.671087866303
563.571090601805
363.358787409574
231.045046446829
185.250167615186
173.509019675867
125.840427972059
20.2149818383384
-103.246212188955
-188.329821326866
-217.593829416582
-221.367960770091
-239.192106623615
-280.286901134081
-322.981195403809
-345.504066145954
-348.855907660199
-348.726982122842
-352.369492355206
-350.701954455641
-332.942244163726
-302.8075678518
-275.882245926809
-262.881023164751
-260.095630170241
-257.228860421281
-250.631719303736
-245.043296996597
-243.549156170067
-240.73042447132
-228.65864661095
-207.75345518487
-187.94810026524
-178.109273246657
-176.588296527128
-174.150154837192
-165.035145637369
-152.452467704648
-142.690373427716
-136.375638028321
-128.066959133341
-113.947695955769
-97.1928153089935
-84.2730841625182
-77.3692882391677
-72.6047960882249
-65.7591898164417
-57.5671848681202
-51.8841185515526
-49.6909603871947
-47.1502698601859
-40.2198126736305
-29.63505018897
-19.7885260535857
-13.1539754506525
-7.56042828888912
0.384933592912647
10.5007029197589
19.1717061268319
24.0327189480142
26.896149139603
31.1477964660794
37.1850092253799
41.9143905377349
42.8555656182585
41.3957295994087
41.0240640149548
43.0265399369296
45.3089041370985
45.7106019849346
45.2373984454862
46.8816759304382
51.6292013624268
56.959040249923
59.8217327017356
60.2216772328976
60.8314193980175
63.3148569950605
66.2539772772107
67.3022995563504
66.5646035350038
66.6545993016569
69.3382380888104
73.174572265053
75.2295887942663
74.6174386424778
73.3244475606644
73.40651100145
74.3454195095393
73.9805265267967
71.6301504713171
69.1729706216143
68.6432850029423
69.5289931336238
69.3333171647981
66.6637273756904
62.8517844547371
60.1143891605021
58.7967571817814
57.3170420390007
54.7438527569613
52.4401078743675
52.5010938868419
55.0119117790246
57.7369833391563
58.6703213542128
58.1609247149139
57.9581224311119
58.5953576736298
58.6452064143728
56.7969800457643
53.9154122344895
52.2638574772551
52.8480403055019
54.3391479438533
54.9673334547354
54.8880728681389
55.9400185334449
59.1701867236015
63.4190440593007
66.8086963432957
69.115988826001
71.8516126195555
75.92417886178
79.9936527623607
81.7541519562964
80.567490399392
78.106343608397
76.2527679057715
75.0260917959199
73.1792581752691
70.5337125901914
68.8334492853318
69.8763461359286
73.2972136015183
76.881136376688
79.0348786507747
80.2999602332498
82.1044252993456
84.5450784647314
86.1590188569453
85.923828610143
84.7572535745411
84.4666238830957
85.4818163412616
86.3166759704221
85.4454748461467
83.1502866013729
80.9910392640661
79.6931884922061
78.2774370512349
75.5369298207966
71.8232623599612
68.6984179549528
66.8565107464088
65.0397480445161
61.407129052945
55.6343617345732
49.1002157825493
43.0283173666107
37.0803317790431
30.2111096796865
22.5551117731645
15.7443010151589
11.1425869181852
8.24790012444305
5.32140069955695
1.42842197861852
-2.70260770694548
-5.98621914353834
-8.60402044040584
-11.7707637969983
-16.0082367665373
-20.2981199264563
-23.3078753883635
-25.1156066015948
-27.1791295997757
-30.5904193902911
-34.8818914141914
-38.8786773222518
-42.3751346968735
-46.3615390084597
-51.511030088974
-56.9966493077195
-61.2966762489202
-64.0041419030772
-66.2891741731014
-69.3949577063547
-73.1063508242443
-76.1474241122165
-77.9241921429344
-79.2821599473402
-81.2878268862317
-83.6852361472999
-85.125972658761
-84.9294109639552
-84.0875788387009
-84.1819417271733
-85.5822820373484
-87.2091177841944
-88.0820542102996
-88.5659747869581
-89.6894508297194
-91.5032013514096
-92.7328685809448
-92.2663461634727
-90.5719266960537
-89.1962390182747
-88.9722776563665
-89.2188449925478
-88.8818604294009
-88.0286844018438
-87.6990674587206
-88.3467315766285
-89.0033195352256
-88.3508404902608
-86.3556606212598
-84.3456007481346
-83.4213580466962
-83.2406075480808
-82.6863644761781
-81.448591679611
-80.3881465064837
-80.2216863319534
-80.3295841507975
-79.3421095129117
-76.7999461460715
-73.7393458329037
-71.4352534411951
-69.9260602750559
-68.1964912970824
-65.6941557844709
-63.117583776993
-61.426144818103
-60.4242706774009
-58.8666535532563
-56.0202100966241
-52.6623838360521
-50.1930554585903
-48.9862845138477
-48.088303282976
-46.5907634987825
-44.8181626176714
-43.7512430292393
-43.4819660561049
-42.8141011612636
-40.6296443618897
-37.2933810608771
-34.2656713609274
-32.3927660946988
-31.0420682485815
-29.1283534629304
-26.6143955932052
-24.4937461336598
-23.3115009845391
-22.2389273899866
-20.0042514300489
-16.5329627406183
-13.1865708075736
-11.2765928020457
-10.7311065849729
-10.5405404693981
-10.2694728188595
-10.575341700006
-12.0624473695986
-14.0522796942095
-14.9861174390444
-14.027908733134
-11.8485452942634
-9.63140057395486
-7.63333636049737
-5.14888739132977
-1.81923159998752
1.54749391692258
3.78286856763597
4.72404599081313
5.3072971376177
6.2496081874224
7.06411807002546
6.71905204937158
5.07181809133511
3.1879720425437
2.14419144922483
1.92362782100251
1.85799749134904
1.96135831363866
3.26705313080387
6.59949261621543
11.3484147662451
15.9004158728603
19.2535290757082
21.7911309565616
24.2908737777562
26.5650154727989
27.5992020927949
27.0303542417738
25.9537016708759
25.85780674068
26.9407231595414
27.9373354994076
27.6919605388813
26.484008760438
25.4630922241732
25.0239302018842
24.3153936798461
22.5476158774686
20.3511589688119
19.3284089393635
20.2839399481897
22.3577614522229
24.1362872019855
25.2838124723557
26.6271248037622
28.7054095833521
30.8065823348944
31.8115817645095
31.7156516961889
31.7578644137123
32.9165042381569
34.6981994333624
35.7817949379624
35.6523081764035
35.0843849444455
34.8950281916288
34.7040876141132
33.4263959195296
30.8776102910756
28.3246295813948
27.1499763614927
27.2944089873161
27.4867584068862
26.9650103608862
26.4481849445577
27.1063479756311
28.9173892078818
30.6168080221874
31.3435340531824
31.8172260276808
33.4523196752614
36.5045971217894
39.6354376564331
41.4607052139828
42.0911872965424
42.714102170783
43.8426519057295
44.5825603602186
43.878492096919
42.0554093956727
40.5642389124769
40.214134484925
40.1875498958494
39.1243143073035
36.8577970405589
34.5574157976567
33.1616044602399
32.2408048871427
30.8171531543227
29.0081923781628
28.2106777753032
29.4596412565844
32.0570454885426
34.2792313560805
35.2790813787075
35.7463721692255
36.5470463617133
37.2472592206596
36.5709759908679
34.2262969109848
31.6331861222696
30.4633496737391
30.7878965020292
31.2001784760247
30.7332972205435
30.0537965969726
30.3843669056737
31.6335446562521
32.287662215259
31.2867807060384
29.4237467018989
28.3556203464642
28.4399508985617
28.2044975356871
26.174982598444
22.7083127305418
19.4550149763062
17.174834011062
14.7989445144476
10.9979573585933
6.1961116051921
2.33709992597503
0.627612345548375
0.149475869794479
-0.868854704342624
-2.77416167889289
-4.13488216130131
-3.68839341957299
-1.95413304994999
-0.380884704375292
0.771527052338794
2.89757829056821
7.14066651864233
12.603141588398
17.0783300172687
19.4077970352295
20.4172690998723
21.2781098330631
21.585866071572
19.8296893146172
15.6762933931959
10.9336350349079
7.69586275349795
5.93500593438735
3.68252684445291
-0.361396645007062
-5.15745436064523
-8.77631163550836
-11.0268455164323
-13.6947408239735
-17.9449370163249
-22.2852102982592
-23.9268726007336
-21.9968635521179
-18.5455986140515
-16.0384772377787
-14.5379700927001
-12.1753151342977
-8.19947387099586
-4.49044114565522
-3.42994570718309
-4.85218531624956
-6.09886862897001
-5.20738522647002
-3.18289936007206
-2.51694335103647
-4.02747969495927
-6.21075555574154
-7.82226676219231
-10.0146484514348
-14.9788689504236
-22.8488952589402
-31.0837247680809
-37.1845765140853
-40.9515317169481
-43.0615475930689
-42.0692660311031
-34.7035740738574
-20.2114213257931
-3.50152324039465
7.73501773868347
9.53215979557574
4.31533772941859
-3.62607829862898
-14.4098184620267
-32.6903586686509
-61.241631561719
-95.9216567129609
-128.582789558031
-154.907449900699
-178.227551848284
-205.294729361206
-239.070921214919
-275.436333173672
-304.224425497716
-310.509776637692
-276.193622426836
-187.189383232971
-46.514240479739
118.633226590226
269.573307584817
384.322376787583
475.328913131196
573.717675536805
689.300651890877
786.023548566489
804.050260937105
714.035305517982
551.792166925665
395.365060105408
302.135286903604
264.817158514531
227.71828607617
145.160484530829
23.8399874068166
-89.3147051989971
-155.64423467708
-178.167321722071
-190.148352802528
-217.731002598244
-258.022690185633
-290.804936746262
-304.217256790071
-304.495234234606
-303.42821455918
-303.11741258852
-296.675456870595
-281.197767020324
-264.764080425641
-258.512367515374
-264.035558258147
-271.464273079502
-269.951617010749
-257.893407441996
-242.014015840382
-228.405773746266
-216.96110514101
-204.506232168281
-190.733914303124
-178.846163257496
-170.906492248451
-164.800286463288
-156.888621576586
-146.580571155424
-136.733990204488
-129.57406216695
-123.657078845158
-115.770795438149
-105.106727488275
-94.2563842835887
-85.910775685074
-79.6487654008327
-72.8149890391227
-64.0675133603288
-54.9176344883615
-47.482377205376
-41.6331622833662
-35.2871775698184
-27.3018629001495
-19.0794222343736
-12.8258907209618
-8.80649464855949
-5.12079683997203
-0.13677337983899
5.65574942223363
10.6604414504972
14.5210992331604
18.6334971054084
24.2127507719721
30.5441860510636
35.740513904738
39.0135388317573
41.5419942362503
44.9085189550156
49.2037959504994
53.1929001372832
56.1574108681328
58.8867292836869
62.525372896741
66.8543583980803
70.3097179481698
71.7491028016914
71.7247788593689
71.7063973994999
72.3356436447381
72.9362372788314
72.7597925051542
72.1923172835341
72.3009962990493
73.3573789654245
74.3221689834616
73.9991439064243
72.4006112191609
70.6360842237499
69.5636401335042
68.9686555725059
68.2234521621956
67.3959997190963
67.2462005680436
68.1058782641612
69.1674305932226
69.1888839335407
67.7710032159641
65.6187364698521
63.5163950369848
61.3793260855521
58.5793945314065
55.0403834409362
51.6046037534305
49.1554187772343
47.6228869749883
46.1585924765944
44.2606760897498
42.4283815854947
41.557412271672
41.8939795177188
42.8694074447957
43.9415979654302
45.2730490683372
47.3473406102775
50.061177102051
52.5329659080243
53.9414407231915
54.3745956875171
54.6502335510295
55.3611998308029
56.3283629722405
57.0563607886501
57.4936426402102
58.0713432505104
59.003134686201
59.8178534381838
59.791450264548
58.7747289047585
57.4034674760574
56.4589993004849
56.1851819499601
56.3449422979915
56.8054876879814
57.7946903635897
59.4803082686215
61.4723603256802
62.9796339792891
63.5073759853243
63.2765126453668
62.8848834615938
62.661897150735
62.4947456912241
62.2449217336771
62.1157141403423
62.44696734705
63.2118658896801
63.9078533321974
64.0331525602904
63.5862412377999
62.9923382226592
62.5734603352537
62.2132112894498
61.5655948954036
60.4521525613683
58.9044502752982
56.8444690206537
53.9119131615275
49.7577478986345
44.4898784526997
38.7227904011861
33.1558956527325
28.1668096229868
23.8361180264346
20.2366434650128
17.5033196731552
15.5567851813184
13.8896830145562
11.8062392370963
8.93543591615949
5.45695908956463
1.79722742446461
-1.82227735597314
-5.46198038327633
-9.15600999020009
-12.7023982011256
-15.8750842060671
-18.7867331944386
-21.8888465986927
-25.534238020913
-29.5902584243141
-33.5544841151872
-37.0282158518413
-39.9978611221741
-42.6565784051707
-45.083838567182
-47.2345242885851
-49.2233060272178
-51.4575747868189
-54.3500983525264
-57.8988861564047
-61.625483543539
-64.9427029844514
-67.5195483495994
-69.267608876792
-70.095059058186
-69.8620661906875
-68.6478982707113
-66.951170958818
-65.4673283445534
-64.6208513307667
-64.3760493094754
-64.5300546269725
-65.0958151245283
-66.28437727844
-68.1349110813175
-70.3179425500124
-72.4142464222028
-74.3241929809436
-76.2468275394288
-78.2041480927357
-79.7042981121769
-80.0194935539773
-78.8085315393144
-76.3750513613438
-73.2949537019691
-69.9212444849779
-66.3908170764842
-63.0591247249947
-60.6802122637145
-59.9435857226711
-60.8279448209047
-62.5423071730736
-64.1624423585681
-65.2466297822583
-65.7732940091275
-65.6161317717165
-64.3452595599887
-61.6769952633278
-57.9912486991731
-54.1780686796062
-50.8995168216767
-48.116401124986
-45.4347961035184
-42.8205975029365
-40.7832419524785
-39.8162001875869
-39.8289286662649
-40.300680045081
-40.938747474088
-41.9590717670574
-43.5941306652018
-45.4530724770092
-46.5925725757926
-46.2850298230705
-44.597603749922
-42.1343584711724
-39.3337638872318
-36.2216733968931
-32.8607048454483
-29.7890251502853
-27.7490758020404
-26.9598701737799
-26.8348916422371
-26.5315687532462
-25.6928632432038
-24.527057885271
-23.2361705331341
-21.61658131269
-19.3680096603205
-16.6587633053544
-14.1231605499574
-12.2103590051709
-10.6841282302247
-8.92019658794888
-6.64418306799342
-4.20287721038427
-2.07995056224259
-0.338742294436942
1.27395952662094
2.75100344407428
3.62046529102668
3.46625775885015
2.53013648165424
1.58649742802145
1.19458405603766
1.23597282582058
1.27475807148979
1.21167570423665
1.34665140943142
1.79146548420173
2.08429962057276
1.62107939064039
0.420788583018432
-0.763540806392651
-1.18516359484801
-0.8084336396144
-0.133630627878748
0.572636112703144
1.60829084642132
3.30897285641988
5.40955334708975
7.20914112640754
8.38892524658121
9.43382147688738
11.0807556698653
13.4614049270128
15.9966696243733
18.120055513518
19.8476530381504
21.4684647806956
22.8474658612046
23.3748387371626
22.7169692857772
21.394810500367
20.3692963868753
20.0911196711196
20.1895355803279
20.1540664849593
20.0671274898254
20.4010415926867
21.1824374560923
21.7329450671327
21.4645458264649
20.7629020829522
20.7650191201836
22.2048620207403
24.7136942961289
27.4076246428975
29.9513796784128
32.6941550367646
35.7311079622331
38.2162979870688
38.9778016701107
37.7748464963088
35.6217562317474
33.7263990621514
32.335394413582
30.8795169454913
29.123226091134
27.7377282411627
27.5168091939709
28.2866885049607
29.0043949429622
28.9892373784875
28.719420629352
29.1572406115847
30.4675751523212
31.7752425823224
32.2380331601601
31.9967526999212
31.7648593346276
31.6626412614438
30.9239755637584
28.9296423283458
26.2068585081237
24.018510600601
23.0065139746014
22.6153056793824
22.0041594571462
21.1941656927304
20.9106280494716
21.3755591139132
21.7727754739939
21.2338566185593
20.0979680032984
19.7106752239376
20.8913731583075
22.9880142432453
24.7269888295153
25.719872629326
26.6132147128967
27.6917089092206
27.8891289904233
25.7184324583448
21.0814357139925
15.6176486292825
11.0262832802471
7.41353488767823
3.72376546772507
-0.387405473866858
-3.77718154284186
-5.22512663248564
-5.17032043319885
-5.38394743745852
-6.85917587630957
-8.60591843494704
-8.94644319767101
-7.66501642353683
-6.22715410239643
-5.81080672928516
-5.7891048148456
-4.7093803002946
-2.45784851944514
-0.645598857801836
-0.583726158326758
-1.49159617624724
-1.38112282697443
0.471687443713844
2.73654236855855
3.9935588622901
4.78228729156166
6.84529293065091
10.4624888412313
13.5473872173488
14.010335702712
12.4278563639907
11.3184475437007
11.6758625027444
11.3111548497597
7.5933576022509
1.459671338413
-2.53704994595285
-0.737731907563742
5.73454978199544
12.328472130902
15.8278395681984
16.4940463611841
15.1115428718646
9.27304929555633
-5.61237354839683
-31.346522590035
-64.355818200105
-99.2645656585295
-134.611053722771
-173.59755146704
-218.447207349319
-264.289564563668
-298.516785847003
-305.086228893016
-269.342917193179
-181.980331237087
-44.2429655136188
127.086398927813
302.695897544206
456.363949104871
583.101970841875
699.838453885756
820.947244023854
928.727995635224
972.150514055803
904.65858575214
730.782311283717
515.045088947928
338.074597273505
236.467068983495
181.635467353026
116.491482664889
12.8689745377696
-105.666906952971
-193.556666307309
-230.660590824712
-238.885924897538
-255.819655565716
-297.436320806181
-348.066263490395
-382.372386923439
-391.213193692222
-385.01973511395
-377.041051496016
-369.254563881746
-355.459385716278
-333.622469698274
-310.682427162605
-295.241596109539
-288.85051354162
-286.373594065754
-283.130265001466
-278.769240672706
-273.95519187864
-266.189274075388
-251.628710729195
-230.750160205963
-209.819875693333
-195.284062036871
-187.429094078988
-180.852370257739
-170.967207943762
-158.628578639015
-147.8095583126
-140.010804965083
-132.598254656371
-122.64670859791
-110.845535024868
-100.463193789724
-93.0839901505171
-86.8208178182369
-79.1022078951968
-70.0892188749059
-62.2274305790367
-56.7489505808707
-51.8978824362845
-45.1925892802895
-36.6637000658528
-28.8307896643522
-23.5477685587592
-19.8623742428168
-15.5230899908149
-9.93783693172844
-4.64873050332379
-0.8508663200783
2.58753233631857
7.90424421371172
15.6145464164735
23.770315992937
30.2331975775971
34.9966008036927
39.6598339721692
44.9532112480746
49.674868782229
52.385549300639
53.5094970052272
54.996478136114
57.9600232280598
61.3553029834419
63.3604417714928
63.6140280120087
63.4562541238606
64.0279460034494
64.8453763812987
64.6976613510389
63.5559157418434
62.8657366818425
63.7947719324024
65.7355145606011
67.0164888793155
66.876729670571
66.1639320665609
65.9722034548493
66.1449693673368
65.6519829562487
64.2711252113381
63.2367425695579
63.8904838746272
66.0338935298488
68.1051212926623
68.946474144632
68.9054485003026
68.945371175446
69.054317331164
68.0978766212073
65.2951534364865
61.3429838560285
57.6879149695152
54.8760248151097
52.0948467046172
48.4528869703573
44.3178857016749
41.0340932437633
39.4742031775608
39.3190536436055
39.8863593049724
41.262692621659
44.1674466367968
48.7417654733321
53.9102611690252
58.204762657734
61.0334729672009
62.8565700165523
64.2135293677313
65.0065715879155
64.9647777966696
64.521808325489
64.7534830437048
66.3142936919478
68.7150869228872
70.8963667314299
72.3862475199778
73.6054958458846
75.0422003478818
76.4995377039247
77.4554426799557
78.0141175707109
79.0839785883192
81.4241570892557
84.7230641032511
87.8840738341389
90.1718745212031
91.8106876121984
93.3880473935363
94.9653448862118
96.095086851986
96.654211853323
97.278973886592
98.7198132272089
100.889536800172
102.813302711307
103.543034422414
102.900810919978
101.221970141944
98.6148633967485
94.8272094184662
89.8851732991801
84.5474476840999
79.8288308510466
76.1050774205424
72.9083870756419
69.647644069963
66.3061000038147
63.2526284773821
60.5194237889957
57.6034322466652
54.0989323936129
50.2899978980978
46.8338564031211
43.8726713365815
40.7137841279788
36.5244601942228
31.1906920670477
25.295142437038
19.3291532118486
13.2307081301316
6.84753350935056
0.632713686170671
-4.47618478807313
-7.97256180563367
-10.3799856878102
-12.7659052189347
-15.744586578125
-19.1480572916749
-22.6415355807502
-26.3534655307057
-30.6522642763487
-35.4113224980183
-39.8340770595962
-43.192081351696
-45.615731920548
-47.9695393856153
-50.9782286653848
-54.6644157150337
-58.6786200156312
-62.9289462844264
-67.6036013897177
-72.5896416851307
-77.1630301746116
-80.4846463560999
-82.3552515854379
-83.3138431818289
-83.9931752154783
-84.5629788410418
-84.8959532423478
-85.0888819891866
-85.5278229713066
-86.3788138853584
-87.2406661955919
-87.5272884575599
-87.1663339933522
-86.7354507525281
-86.8541214447162
-87.5944677967767
-88.6145103449627
-89.7409041221486
-91.1492276076219
-92.8835833150236
-94.4147756176517
-94.9472440912511
-94.2029428072627
-92.7342472228098
-91.3661125013964
-90.4437124000656
-89.7648243821948
-89.1537201028547
-88.813392434601
-88.9530008380793
-89.2269974261835
-88.8357616256272
-87.2884073402749
-84.9334474468012
-82.6113779554759
-80.8610704726081
-79.6199121820495
-78.6591202639596
-78.040583921047
-77.9285425641656
-78.0392972990218
-77.5646096198301
-75.8069439885355
-72.8124382124842
-69.2517821251724
-65.7307543891367
-62.3837298171317
-59.152291065827
-56.2162964323105
-53.8889633081302
-52.097347625886
-50.2181398846229
-47.618487173661
-44.308420534762
-40.9166084411831
-38.0382535821624
-35.7757055677182
-33.9828969949531
-32.7607357164308
-32.4318416743456
-32.9778812621142
-33.7265806143435
-33.8205930343615
-32.991198769437
-31.7266655708076
-30.6579590939752
-29.9386193484418
-29.3351813698554
-28.7750515125139
-28.5176517554402
-28.6814734726186
-28.7921024015582
-28.0458192206811
-26.0556536929846
-23.1944007014272
-20.1438017850592
-17.2485596627211
-14.4566149353068
-11.7897427856316
-9.57833131369226
-8.06732897098514
-6.93373117734833
-5.45698192130651
-3.24492934248108
-0.651455234910742
1.62689718774149
3.2578508902175
4.41416491880458
5.26743631781356
5.62331770956607
5.26417971102396
4.54699651736608
4.37332373602883
5.42276808704383
7.52195248359946
9.90046154756943
11.9940608496692
13.81009620387
15.5040843622095
16.8735072269758
17.5451918706963
17.6324171810519
17.92381950987
19.223271988293
21.573164765447
24.2854748166435
26.7031261422311
28.7255269357072
30.5140871515541
31.9162621732867
32.5016846590549
32.220224791752
31.7695112525978
32.065274031534
33.3685275606988
35.1046150058217
36.5559948137451
37.5323762205831
38.2263549315591
38.5871097197712
38.1758974839152
36.7653287362503
34.867906520494
33.3993267100952
32.8013685640572
32.6823004132463
32.3892757607608
31.7484090038001
31.052951101843
30.437826987046
29.6107738739882
28.3836458479836
27.2754754462789
27.2575098988382
28.8096611470576
31.4132179084492
34.1091525955097
36.4131652826782
38.456109457795
40.2826712258677
41.3811628339162
41.1952183051324
39.9883736101272
38.8454100148553
38.6414613806647
39.1603503144478
39.413109548778
38.7254795509997
37.2411722106587
35.3192567355513
32.7815912284576
29.1317925440335
24.5038246590555
20.0301466469841
16.9988461192398
15.7339742562658
15.5245663025743
15.6124156022598
15.9403487931517
16.7672168852822
17.8140665007869
18.2343148836088
17.5595991006325
16.3906470547541
15.848309335834
16.3875111104665
17.4225421379969
18.1894344530431
18.7109955136255
19.6658131271717
21.4445125313461
23.721111066971
26.103697088147
28.9138913740112
32.9311747534888
38.3190617152843
44.0718293537586
48.6786834789758
51.1617348025392
51.2642722302628
48.8158313316717
43.4335629901905
35.1642947292465
25.2004994570305
15.4980332284088
7.50365859464911
1.43378020525366
-3.10013677310086
-6.06475652691704
-7.01890692337754
-6.13034811964785
-4.66572518136212
-4.0110446815878
-4.27701953487004
-4.28237978258491
-3.06462211151203
-1.0923737344536
0.329164544771203
0.670741968707276
0.707506441246665
1.29144959161034
2.03460778399747
1.72617145632333
0.0202158289576531
-1.80855527561348
-2.10526334937256
-0.569633076861386
1.64152504898765
3.4273354872136
4.79210296872431
6.11355341212453
6.84028736030678
5.65001442205019
2.04133343518147
-2.79584148863228
-7.14524186194927
-10.4566441578979
-13.1454202634778
-14.6097700851528
-12.3453952693499
-4.11144304669285
8.79974747354984
21.1294604204067
27.1842875866985
24.9225256516253
16.4016753263517
4.4180684245407
-10.76232418995
-31.2579242763367
-58.834906305483
-92.9766569763485
-131.49603715844
-172.235020493032
-213.595880899296
-253.365589436396
-286.705894622343
-304.234806181074
-291.600413441483
-233.183838357879
-121.164226824956
34.908192101814
208.157147144564
369.392815756365
507.448620833025
634.570714590734
766.230363203748
890.832119996473
961.422587059994
926.073975960895
775.39546487271
562.437281378289
370.450381601907
252.565664812214
196.705830512033
147.099114034714
60.4151570850953
-57.0249142383287
-162.911425235149
-224.145725967681
-246.247077478559
-261.135134864808
-292.004108939808
-333.815945597636
-365.783640064637
-376.659232506474
-373.863483065396
-370.11857749316
-367.053056882058
-355.465870858062
-329.898208578919
-298.625517074609
-277.223804976561
-273.695489254958
-281.832900208976
-288.693239176125
-286.409646034755
-276.035198328071
-262.193129286493
-247.149753412821
-230.828164942456
-214.302860312986
-200.594407546737
-191.601973829103
-185.778897101445
-179.939175640067
-172.745547614405
-165.239996934226
-158.008045406683
-149.222819251726
-136.574694427013
-120.711860136868
-105.533814340787
-94.5453555468297
-87.4730479957757
-81.0665509337557
-72.9076040419732
-63.624246905967
-55.2569145700992
-48.3522869728249
-41.5477313943804
-33.8298752107154
-26.2122312124518
-20.5975056509917
-17.4005656248008
-15.0207611258598
-11.6946097799962
-7.20714933570266
-2.35948825010857
2.80114826802489
9.41027437368219
18.2388438696027
28.2646183822331
37.3299995042167
44.1229669248507
49.0427113870272
53.040178174924
56.1419479339098
57.6220571133244
57.4535311878758
56.926613923451
57.4612105205688
59.0911530049107
60.5841545495569
61.0569846253625
61.0369073977887
61.6878771962284
63.3064368405663
65.0650830838107
66.2595096730354
67.3221278484319
69.2102143979092
71.9586090091692
74.3152651494342
74.9926467394842
74.0004914854948
72.4499752805201
71.1788642554336
69.9751912929514
68.2804433544914
66.2882329668909
64.8972351340674
64.557562693655
64.5434039593786
63.6499042167957
61.4895874354138
58.8287651434845
56.6540902767918
55.2195694348184
54.2059009346326
53.5862198908118
53.9000966442193
55.5130078435318
57.8536040080383
59.6938695274725
60.2042805147387
59.5455296840041
58.3859126283025
57.0833481877833
55.5801575701585
54.0000366583295
52.976643426234
53.1475037763559
54.4280043470245
56.0357317031046
57.2928154167927
58.2464757745173
59.40565867832
61.0280396287432
62.9071823334437
64.8647741929862
67.179555596791
70.2833942042797
74.0752831661361
77.7719680012755
80.5651581797242
82.3344109706421
83.5978904021143
84.8413050829056
86.0976461831457
87.2364282688111
88.4507235649189
90.1904249946405
92.5709763115026
95.0327210724207
96.7484030491889
97.3415226891153
97.1000470298899
96.5160212467536
95.7926135290635
94.9035080474104
93.9965915432269
93.4803788748691
93.6005793620666
94.0510697995573
94.1730115355287
93.5603332214955
92.3743869982167
91.0413109965314
89.7668591919409
88.4699318164917
87.1254216823211
85.9526990277572
85.1200922792434
84.3314180525664
82.8814854847524
80.2067141245045
76.334647322264
71.7520487401876
66.9094156581373
61.9678948350172
57.0065576941244
52.2850613872987
48.1153688158901
44.4655016073364
40.8282546312946
36.592208975898
31.5338091626209
25.9035032586232
20.079260626145
14.2540161694582
8.49598172753179
2.98289186146342
-2.00914104843781
-6.40627493652734
-10.5228196764271
-14.8229145204992
-19.4785031702209
-24.2195793201815
-28.62875525239
-32.5065339414769
-35.8955886364974
-38.8334518623357
-41.2614991716688
-43.2793851479027
-45.4127076097734
-48.4564014173024
-52.9400638082303
-58.7413348718139
-65.2373399002601
-71.783027365755
-77.9730184859345
-83.4781428475499
-87.8135640512986
-90.4742067198379
-91.3678528859364
-91.0312711099062
-90.3067374688779
-89.7699514720876
-89.4912630646496
-89.3249800218812
-89.3238490950247
-89.7797753208899
-90.8877633817107
-92.4945988709355
-94.2663119487167
-96.0683011070176
-98.0764115543379
-100.462150359373
-103.016281178787
-105.15896149295
-106.340115257353
-106.401394930911
-105.55089894221
-104.062174601662
-102.083096058477
-99.7301770861935
-97.2550297097171
-94.9941897780904
-93.1183260802585
-91.4746444722819
-89.7214952662581
-87.62381752276
-85.2250864841163
-82.7925094588718
-80.6801463881986
-79.2597616011833
-78.8805159596484
-79.740923732004
-81.7096761806068
-84.2839166996237
-86.7743326145373
-88.5580049019686
-89.1774249951223
-88.2899619871655
-85.6843561471403
-81.4659027965172
-76.1972069577843
-70.7105020807112
-65.6490056007258
-61.1582214614084
-57.0418327631977
-53.1861495870834
-49.7490528010699
-46.9104608552924
-44.5455144051446
-42.2982589361533
-40.0240907220639
-38.0570673575845
-36.91387093912
-36.7215791074546
-37.0245099643997
-37.2027727086879
-37.0149457838387
-36.6429393148123
-36.2388817528119
-35.580101060964
-34.2752244102879
-32.2468753754546
-29.8582004153152
-27.5050945744788
-25.1806488689063
-22.5593231923639
-19.4968569435592
-16.3299497706198
-13.628312992317
-11.7360459661106
-10.6577915528112
-10.3453680720614
-10.9082409362591
-12.4106153556742
-14.5238815273123
-16.5468340515646
-17.8486485065118
-18.2382587361071
-17.8590115066754
-16.8246424163866
-15.1214243945012
-12.8840014769491
-10.5816517139502
-8.72943468961814
-7.39592067575511
-6.13047673609148
-4.45691177217276
-2.36013689509599
-0.184626771709961
1.88297223390718
4.0329535360132
6.44258404329799
8.8088415222352
10.495566689411
11.20670410588
11.3717870604481
11.7328651139993
12.6078111406795
13.712615732906
14.7118956865764
15.7419579094772
17.2142584164517
19.1780808912783
21.1251897851717
22.5516730781174
23.5879328007629
24.8900588219817
26.923146063705
29.5367256201734
32.3254515107816
35.2278515960894
38.5253275432045
42.2464449218586
45.8206479012714
48.5163916441698
50.1372550117071
51.0676844869694
51.6047624650623
51.4747341101301
50.204185425856
47.8635541152642
45.1632752565465
42.7220645235461
40.4569380864705
37.931447825505
35.2297989861672
33.1683100661564
32.4722620988737
32.9200414195561
33.5667769701448
33.7953910042819
33.8593558322969
34.231523853428
34.6518019513497
34.1991042493049
32.3803424553123
29.8459548839646
27.7527007475705
26.5222063520503
25.5460873622175
24.1817501580846
22.7111144988719
21.9907382683252
22.2586617755805
22.7063857667222
22.4426700703964
21.630509175482
21.3064248609772
22.089668255261
23.4453112457981
24.4460462937083
25.0051366540319
25.9305082048185
27.7235931880271
29.7443173692303
30.9093807053242
31.0480784422798
31.1189237571174
31.9614781514564
33.2083095362692
33.8031063351116
33.4460337907768
33.0229925098861
33.4003084825433
34.1719602598295
34.0812618332274
32.6448970935838
30.8581443195609
30.0002805427265
30.0614596987899
29.8676978549967
28.7755174569102
27.7011436593348
28.0642008018164
29.9686242847198
32.0099030654361
33.0109916370061
33.4383652745561
34.6219045888109
36.7811053427765
38.4753738982997
38.2642305642698
36.4416646509188
34.5651499669312
33.3861272361012
31.9185033297181
28.8949438023418
24.672518342409
20.9990645581418
18.8740901894398
17.3225389859716
14.7558602087867
11.1578962712784
8.17414503350775
6.93768099444987
6.53127047585498
5.21760346051262
2.86984328479895
1.31654139818214
2.0001486340763
3.98244860865685
5.01862638177258
4.4013874185688
3.8226949673349
5.01109648733131
7.21459357144995
7.96416591755572
6.28423190615558
4.15016553913267
4.113049516664
6.03344241067241
7.19010749461757
5.72704165906998
2.99229582835724
1.67666285145915
2.16174642526646
1.93024679626443
-1.06417942594329
-5.41297708454083
-7.56998694704539
-5.76144838172517
-1.42646068159316
3.42168735722277
8.90597986456054
16.0257452276013
23.1808958720551
25.8814456792262
21.0412873669638
10.5853011504372
-0.879832046160153
-11.9737512937889
-26.2773466137329
-46.9118435878156
-70.6611574365514
-90.1571358027425
-102.988318816634
-116.968397829608
-143.95770584444
-187.7053080454
-238.270715200466
-277.795788674908
-289.746686171994
-262.449168347164
-188.526125305685
-68.4079548098013
82.4912323711893
235.454046971768
366.602512946217
477.325889765511
591.002429600971
720.166708352153
834.576028076677
870.312920524592
782.942496018363
597.426270161224
400.760762744864
275.621498063876
234.397655163831
216.976555345447
154.085541881135
33.3055311752446
-95.3951924749854
-174.27847701695
-193.046619522493
-190.844089432893
-210.811751811648
-259.499836894208
-310.194041252571
-337.756184111165
-342.567929135812
-341.275153433676
-342.456761529582
-338.322508459912
-319.112353310385
-288.927735111014
-263.194974466106
-252.737279227634
-254.736800865737
-259.645946453697
-262.586294720292
-264.441843485805
-263.770665138142
-253.320529869575
-227.886200815706
-193.731138612859
-166.127460861954
-155.844270601438
-159.428163303846
-164.107794128654
-161.179607199303
-152.670003284769
-145.258752839457
-140.638752985221
-134.181048254619
-122.107776603959
-106.974363570935
-94.6235746022286
-87.2391759160342
-81.5767700537402
-73.999729694171
-65.1574905594505
-58.3420148291376
-54.3621919623385
-50.1794015078625
-43.0773354290508
-34.551489762768
-28.5482167616767
-26.3128746891971
-24.6364977873174
-19.8095571095871
-12.1552671020123
-5.377338051127
-1.76351714239251
0.479475268162144
4.50545872638314
10.5342440173768
15.634394677984
17.6894999350793
18.1998866315873
20.2796503370957
24.5968378253537
28.6025971606961
29.9528911854402
29.5547808605844
30.3143621122118
33.379084834632
36.8484491141495
38.5213945943381
38.9166013934552
40.5657959242193
44.5921840375984
49.1366120880548
51.6750093336752
52.1380998751245
52.7791987114749
55.0885930646858
57.8882519730046
59.0543598858703
58.4647819520084
58.2028121554905
59.755193078466
61.9385260367166
62.3063936405197
60.1983107312087
57.4741305260718
56.0653156968957
55.6290514918027
54.3554043123332
51.7503054154125
49.6211132900221
49.9100980576486
52.2027713371438
54.1694149493494
54.3626769170851
53.7635104088434
54.1753982080561
55.6922117307631
56.5850272095742
55.682272644026
54.0305572541099
53.6200235524069
54.8471283755941
56.0251572530183
55.5419062546967
53.8305505417477
52.6517083723232
52.7518496928632
53.026989001769
52.2287784555676
50.8575408406595
50.6851641258998
52.5366767449774
55.2660479888216
57.2602061061879
58.4689454728247
60.31020556461
63.6480811942828
67.5715427168743
70.5808038630777
72.5538071696419
74.8322013096438
78.2891244129479
81.9504740199721
84.0375695557553
84.1139797080736
83.5607105002682
83.7887010356045
84.5402977125483
84.4700865668319
83.1710177624142
81.9177425474834
82.1113295930134
83.454750281017
84.2655296495059
83.5622819609156
82.2765591569956
82.0968895295552
83.4938172483903
85.4374417958118
87.0222178979913
88.7312867768019
91.6348302037198
95.604488106791
98.9381421037029
99.9418747808862
98.488839146419
95.6713022997816
92.1747939933672
87.5810004171813
81.4273976527584
74.4394395847128
68.1369414772932
63.2406101937369
58.9578343915513
54.0978354141658
48.570982312742
43.3537449127015
39.05897648538
35.0855888619772
30.498912289434
25.4325618385264
21.0681263754488
18.1319178979759
15.8507201620824
12.761557465343
8.37378902388053
3.58163865508041
-0.638553590847932
-4.49613868135606
-8.97303525632424
-14.3389643609934
-19.6221406047509
-23.7858573555245
-27.0927331988477
-30.8693819810184
-35.9559217326795
-41.8083625313385
-47.3311549421123
-52.2624276701934
-57.2842058898143
-62.7914680871962
-68.0523297070833
-71.9474620204875
-74.3429879099478
-76.2778740257599
-78.6908569261796
-81.3217552250243
-83.1760912392546
-83.8831907862306
-84.1364395865979
-84.6715623831901
-85.2078347138639
-84.8255285724552
-83.3206272573315
-81.736309669296
-81.3098851126238
-82.1345063914677
-83.2083705807868
-83.7457822451353
-84.0215137541038
-84.7016258780618
-85.6492606556899
-85.8830073716999
-84.8089499936982
-83.1182915359055
-82.133969729403
-82.3912123454405
-83.2195934811163
-83.7795203950132
-84.1355377228183
-84.9714250183534
-86.4027495271406
-87.5539214639587
-87.5397455629165
-86.5964453843327
-85.8595714216684
-86.0242062610859
-86.5686046484159
-86.4859416544227
-85.5252431826049
-84.3337746253547
-83.3874279786747
-82.2021002308801
-79.9264474392659
-76.5615896347271
-73.1901904993083
-70.8608441639685
-69.5051385769789
-68.2089226726876
-66.4148201717687
-64.4884298752926
-62.995516044796
-61.7582795447733
-60.0126777756038
-57.4775142883296
-54.8978902208693
-53.2904440909252
-52.8052443539101
-52.6075964921737
-51.8558927042646
-50.4767417301961
-48.8032902705645
-46.7081094722075
-43.5227870261022
-38.9313257763218
-33.6568099761286
-28.9709709019055
-25.5714220893747
-23.1831519788449
-21.2830297268112
-19.9004181080348
-19.423910206631
-19.7432914349482
-19.9840558109489
-19.299741502609
-17.7371884060262
-16.0356344564425
-14.5950914551235
-12.9402942092511
-10.3601638362704
-6.86388561681066
-3.19686972557432
0.0716958260315579
3.13213609365926
6.37550494207628
9.43858882395303
11.194964302839
10.8398096850077
8.77201035162797
6.18633387829217
3.9048767746265
1.90558139932621
0.0412346667870143
-1.14376058444692
-0.711721023183415
1.55157680403599
4.65294655538271
7.25413717328699
8.89631144725057
10.1415337511497
11.56096735709
12.9311048306252
13.649159537082
13.7354829373439
14.0154355595691
15.1708788585006
16.8702688040279
18.1282206555806
18.478430174694
18.5041592743498
19.1005142586285
20.4519040053354
22.0132475986554
23.4242449689278
25.0671741440433
27.489354764416
30.4550800165051
32.9237374607281
34.0674859480886
34.0921485589492
33.8693340696618
33.8980298319615
33.9207138872968
33.5966461399816
33.2261042165705
33.4814668047266
34.4659760086929
35.3692081635684
35.2533572714017
34.0392716608057
32.4844329635112
31.2237172439318
30.1150197779526
28.6820370611901
26.9853286803153
25.7023778959898
25.2712834454516
25.2290594873466
24.6677548335821
23.2980668481401
21.8138098074316
21.1256613202732
21.443157072117
22.3152698865739
23.4578432916706
25.1951204140886
27.9144141020164
31.2908245622565
34.377012315536
36.5263476348051
38.0141735287548
39.593312323767
41.5751917974235
43.5912568889012
45.24269476676
46.6655684688436
48.1943475225527
49.5820420430377
49.9101930808854
48.4603579065758
45.5309589556781
42.1816179386588
39.2164372387377
36.6620320765288
34.3162587295798
32.5217839949367
32.0264605550254
33.0334361995976
34.6938289837485
35.810469634629
35.9835231393468
35.8264517378134
36.0265435615552
36.4655097226705
36.4947005094853
35.9325564000027
35.4074880436351
35.5471165480861
36.0727636900084
36.0412456334926
35.0054332929051
33.6379879937155
33.0008507427912
33.3570916819394
33.999403452672
34.2473345249867
34.2518569408041
34.5222634090292
34.8149080608657
33.9376642298222
30.8866644838182
25.9777755785561
20.5549654858729
15.610758727262
11.0086322393253
6.1969574519918
1.37009390430626
-2.52549795164959
-4.98570586209996
-6.74751540497059
-9.04453571934143
-12.1704126526781
-15.1483101944251
-16.9243993760547
-17.5583043540625
-17.9144415708928
-18.3443714119141
-18.1839935099965
-16.7831479391973
-14.6759165467815
-13.2169391278972
-13.0157705724031
-13.1768746349196
-12.3988611263115
-10.5538022870633
-8.675551703723
-7.3708804697104
-5.84689431399289
-3.03832960939082
0.522192496058214
2.67978176274352
1.83838528856482
-1.27051720114297
-4.590884136557
-7.40481995931784
-11.2099434337804
-17.3965776944311
-24.4203222705904
-28.1518375719294
-25.4389665805855
-17.012760265099
-6.60544697931143
2.34097637410495
8.37360825551018
10.6290285803839
7.03609463779218
-4.86234959820848
-25.3765052836513
-52.0434126410339
-82.1199163974992
-115.054439417917
-151.6397986182
-191.080068017244
-230.041868586952
-264.40297933754
-289.429448318984
-295.796081724707
-266.903479991132
-186.157975490343
-53.038832816001
107.542652712362
257.843517910303
376.207288453577
474.807108909196
583.341736537339
709.040614914015
812.8933301336
832.644213275517
737.809638916453
565.234371289871
396.845513288905
295.810666778794
259.321007377904
231.445207106256
161.401482790563
49.8999472510669
-58.4448604062419
-123.135057239439
-145.189372554399
-159.396275201256
-195.637827954923
-251.757852906715
-302.235666529215
-327.22318461327
-329.165478477036
-323.481477403821
-319.264869131247
-312.769867684731
-297.541428736671
-275.817442379467
-257.523624438822
-249.968855854862
-251.414047752325
-254.775857691979
-255.031010345387
-251.369224825182
-243.795047092404
-230.930799519306
-212.527056725014
-192.425842094803
-176.570341334043
-167.493811066557
-161.991229698225
-155.095813215597
-145.646407638948
-136.821299718118
-131.420464341145
-128.105003783103
-123.187924538832
-115.32694528834
-106.993233895967
-101.04706927517
-97.0582506018203
-92.0596063163684
-84.4930158834911
-76.0875751641593
-69.3527960060345
-64.1592842308847
-57.9259084604365
-49.0800848746312
-39.2056870475316
-31.1176990246124
-25.4354747631974
-20.0651385402938
-13.1037369135242
-5.27888901164239
1.17638109942466
5.56320325843855
9.60290772711966
15.0644084157048
21.333165973077
26.123412481004
28.3608969864112
29.4685113311394
31.4662187386926
34.4662872715216
36.8202307068401
37.5856591227444
37.9454287982847
39.6895110426345
42.8105248697444
45.4309555098904
46.1839202962116
45.9441665426007
46.6848924313203
49.0029683922665
51.5357979226799
52.934214842505
53.6921170425258
55.3889996165823
58.3764826593437
61.0153560635181
61.5299220582507
60.111729035642
58.5890999341386
58.1542400827784
58.1126131679461
57.1858537581416
55.5154412564248
54.6461867134831
55.5043790429391
57.0674826132197
57.5191887067589
56.4208564290991
55.1148082119973
54.9043629387472
55.4314566739741
55.3317262407923
54.2008909096729
53.2025257478733
53.5024422558475
54.6301759032813
54.9793187884419
53.8373520123657
52.3183213114575
52.0053289921222
53.0850717537421
54.3638501937348
55.0368900974891
55.790334566388
57.7555170530006
60.7271577349657
63.0641934622226
63.4930877553299
62.5361404933172
61.7693007784832
61.920122436646
62.2609254395508
61.9807920256624
61.6093419932736
62.5470366143087
65.3068171688432
68.7958520223255
71.6036512171602
73.6378134979013
76.0179227826259
79.4330551470781
83.1435857240407
85.8923435163929
87.449630873816
88.7230005974101
90.3236435486835
91.5537871711221
91.2127676601667
89.189293416816
86.7487051001336
85.1288049999906
84.2559991733428
83.1887521145526
81.5937209655557
80.2277913908777
79.781489049151
79.6682484715837
78.447564302828
75.4157056331889
71.3460113417319
67.4599187522499
63.9966624199193
60.2124980479142
55.7059359934334
51.2231742642179
47.8410321032423
45.6251497114767
43.573310613027
40.9411563994336
38.206007039118
36.4045895810476
35.7310122627713
35.2378102177489
33.9904756522294
32.0957924342748
30.2336816213475
28.3740500316804
25.4894943885008
20.7510117263273
14.6750304018961
8.68491886025254
3.59907594176288
-1.04224414953212
-6.01005181564498
-11.1367144850833
-15.4855574238554
-18.7136033761624
-21.7604957147713
-25.8417058291599
-30.9641925619984
-35.8625174863628
-39.4540539884037
-41.9754055929345
-44.4153874022032
-47.0929253045968
-49.3052617642626
-50.4983446081875
-51.3554035847473
-53.281041243734
-56.8642682202781
-61.2567048311063
-65.2291937141094
-68.5241739832184
-71.8091429241757
-75.4232343765796
-78.6754121448526
-80.6515741327949
-81.430009339702
-82.044068927327
-83.1988951049315
-84.4094639846971
-84.6731543882388
-83.7719189270422
-82.5018184337362
-81.5888498230512
-80.7970613859159
-79.4363463852469
-77.5536724594466
-76.1391626783894
-75.9882370114273
-76.6865926907666
-77.0732133669522
-76.6111426388984
-75.9065834047073
-75.74848279268
-75.9937927111925
-75.8015851532216
-74.8857196166456
-74.0586322158175
-74.2568048375209
-75.2704373143575
-75.8445803445185
-75.0619140557336
-73.2617496190908
-71.3758886360356
-69.6384757114211
-67.4091920840044
-64.3142097488574
-61.1104054200262
-59.0185780127462
-58.3106906058578
-57.9681882646907
-56.8687157095705
-54.9873445401174
-53.1108646402223
-51.5360585033786
-49.5441317434939
-46.3723415501272
-42.372855686213
-38.7635812189828
-36.2272634185278
-34.1576190850938
-31.5363418698399
-28.3127614203333
-25.5196369316522
-24.021185587017
-23.5557185082675
-23.2928916562311
-23.0902504056011
-23.7118509048176
-25.6732111116399
-28.2307618889436
-29.8829234985169
-29.7983156151212
-28.4083987671344
-26.5253806528748
-24.2551559268939
-21.1501689535794
-17.3053153064611
-13.7993875186372
-11.7604228831653
-11.1983293201189
-11.1013896397094
-10.6624101497729
-10.0565137495475
-9.84110800919279
-9.89654578373495
-9.39835170928896
-7.86685398135904
-5.84507831679954
-4.23326783504561
-3.11979702996234
-1.6544469277201
0.851444429230142
4.03129688232767
6.92282989970792
9.1234250718188
11.0806507750332
13.1616848770501
14.8290631417486
15.1321251786261
13.9409626544157
12.2933344725952
11.3393156516169
11.1965148358142
11.1389466304625
10.7800986335057
10.6201307815835
11.2276268954739
12.2063771825726
12.4261265712025
11.3130123223502
9.54488794175374
8.23509488260447
7.65518265221043
7.13051447550603
6.16680900890631
5.2378772075352
5.16166273012051
5.93747896361566
6.68016486724803
6.81524034870769
6.95931599519479
8.26540461482074
11.0322973858862
14.3711312238744
17.3355990067541
19.9842697048609
22.9535332807556
26.1551777642793
28.447534410052
28.8644952152253
27.8652426760607
26.9333498842026
26.9530701263257
27.3842727336721
27.2257192798903
26.4343352183577
25.9134397113084
26.1286451527156
26.2734032184111
25.201276165679
22.9873613660329
21.0963933028907
20.9048711717657
22.4227689189353
24.7349092604429
27.4013736041646
30.8635739542222
35.349354208856
39.8659058757349
42.7779846830934
43.3251963562738
42.1443100972304
40.1766540361923
37.4769237609539
33.5040569678048
28.3920453090936
23.3273447435539
19.398913354499
16.4518965670364
13.5604914118675
10.545073963413
8.46375102234397
8.32863876437928
9.72645919822988
11.2406109937129
12.173858607527
13.2567865528041
15.3376270196505
17.8227368173209
19.1021739601392
18.5700363907774
17.5775773021935
17.895454352944
19.5339770067119
20.74112595526
20.2321378108427
18.7538694586628
17.9087505034719
17.7956135740505
16.6939249565775
13.4146207267265
9.39149306954907
7.76428051695977
10.4390430589306
16.5592843286906
23.8634995855635
30.7635122174867
36.4971759323687
39.7983304146633
38.6943973663417
32.2024376399706
21.5550845077273
8.87293458046698
-5.20306665741473
-21.6392505974637
-40.625737633727
-60.2603780332704
-78.7942960314487
-97.7446748285487
-121.09303123306
-150.579469302948
-182.831007608521
-212.200584347357
-235.002967148716
-247.595449486586
-239.05237900842
-189.709901238237
-83.9016033301844
72.0064809054778
246.961018188107
406.677495091658
540.768868565611
665.569326360595
795.112886343058
909.036154740456
955.400983239639
893.0577383646
734.428195840955
543.745792148118
388.167712378372
287.186289280298
208.243434336849
109.824495698909
-13.4754299048335
-127.861233791946
-197.343213073128
-219.169205324403
-222.679447842916
-237.967092497978
-269.962685240866
-302.039862503858
-319.016208458634
-321.951581663124
-321.873864046194
-324.778314507916
-326.666790451075
-321.735663227607
-311.056634372335
-301.208380750992
-296.353044575856
-294.389149082846
-290.810663451872
-283.865365551456
-274.487427742154
-262.722870556922
-246.927028183541
-227.196791386329
-207.762840895778
-193.998094182011
-187.010608442233
-182.481521783394
-175.393626319676
-165.052166938557
-154.638344531961
-146.465697070942
-139.146965710581
-129.881184364775
-118.371778689606
-107.181206022101
-98.3611234994699
-91.0134092086723
-82.8657277362507
-73.4779048061345
-64.7112168767339
-57.9812139257822
-52.1420930821602
-44.8794993817325
-35.7222683567372
-26.6703586025061
-19.6784844303037
-14.3733800381619
-8.93325338298288
-2.77516961920048
2.63502384888911
5.8971982310187
7.80305470266035
10.5752018409847
15.2008859557369
20.3591873109271
24.287461201163
27.0543345969922
30.2622956723661
34.6964533159882
39.1524995133553
42.0315771769235
43.5497713269139
45.5813872183145
49.3049063738809
53.7275572813295
56.9865907227047
58.6708366612125
60.1238347526731
62.4209757553484
64.784315424218
65.5578878212977
64.4288022429446
62.9316305333639
62.5629658484584
62.98170222671
62.6221926758821
60.8567595720683
58.8564076910554
58.0879056029009
58.5077640686767
58.8342204383882
58.4513243300474
58.3361100278115
59.7482603219289
62.4254010177128
64.6768524645347
65.2469646763673
64.5188347947701
63.5804463873395
62.5410196886601
60.4199978548997
56.7338908430356
52.5726480721132
49.6228496399802
48.3483253238021
47.6806275636133
46.5803622621441
45.3764190916161
45.1423347913926
46.0294969784932
46.8719481485725
46.647462909994
45.854096133182
45.9315500416166
47.4409102853323
49.3725785147797
50.4717245998114
50.8188533939078
51.5975258658662
53.4116167583496
55.4369579834173
56.5548729447588
56.9468147706339
57.9917108971913
60.5521775118958
63.8783795622181
66.5537485534075
68.2261531331995
69.8644460841413
72.2666187461254
74.8659843827947
76.4552899120453
76.8607833308745
77.3053695456343
78.9256915453236
81.3582261048592
83.2304576060533
83.8926882348318
84.1189628367791
84.906850420882
86.0347562954962
86.3316917399811
85.3025077468527
83.9220631296205
83.5003972200769
84.0766055720654
84.4262832802984
83.6412749818552
82.1894544844437
81.0968836738147
80.4124334784691
79.0543787142711
76.2607406218135
72.6919476172487
69.6746931271449
67.5463553481637
65.2654206069887
61.7832230633618
57.3468783606543
53.0181014699647
49.0921763424659
44.5824378473566
38.5138537601629
31.3308176656173
24.5254252358523
18.9234253427485
13.8456449657355
8.22273282189643
2.17396997250556
-3.04215484275459
-6.63763272105266
-9.32917082655453
-12.4199730654879
-16.1323884435597
-19.384975426635
-21.3024776776935
-22.4675439032485
-24.273811603722
-27.2421889305964
-30.5049564591631
-33.0914421110613
-35.2699329806157
-38.163521323499
-42.1826823740934
-46.3948964764356
-49.6906357679001
-52.2020174403616
-55.091487078835
-58.9965073484237
-63.1950854056908
-66.5789039660989
-69.1016921955955
-71.745758860864
-75.0527992670948
-78.2136387546305
-79.9883197174622
-80.2828567501588
-80.304651077179
-81.079409677605
-82.2759611845865
-82.8690002756129
-82.7165511200984
-82.9029636851695
-84.3452448732957
-86.5007433700074
-87.9238282543344
-87.990400187107
-87.5532240068483
-87.6863022776702
-88.1937112582294
-87.865405949522
-86.1412891189845
-83.9629153217958
-82.6503625041552
-82.253927883235
-81.5431202726778
-79.6549615723958
-77.24633571353
-75.652147428542
-75.1747597765547
-74.7609549042969
-73.4787751034183
-71.833083455451
-71.1852229937312
-72.0499518633066
-73.5065895165313
-74.4615381785024
-75.0486635833903
-76.3036752018055
-78.5723499732854
-80.7996722302489
-81.6584230565323
-81.0173616384923
-79.8117011683525
-78.537736905334
-76.4453772456478
-72.5544945972718
-67.1385562448961
-61.6430169132382
-57.0748129876173
-52.9622009164966
-48.2592042186673
-42.9841405682703
-38.3808119269168
-35.3466454402266
-33.2118981249595
-30.544845666457
-26.991167426487
-23.7496199374012
-22.0378632944856
-21.5369739052113
-20.8425987825145
-19.3170171391462
-17.8895314639283
-17.7374745506634
-18.5832006512959
-18.8662961449903
-17.5941973815631
-15.4714209961762
-13.8614702583622
-12.983693934347
-11.7289406382345
-9.30667615449695
-6.4986656301464
-4.82097351196479
-4.68011537669454
-4.94933776457224
-4.50832415172474
-3.69049251988902
-3.72433201248408
-4.94573517224184
-6.20618714945952
-6.30172497608895
-5.52948909144907
-5.27969931664269
-6.1787546363753
-7.24342210537772
-7.17441380230538
-6.06224341095574
-5.21166994138577
-5.29988479022135
-5.33914599168323
-3.88270037682628
-0.924909720752957
2.02223244900538
3.8099143737277
5.02117258455711
7.01247345827048
9.9014573024708
12.2064558749544
12.6787840998351
11.939999531858
11.7420722163845
12.7875950490352
13.9703755885704
14.0444428081022
13.5105888153921
14.1864418289811
16.9691499176024
20.7103846055452
23.690904672576
25.7605183063642
28.3172094775679
32.1496767538339
36.018886572181
37.9203769325343
37.4438173859229
36.1733582532685
35.6220521747983
35.4254635214652
34.1623085768514
31.6757259239502
29.7518543858674
30.1628450526478
32.5805848216428
35.0824926462306
36.5869732551648
38.0286733492885
40.7636946517266
44.3755784837144
46.8597020025944
47.008181267083
45.8697638023451
45.3447283262407
45.7523902173824
45.5764962467626
43.7140100249946
41.2230907669189
40.2120356049832
41.3007345915983
42.995381699141
43.7883771166326
44.1689736185055
45.8407315928564
49.1760770276047
52.334531248945
53.3006789497557
52.2078576874424
50.8939561891665
50.2974889949015
49.1905743614585
45.9692637938114
41.0952505389976
36.8280768180227
34.4671312887973
32.7175235521421
29.413397705196
24.3996753858421
19.7671529794584
17.0923787629744
15.3448614620385
12.3150945044111
7.74146544546732
3.9474155515315
2.99574512500135
4.0097709916964
4.22416513699959
2.485514645905
0.652212538544503
1.04102873691611
3.27955623947388
4.76388262922419
4.17754886515743
3.40896311844195
5.21923501093197
9.60502129418922
13.5924912715025
14.7397581294028
13.760964911874
12.890269396073
12.3230644397488
9.66768848979307
3.26977589569166
-5.04133925369894
-11.5560725505902
-14.5268322056462
-15.0415329824321
-13.8503801511358
-8.95900493869036
1.86621845858778
16.4403083513352
27.9983697947612
31.0375570426726
26.5113733159489
19.5505869688005
12.0173126562879
-0.617850776521131
-23.2800482288437
-53.0612980151339
-79.6437889821695
-95.5556772594
-105.18701830042
-121.841771746452
-155.155622319486
-201.458320591878
-245.24525821141
-267.395230219532
-251.153929789651
-184.502916412433
-64.5480010840648
95.6828791309131
267.966285420995
424.634044577928
558.857610136223
686.52477954541
820.770410816384
941.463458814116
995.254836650568
935.648821446568
769.298240106
561.351270677144
388.827846320369
282.717412003985
212.553581435518
126.108481707681
3.3498604671433
-127.163690488066
-220.420119735652
-258.671762157152
-263.618948161522
-270.962644291865
-298.382486657398
-337.830703705
-372.321661404473
-393.582322586999
-403.294310155272
-403.541403953213
-392.435741304199
-369.716197667927
-342.281212790768
-320.351701588129
-308.330076947016
-301.804656323956
-294.248588606904
-284.730050477939
-277.215240932421
-273.191373534944
-267.743295566117
-254.458123814426
-233.163251571104
-210.956157486981
-195.261337796894
-187.042691719717
-181.465074886753
-174.091835521761
-164.838830486465
-155.892717049294
-147.5985188269
-138.005419452693
-126.102114589561
-113.816296254486
-103.883277404507
-96.4492536222339
-88.946259956314
-79.3808564331237
-68.7451478273113
-59.551631916801
-52.5830791870166
-46.1049111032981
-38.389647633713
-30.0964083428962
-23.4072024208822
-19.1488473996785
-15.6725026055851
-10.8493616808688
-4.51308884489748
1.72535942701311
6.82612559263628
11.6373150291737
17.5258047676853
24.2667674048121
30.0400736974839
33.5413079724889
35.4669103770977
37.5242981791002
40.3446026501958
42.9824196541121
44.4875123460389
45.3354672858429
46.8182438216228
49.2734741275899
51.5513506427302
52.4413548295597
52.1998929711954
52.2234588126888
53.3477229286726
54.98326246635
56.1143097289111
56.7333346273823
57.7907130611306
59.7736441257906
61.8524779089493
62.7659614315844
62.3223113144417
61.5942627025575
61.5871916922139
62.1002485387594
62.1772046530188
61.4508886962217
60.5807879067181
60.2537876831901
60.1324324765999
59.1852866215499
57.0033722405112
54.4159982109334
52.6253418805604
51.9600692070636
51.7683190173393
51.4524690118178
51.2155378836644
51.5706957810379
52.3510076684533
52.6109535633056
51.6169978423045
49.6876052740512
47.8333310458358
46.6741027927345
45.9730790682341
45.2549374677158
44.5732904452581
44.3878128083088
44.7735431951751
45.0996314536122
44.685353687704
43.6324048441764
42.7804134343769
42.8515318991231
43.8576375782316
45.4407839028963
47.5765220227446
50.6375122131477
54.7320120107945
59.2500498540553
63.3080139935288
66.5999295430094
69.6032946323024
72.890874931905
76.4225638794548
79.6805919792947
82.4010573332297
84.9018490271225
87.5788012137012
90.2668425841665
92.3583440144094
93.5812681798746
94.4576429193099
95.83763615061
98.0551877990609
100.70370142948
103.22531046044
105.500005417611
107.695111550808
109.653996609903
110.719939479818
110.313180185952
108.574642553405
106.266624157448
104.031888950191
101.883260916447
99.4589476223185
96.6052362143126
93.4993333430085
90.2104760262972
86.3774315755299
81.5247079409826
75.6695116991507
69.4452791584959
63.5523713535354
58.1834308858762
53.0781816554976
48.0458757059209
43.2247384996353
38.7561159617066
34.3775585904172
29.579306018546
24.2239319531427
18.8703728326732
14.3478481187246
11.0290207803179
8.61226687361564
6.58617582576845
4.72959558348191
3.02985361091565
1.21231126620195
-1.39596206926907
-5.3779739519143
-10.6525580523276
-16.5090809318388
-22.2306074261123
-27.6047056195841
-32.8138475798737
-37.9772338610398
-42.9794616938267
-47.7501059667686
-52.5207259177488
-57.6261331127051
-63.0534980626783
-68.3108637085933
-72.7976129329606
-76.2355813539775
-78.6813199473768
-80.2153455753036
-80.8080154577059
-80.5584994123411
-79.9253339913227
-79.5258929993019
-79.6619181885655
-80.150085352607
-80.6970817825786
-81.3654950693476
-82.5428050323292
-84.4581652180375
-86.8814034327624
-89.4011730296713
-91.9039260580603
-94.5824430337419
-97.411277337972
-99.7692975782525
-100.778675803741
-100.055012155436
-98.0221171924452
-95.4473955294475
-92.787002393588
-90.1161625536309
-87.6247791070144
-85.9072607374655
-85.5454098195145
-86.4373279735844
-87.7299576083406
-88.5210377132505
-88.5643754531936
-88.2162088746223
-87.7926251444215
-87.1878958058091
-86.1890978197531
-84.9789211046855
-84.0746040956986
-83.7104606573967
-83.4345775100551
-82.4599779010673
-80.3817002627441
-77.4359194789781
-74.0762762011035
-70.4818318375582
-66.6153487940304
-62.6597240426537
-59.145850403641
-56.5216844057585
-54.6973676138839
-53.173093183499
-51.6114842515805
-50.143524276762
-49.0568415869049
-48.3246240646743
-47.6126385210687
-46.7202057112897
-45.7999268211588
-45.0028013823073
-44.0159650696632
-42.1772712319446
-39.1253612848982
-35.2131718847305
-31.1677694380463
-27.424356875611
-23.9639829580207
-20.7960898075954
-18.3458099354056
-17.1171427533617
-16.9967924647951
-17.1316459242872
-16.6565542436794
-15.4698034588322
-14.1530612163356
-13.179333479934
-12.4202993553995
-11.5329484576989
-10.6315397928073
-10.2679615702072
-10.6660118666486
-11.1865613804813
-10.7771424275823
-8.93733319624888
-6.07640467804443
-2.90027575730645
0.337522979314807
3.7889128299125
7.33718341707452
10.3030563788526
12.0149833072114
12.5449581036428
12.6421689370519
12.9094724834631
13.236557577909
13.1575947505778
12.6006291813353
12.0228081003127
11.78920011977
11.6861332409247
11.274629168755
10.6311544073705
10.4516646333455
11.3030215098309
12.9407337193473
14.5591176723323
15.6460610757965
16.3498552412262
16.94560945905
17.2087388802645
16.625300406352
15.2122347957471
13.8298372081426
13.4686295470316
14.3285406286734
15.8115964182635
17.3879521444056
19.1828026016515
21.5428406803723
24.2371763815459
26.4627541700265
27.7441583861096
28.5659369507007
29.8485779281781
31.8687629003712
33.9759649845812
35.4473666532643
36.3526601759077
37.3100163522397
38.5059381493192
39.3484732589737
39.2783922693926
38.6774829013741
38.611480322515
39.6451679587815
41.2082728158101
42.3078103886168
42.6439330018748
42.6869828381887
42.6905184190074
42.067486462337
40.0803289869928
36.9891916660481
34.0866223919053
32.4457589310569
31.9173413416628
31.6371479747479
31.3454886079741
31.7474678448608
33.4210370364384
35.7584434540043
37.4565288478977
38.0351924679088
38.4235868035384
39.7764296129799
41.9762110603007
43.7342798779274
44.1605569440371
43.760902657447
43.5655789417567
43.5545405930087
42.4955498571968
39.4650783435696
35.0825392398174
30.8220193712573
27.2716494739544
23.5984912453204
18.8958286406757
13.6109163921914
9.15964757469442
6.2624519197829
4.24737951589708
2.25384117118892
0.673598174572021
0.794608751356918
3.03077545193665
6.1026352921125
8.35018485368988
9.51117436702343
10.6186527779282
12.1743859216369
13.1350830788087
12.2215808811588
9.86824065705724
8.06410882385325
8.01881206859669
8.58597687390878
7.60650763906298
4.58136289847562
1.23381063685386
-0.821685096408231
-2.24505758354076
-4.98156833602289
-9.2280684412039
-12.3259848099892
-11.3019110129732
-6.14606530647225
0.123413945157438
4.58839013395595
6.83616972804967
7.93239456727315
7.87196076417985
5.27175077721805
-0.28726607286643
-6.79929945739873
-11.8053995400248
-15.6156584777177
-21.5556357379231
-32.6603095606308
-48.8513456448125
-67.9820450115518
-89.0544400118062
-113.320577871783
-142.286386768729
-175.787195119649
-211.971864638268
-246.375065895076
-267.677837049001
-255.076648523632
-186.136850661498
-54.757349623705
116.615943850604
287.935871179206
431.867110808358
555.003582522849
683.906552336088
824.399834711551
935.698846473517
953.111460915852
845.216658897651
651.183204376273
457.167489524566
329.165412644574
264.487163789063
207.093442187074
109.166162061981
-22.8353214731991
-139.967703052889
-202.429046926014
-215.832876970414
-218.942519006627
-242.437270435939
-284.077378588802
-321.27775189985
-340.058439283135
-346.605846546679
-353.235131148757
-360.450557019827
-357.272851505394
-337.040573274165
-307.739835850648
-284.654139665224
-275.169512202001
-273.595143458367
-270.248716423847
-262.361656077498
-254.371292255048
-249.539744909566
-244.678062779789
-234.104420528399
-216.802820317681
-197.620066106788
-181.767787246434
-170.019988087307
-159.925015816585
-150.10223568732
-141.457994911069
-134.357195835513
-126.597919575003
-115.622186515131
-102.155275958687
-90.1444407486413
-82.6077502038795
-78.4088217736357
-73.8825851360872
-67.1457902163635
-59.7608288123027
-54.0680582424323
-49.9868652184971
-45.3701997346682
-39.0846570760696
-32.5210824920527
-27.5906363603446
-24.0241588934283
-19.6171314131198
-13.0498549032598
-5.52924906758606
0.837829270957467
5.68266861367665
10.5302174551716
16.3711136696447
21.9743295165012
25.2226582050227
25.7291373820752
25.3337121084697
25.8945227684459
27.2869572293371
28.1333078881318
28.1357067617711
28.8313939297266
31.7615022535417
36.4838782559703
41.0397658527072
44.2522637526166
46.8880000200304
50.2759703336468
54.3038537613648
57.4331482702825
58.6441221462781
58.7050710295362
59.12414395382
60.216817781904
60.8326843125931
60.0432581359718
58.5225987357237
57.8149525004089
58.4841527121202
59.5582251645039
59.916351536246
59.7201155723997
60.0133802319637
61.0940495779867
61.8756034371587
61.1115173201855
58.8887042920106
56.4656787191474
54.7168523216245
53.2280166348753
51.1573847760606
48.6292363072864
46.7727952306447
46.3624730196324
46.8697091515989
47.1683890866301
46.9503638166485
47.0071417351014
48.0624188241586
49.7338567974836
50.9779538092047
51.387116527548
51.6138020035559
52.3996786684476
53.542091336468
54.1797439362839
54.0041465533869
53.7822441147972
54.5021056914644
56.2621760787028
58.3237237540064
60.1851643289854
62.2137373394407
65.0131606066316
68.4139997199541
71.4674195685109
73.4778315990624
74.7374306587521
76.0330301191207
77.6091124828654
78.9467278950307
79.5970567811138
79.9129068742498
80.6921222166792
82.2151898023849
83.9550410207651
85.3259426111116
86.4616977794351
87.9969190693298
90.1592350148528
92.3771818514462
93.9011838152438
94.5983248411209
94.8917884721981
94.9872784943135
94.4725332053984
92.8470620234083
90.2754451825616
87.5548213705096
85.3287654210842
83.5573796080676
81.8758707801861
80.2785245592263
79.1627221776979
78.6748219858757
78.270693991034
77.12753178286
74.9020174507383
71.8658411779902
68.284931008713
63.9157266386865
58.3168485622101
51.5568125609395
44.3447498535418
37.3708715601005
30.7018078712932
24.0115549949315
17.3178748451387
11.2150547649455
6.25806240420006
2.28618828474521
-1.42629965066972
-5.3761005475078
-9.40719000697193
-13.1689175548544
-16.8017901881545
-20.9073541805964
-25.8197092772219
-31.1319427522447
-36.1077195829508
-40.4588570266015
-44.5080449359756
-48.5765287902128
-52.4450757548654
-55.6094461749659
-57.9780024472425
-60.0693497534853
-62.4335626380626
-65.0479580182525
-67.4680456186091
-69.5171810141468
-71.5970480081505
-74.212270837436
-77.3383129262302
-80.4567695644008
-83.1956140623018
-85.7250330931102
-88.4011980902304
-91.1511532009043
-93.4274470102531
-94.8038423201862
-95.4448402768032
-95.8578142943927
-96.2727517202956
-96.4521182390982
-96.1342085000364
-95.4771836420773
-94.9006332579437
-94.5478326980762
-94.0988189160782
-93.1885693460111
-91.879189177785
-90.5742348450809
-89.511040867355
-88.5145991162533
-87.3229318031815
-86.016905211671
-84.9532387242849
-84.280902253563
-83.6974316313664
-82.7966262605801
-81.5752543867958
-80.4450191748454
-79.7329995640226
-79.3113675869766
-78.8149918490302
-78.1310008619324
-77.4965888919108
-77.068776292836
-76.5336596450168
-75.2849813362245
-72.9802165047018
-69.8137334853776
-66.2184119988198
-62.4167450779502
-58.3816249632338
-54.196439671705
-50.2902156061271
-47.2124906125812
-45.2167057265922
-44.1464893959938
-43.7115459678609
-43.7660384765727
-44.2626386742893
-45.0152674568461
-45.6336736519711
-45.7259439738416
-45.1052460323551
-43.7658122101124
-41.7266994022351
-38.9973225143157
-35.7015409405959
-32.1438369866679
-28.6771161673794
-25.5170678508071
-22.7263024165431
-20.3500499136949
-18.4729466314182
-17.0927819492376
-15.9964987167878
-14.8577674413218
-13.4859924606687
-11.9362010793106
-10.3528191481475
-8.76015163196863
-7.07081634940369
-5.27875383671516
-3.5488345845028
-2.0582810205718
-0.791794861361304
0.432101178071054
1.72890543684628
3.00867393449335
4.10215730112555
4.97344754778566
5.73829752777005
6.4859815746897
7.17186970785443
7.73730969412442
8.28154030624237
9.02345126253504
10.0758123888473
11.3193760690433
12.5388525757261
13.6343899369608
14.6301996547066
15.4950400530414
16.0606518149582
16.1902546031971
15.9870324064102
15.7471283483995
15.6884905692725
15.790012508156
15.935266682988
16.1509146418039
16.6085395455969
17.3896723165354
18.3474742810369
19.2734323070814
20.1569245662781
21.1853924870964
22.4748430655356
23.8856575283797
25.1670309256215
26.2316272632524
27.1921409945029
28.126928716404
28.920094223362
29.4152488540709
29.6731285790892
29.9578226764398
30.4396029861135
31.0017022026719
31.4120674177482
31.6265145295642
31.8086477159311
32.04958760631
32.2036852277507
32.106793076195
31.8930909242866
31.9424914444894
32.4683717180921
33.2655925038237
33.9588729675896
34.4240993834484
34.8064990333868
35.1091874652383
34.9520049844807
33.918346030658
32.1036067713015
30.1336640675666
28.5649366475269
27.402925150769
26.3592291146166
25.4989283786928
25.3791407520102
26.4271772993687
28.3437083561819
30.3499297943469
32.0185782784526
33.6346261262756
35.6107094287741
37.7216594121605
39.1858965297923
39.5192762148939
39.0524037225156
38.4259293012656
37.7296487630279
36.4335148560522
34.2004741711382
31.4707547130131
28.9951077392445
26.9181827698208
24.6550599600448
21.7554961430101
18.5971815894074
15.9503486009144
13.9949795130721
12.1636752781698
10.0810765721605
8.31410048561701
7.80247246771735
8.61547044306134
9.70488152015098
10.0953383092063
10.003281496223
10.3625261078741
11.3309477698268
11.8171356586732
10.8148322244772
8.87274044218885
7.65319096588399
7.93647079677438
8.55517734775403
7.69551048160953
4.98439130336342
1.72340430411824
-0.968322543745675
-3.56506022161081
-7.13603052672942
-11.2449092611888
-13.6734367078647
-12.5666277251807
-8.31804899549972
-2.73966797753453
3.3390101588293
10.7160015482876
19.718460074031
28.2390429820389
32.8558980864156
31.8800281604051
26.3582738464727
17.6326858681447
4.84927987239223
-13.8118735441129
-37.4897136904051
-61.7848834926658
-82.8559133408927
-101.995401701612
-124.794169201954
-155.33260381034
-191.946691838469
-228.640746886741
-258.248282182377
-271.409134329604
-253.399925229721
-187.976429485523
-71.0431510121218
78.3253750353557
226.125825813757
349.531001201887
455.957659277531
570.75769284941
700.33198030415
808.457544734874
836.873886102113
757.099080136083
603.545200803469
451.018549121812
353.960365115496
304.895511075012
251.770023883999
155.092388819481
27.1534583281254
-83.22788855473
-140.193205508354
-152.400715583193
-158.213417193147
-185.746199236578
-230.646405727718
-269.476393370037
-287.589242093977
-290.290596265815
-290.454471743879
-292.228411475648
-289.901650040143
-279.333642606725
-265.192728893509
-255.606025038038
-252.776403033803
-251.80006225211
-247.872460146625
-241.539574270267
-235.704966774699
-229.794079190708
-219.808200637606
-204.273321083716
-187.684745896893
-176.230505138426
-170.844700912705
-166.313940665983
-157.531219859072
-145.103692329437
-133.702446377961
-125.867908362008
-119.315709037494
-110.691202717368
-100.324505226759
-91.709393915236
-86.716152019746
-83.0713947415834
-77.353864648366
-69.3826425866695
-62.2070338406329
-57.8803518551495
-54.7140520307969
-49.5753643696584
-42.0621868048703
-35.0113693492482
-30.7455115306721
-28.0550151605975
-23.8255025882518
-17.0658175669586
-10.0417263455947
-5.15929449020659
-1.82593128123499
2.58830214500803
9.06123917099239
15.4283361765496
19.037020499638
20.0340940400664
21.0298469141489
23.6975607463472
26.8133952404502
28.2021119377704
27.867702045886
28.1235058306885
30.6037587944909
34.1561974570409
36.3789916126027
36.7278917025533
37.1153609410089
39.3127506274847
42.6672028764853
45.1192497634276
46.0638204270256
47.1863404097815
50.169644067935
54.3526723066237
57.4612795228511
58.431548428699
58.5912888578368
59.6857016834771
61.4276292528324
61.8444356737172
59.9396627585791
57.1086239982406
55.4208631699368
55.05334275805
54.2775487463382
52.0018562278572
49.4753693176765
48.867656241314
50.5687260757592
52.7374013422377
53.6545728511756
53.7566386439799
54.6909605452971
56.7061146816731
57.9039929936807
56.4227317704699
52.7458265696259
49.1472410191914
47.0106298585218
45.4911368768329
43.1625993047867
40.3599693740114
39.0639810374173
40.4681991983208
43.4393271271956
45.9010621283665
47.3405389187965
49.208445781191
52.7888852064615
57.4076927978384
61.3104518829443
63.9611563495897
66.6610259817416
70.6744380351458
75.3834703096752
78.9412364077531
80.5607283580617
81.4118684287137
82.9655013255981
85.012603639304
85.9913384075006
85.1559845030601
83.6575138122653
83.0555802603612
83.2165266575164
82.4038226508511
79.4926298986216
75.434788394008
72.0734961658853
69.8776897250371
67.5627674230029
64.0596235972815
60.2005563383432
57.8759539184226
57.7494532644671
58.5037568426484
58.5672624740582
58.0335111991661
58.2839479024929
59.8771823738717
61.5250350153637
61.4950221988732
59.5722643507652
57.0251217055822
54.7052879920675
51.8690629847714
47.2895492862439
41.1403561199187
35.0990705571456
30.4955208420001
26.9256863979385
23.1132963462522
18.8032169469048
15.1234700843462
12.9430263382589
11.4722190043106
9.05637831280814
5.18517237516638
1.08515027751256
-1.89625731848262
-3.99951798248388
-6.62471724059665
-10.3742279333554
-14.2003931979984
-16.8139079662869
-18.4844123790875
-20.8134835634568
-24.7282514917255
-29.30594021153
-32.964161843608
-35.4519086807744
-38.0435508107368
-41.72894171008
-45.8363079523953
-48.9253466849579
-50.7523204970209
-52.669920964492
-55.8936871053221
-59.9013048169152
-63.071489051582
-64.7222842440964
-65.8741868090363
-67.7665605392954
-70.1342989786182
-71.5557358418904
-71.4112995773776
-70.8265113635391
-71.2969163608458
-72.7651782892767
-73.6729368252777
-72.9327776441725
-71.2531775538632
-70.1159671293398
-69.8037594755692
-69.1108323339438
-67.1178366792706
-64.6555531825735
-63.4741866841525
-64.1581581129786
-65.4880705352905
-66.0586456140431
-66.0152718962888
-66.6545913572236
-68.4810128805337
-70.3455454979738
-70.8334469640331
-70.0643852433745
-69.5094383202359
-70.0516488727704
-70.8422574041192
-70.4533533604597
-68.7957475027165
-67.2722499616137
-66.982938237851
-67.3712777500897
-67.0919527286437
-65.9133366148488
-65.0878297781429
-65.6640407590342
-66.9638566363657
-67.2524989457005
-65.7464511916587
-63.3543596875688
-61.2427497302424
-59.1986245354484
-55.9970536690825
-51.2696312663762
-46.3313711678485
-42.7866805638019
-40.6955484177155
-38.6943438937679
-35.8972544809977
-33.0571685025554
-31.4638950627721
-31.0837586203198
-30.4688809114142
-28.6053429916328
-26.2544570972699
-24.9689043940994
-25.0386787840821
-25.0694648453528
-23.7674521531801
-21.5899788850529
-20.0856690096163
-19.7999401725201
-19.5318547389665
-17.9487283613511
-15.4285246572181
-13.6641510675091
-13.5052188966007
-13.8617566830517
-13.1292831538583
-11.2866418403828
-9.92364169008101
-10.1698438551633
-11.2527626952228
-11.5756699649384
-10.8702583316407
-10.5489038189241
-11.7544846964803
-13.6609485352883
-14.2807801632643
-12.7652805673741
-10.2410324113731
-8.16284144028618
-6.41681253805239
-3.68727307553794
0.442393448301505
4.50910794243542
6.68816587775789
6.87246263322824
6.61685527336991
7.05611642519646
7.55336265446497
6.82156812200402
4.94545356384874
3.53406082070165
3.75210618764403
4.84992731301983
5.18771643201476
4.43404542502867
4.02835285946756
5.28326566998359
7.64930088117261
9.46853795986566
10.2267765003562
11.2806151148436
14.0343048076114
17.9580775210227
21.1163554897378
22.5763614867405
23.5372548755919
25.6556689483318
28.7447984400595
30.8969605308192
30.9118141120099
29.8499337620994
29.6471165543296
30.600078347087
31.0603758125088
29.7851377801516
27.857768256061
27.5930043369741
29.7772237576371
32.8050810302286
34.8156726487396
36.0054617509802
38.0744312414953
41.5654415177675
44.6791686526304
45.2358824381003
43.2945865324751
41.0201852121708
39.9626764575881
39.2944887178194
37.2736394694654
33.9288030830445
31.3404813591085
31.0868851576166
32.2206092939265
32.4913162274837
31.2490676371879
30.2123246999588
31.0843002981561
33.1805144764043
34.2376081892293
33.3519708374148
32.1311488921529
32.4816043582545
33.9509858371714
34.2064348907174
32.0981217571125
29.2680181556637
28.1073180923131
28.6928393501185
28.7511814259952
26.7372707151554
23.9521247331214
22.8272452716453
23.5851589412601
23.7358708257699
21.2004426385674
17.0192706068928
14.0379998270921
13.2264229461148
12.4738004576442
9.51018877126469
5.1307335144328
2.39800905429291
2.76451187130295
4.20814693272079
3.93076322517313
2.14410652949793
1.90651871032547
5.08442490487738
9.66674757236806
12.001335112787
11.0971365971868
9.38318517200556
8.96770559402601
8.43640738887836
4.58636360460758
-3.05850056329343
-10.8975074872751
-14.905821284364
-14.5081860686087
-11.6870323160199
-6.96135449315948
1.64979118435641
14.648203653079
27.4734766572201
33.1634084489393
29.0809764827372
19.360724322246
9.30876429198304
-1.65013704378719
-19.2104954145147
-45.8415854499409
-75.3318353605992
-98.1266435157093
-112.150381189428
-126.214594233055
-151.237880324604
-188.762446781719
-228.910552974988
-257.824083723163
-263.734893705708
-235.517075314989
-161.04635156793
-35.0192882759897
128.740062073426
298.093545145983
443.997230731453
564.14151418534
680.44328262192
806.23512519677
915.256319872041
950.296208048394
871.363973596173
698.670986757272
504.672234869694
358.030943460239
271.61804749695
203.740342153169
108.483926247347
-16.9400553688732
-133.177786124024
-201.506682324383
-221.21879726304
-225.595821963571
-246.514613406414
-287.230123114531
-327.838183488875
-350.670705880753
-355.777547079468
-353.908894186072
-351.05947104936
-344.03509219146
-329.099122113954
-309.869085190309
-294.361709312815
-286.37435906671
-282.732796816244
-278.872552744554
-274.268764936569
-270.599893703739
-266.198247065108
-255.525517160022
-235.452151321499
-210.552826218487
-190.12654997796
-179.638105748869
-176.115233148326
-172.322197782392
-164.367900181916
-154.183031781397
-145.231042549829
-137.729861751728
-129.109363658971
-118.13599518925
-106.796262972033
-97.6404919125547
-90.441182527675
-82.6457176709418
-72.8591097600858
-62.6651552990942
-54.4773503102852
-48.3677487680247
-42.0184221211119
-33.7417348326936
-24.5862096173754
-16.9088327302631
-11.4334505933931
-6.62007901202227
-0.980462940354883
4.85407655197064
9.01856683030907
10.9923883499218
12.4418745465604
15.2612435137717
19.4020202817613
23.2590351872944
25.9827914176134
28.6347432811218
32.7261434304951
38.1362269297418
43.1589358444864
46.5905186068003
49.123322577452
52.2718778389171
56.2830915917149
59.7488754154813
61.3729963003782
61.5652555143256
61.8313212644601
62.8185503732539
63.5696637259857
62.8955102174091
61.0229250631773
59.37922178916
58.8372253141318
58.7099114412101
57.7465719724352
55.7793691145492
53.8970016998922
53.0034802596799
52.7020895098738
51.9401714329156
50.5048424123073
49.3752305359963
49.48350533854
50.5290489040782
51.3891440957767
51.5587905292611
51.7266464138703
52.764209566457
54.4941607763705
55.8666142899953
56.2951673976507
56.3742405325887
57.0171745564149
58.1335598798716
58.5800161176283
57.4744613782431
55.2078354944762
52.8935977508834
51.0152063116462
49.036463671839
46.4465256604021
43.8249045043522
42.4817287993869
43.0760294445926
44.9372290379218
46.9165196465113
48.6591244727678
50.7095310122435
53.4163349863536
56.1480736880564
57.8826836735838
58.4159568864265
58.6229192239483
59.4306440990819
60.8081661189865
62.0232909878509
62.7664855099836
63.6537192342234
65.4742738022944
68.1934353257774
71.0128284677938
73.3890311023139
75.6690501563518
78.5249010585684
81.9432534526165
85.089789617304
87.2138958982244
88.4196735267717
89.3408495764096
90.2042064437543
90.5364402503266
89.8772698928567
88.5138918469924
87.2288472844572
86.3677619650801
85.4390013029403
83.7635468506315
81.3242507474775
78.7233290163762
76.3496944482611
73.897872956871
70.8930394063715
67.5123939677907
64.5659961180567
62.5910170632702
61.1949425599284
59.4929255865444
57.0847607701885
54.3321897331345
51.6253041365528
48.6555846971855
44.7005503248463
39.5811283274465
34.0354715257149
28.9740912588947
24.51784210878
20.0089603134714
14.947025921446
9.63657161844412
4.74067917307808
0.370439546033722
-4.06653212991874
-9.04429869327494
-14.193413531122
-18.6282940225103
-21.9278018752571
-24.5387873778511
-27.132078991914
-29.7831705692288
-32.0311583885155
-33.6841376861281
-35.2617671033101
-37.4681645805158
-40.3841146022974
-43.4401335509955
-46.2005255307665
-48.9251230902004
-52.180089215822
-56.0267740349404
-59.8617391418411
-63.103259164157
-65.797524594465
-68.3433348622858
-70.7327097184045
-72.3712916284243
-72.7778129020378
-72.2752214616913
-71.7603048814982
-71.8249321425503
-72.3383759942607
-72.9765823751554
-73.9232158863772
-75.745711344235
-78.5730794576451
-81.6820533294204
-84.1129342649337
-85.5973568320525
-86.6491089940768
-87.7355720915204
-88.6279675249539
-88.7718358810284
-88.1557036974477
-87.482067831387
-87.3616092955065
-87.5616199979063
-87.3075044814222
-86.2787923044579
-85.0279918804773
-84.2888303874636
-84.0768192256968
-83.7421255876755
-82.874782188455
-81.8409632829119
-81.2249520661032
-80.9154421680578
-80.0737939507958
-78.0825258041683
-75.2805006395534
-72.5481709107047
-70.2866530993477
-68.1023096067606
-65.5587072310909
-62.9435639955513
-60.9868482884606
-59.8760864715603
-58.8820094385311
-57.1393051966051
-54.6178170191207
-52.0548457841119
-49.9605596520974
-48.0030701466492
-45.5589666726192
-42.6645693291578
-40.0691437947481
-38.2854549164265
-36.8836236221257
-34.9887139628069
-32.3762495473893
-29.7648023516404
-27.9346265291167
-26.8161523712049
-25.7103271153764
-24.305505034798
-23.1147217412596
-22.7410317640294
-22.9486703775843
-22.7967135939099
-21.7043167106345
-20.0881688191071
-18.7635199774388
-17.9055446893673
-16.9147040740271
-15.3079260993891
-13.3965181524245
-11.8196463125899
-10.5639909703412
-8.82477046714116
-5.9647345938213
-2.35226912516684
1.02043973856038
3.65415000426058
5.94865397063808
8.40115564459214
10.7143244852789
12.0619093745639
12.2052733445859
11.9651148001416
12.3373802714729
13.3137029804224
13.9003625472516
13.3203747339959
11.8753847370066
10.4062575954952
9.12698931256807
7.41542794633435
4.86325276003377
2.19495491625984
0.789037829380838
1.32805540688499
3.23165144817742
5.52134306191266
7.94738813057618
10.94434103087
14.5830032518009
18.0183938794461
20.2454876858507
21.2019682593767
21.7646150087531
22.6279632060592
23.5144891051376
23.7088024129476
23.149593323177
22.5952316039446
22.6500920712301
22.9884546865893
22.8558524032501
22.1973218254243
21.8801300441461
22.6547355010393
24.1879718587798
25.4438415368594
25.9253961650122
26.1548605975792
26.784620579013
27.5658134648895
27.6043135268999
26.6056386374295
25.4396692581684
25.1993853385239
25.9116722104119
26.5573768251828
26.3738778508837
25.7433784119665
25.5280429605041
25.7813812039408
25.6061360052412
24.4025013878186
22.8596862370051
22.3145701318232
23.2231409944397
24.6807967648341
25.5914640662947
25.9525166334434
26.5977582101614
27.7986688030117
28.649557511778
28.12421496823
26.4472072584541
24.9497603594565
24.5363127009978
24.7109709829814
24.3890548014218
23.3873643149398
22.622473667554
22.7928465427064
23.3578533716001
23.2353910020829
22.3245959895294
21.8076188091197
22.7641245263164
24.8746728942609
26.9027978848293
28.3074485587552
29.8388842369833
32.3284145139939
35.3185390856658
37.4389511581957
38.1177575856889
38.3787595214874
39.6008457730237
41.7822228919582
43.5439963170816
43.8618591022795
43.2550711124827
42.8788447862252
42.7437196915086
41.4619495975595
37.9170260010399
32.6950549766572
27.3966340270011
22.7213845651328
17.8259032818149
11.7619460932042
5.04501300248821
-0.751157515760671
-4.82300892808658
-7.92354680792234
-11.0499570306232
-13.8320072525537
-14.8658742994069
-13.6171339089967
-11.3329276663836
-9.65582546157485
-8.71978373772897
-7.27312489655063
-4.68432656314999
-2.09304997990589
-1.03549057760027
-1.30957490642752
-1.04915809089258
0.843589475762839
2.99496349251954
2.94243440289173
0.00425786535699935
-4.00962798169574
-7.18897645746702
-9.88612159427839
-13.8405943770617
-19.063193078168
-22.5836895875907
-21.0134230132852
-14.0593533491711
-4.80530010169316
3.48397755808283
10.0684102762521
15.8381305666949
20.4312440331865
21.4233509586139
16.7567866858948
7.26379201316378
-3.97029403064877
-14.6022496799793
-24.8023885863119
-36.1691068186848
-49.8561638791827
-66.4100171166405
-86.8438318771671
-112.703163546261
-144.711403043788
-181.714545590005
-220.346003648151
-253.372648307842
-266.522692527922
-239.065891749104
-153.875073316005
-12.8826448208863
157.266009384618
320.825135889484
460.357972567353
588.840129646689
728.805896952482
874.383057649688
975.966299610451
971.198421755165
839.933107653738
631.175033344293
431.535657691962
300.242514768585
229.596730083665
165.872347721734
67.2520672174143
-58.1443925189672
-166.943604598874
-226.556054481388
-243.793649898324
-251.494698544664
-273.82384794901
-308.284173748492
-338.180395026017
-355.174100303271
-365.390879234048
-376.283737077308
-384.054241001464
-377.650125923603
-353.316291047159
-321.292231850593
-296.823247854188
-286.356672355993
-284.13448026948
-281.083916453869
-274.316966651146
-267.08133254695
-261.618135385724
-254.942513458483
-242.252572808841
-222.819146107088
-201.073705758093
-182.354109909553
-168.868228779706
-159.824922984097
-153.864151881403
-149.896232457789
-145.996787487592
-139.319912495781
-128.370317626502
-115.019906742018
-103.218699353559
-95.3250734492943
-90.1325663932535
-84.7542345618685
-77.9282225409749
-70.8443091120141
-64.933347034811
-59.7746667547382
-53.7404700150161
-46.2468648172427
-38.5196921556397
-31.9547436195981
-26.3491748419559
-20.3052853684808
-13.1408674885602
-5.7237744267542
0.787065003440532
6.50500124229626
12.5796345926213
19.5241268766759
26.3593590638671
31.6955494413535
35.3212368273304
38.2778458101001
41.4385144486188
44.5098016047772
46.6872612033111
47.9592397076549
49.2622776862263
51.3004154240568
53.6241733595832
55.1792624323365
55.5830561575416
55.4876701164685
55.6590968504522
56.0718765292134
56.188838511402
55.9389718140507
55.9902622083721
56.9207978394635
58.4047225121893
59.5133050548058
59.7485530038142
59.4830806113109
59.3037649431624
59.2013380693126
58.6873474257354
57.6204238375272
56.5619122972759
56.1306042179054
56.1860227787353
55.9164014462038
54.7322684675449
52.8418464359428
50.8416723667266
48.9456140237497
46.88641737792
44.5626094671337
42.4936211264008
41.4206745517822
41.5423042503655
42.3552774320958
43.2743710214673
44.2170402960705
45.4510333120894
47.0072145119342
48.4953680917293
49.5560475977972
50.3032001242472
51.1441225666099
52.2221488837593
53.2306830038636
53.834760110787
54.1293935784236
54.5466706045174
55.3809797568547
56.5857044596255
58.0716316893251
60.0242009876545
62.7410551025043
66.1780110834275
69.8217292274629
73.0884082948953
75.7569396239066
77.9230467341938
79.6232568593993
80.7064169466585
81.1432403825851
81.3096666248659
81.7760133228142
82.8012864954354
84.158373013932
85.5043378487857
86.8035351546159
88.2622276413198
89.9084095180883
91.4334848463249
92.5456311211655
93.3652297173402
94.3037941754872
95.5446700359282
96.7823432847523
97.5500877580022
97.7051403693792
97.4587596133077
96.9663569557386
96.075125863694
94.5819625513857
92.6294078824272
90.6583367023265
88.9321445682048
87.2364351320947
85.134360744141
82.4217956461521
79.1807020630361
75.4083964724485
70.8064452415806
65.0993697576051
58.4959593045344
51.6492607534732
45.1042284842287
38.9147574709628
32.9126418911281
27.2497057668599
22.4548236673553
18.883549746598
16.2663298906216
13.9692011253257
11.6584613272843
9.51648566577528
7.72848839809554
5.91973242752266
3.30917563341538
-0.570935932788622
-5.47143778748039
-10.8135510839247
-16.3314422307569
-22.1401387533699
-28.1920418085858
-33.9083021296269
-38.5408572426309
-41.8519001120376
-44.2720258062629
-46.3662091569246
-48.304848532469
-49.9709994149874
-51.4572523017782
-53.2036915400537
-55.5552480326504
-58.3355342139585
-61.0317811684241
-63.3726310890479
-65.5616418306293
-67.9007513622728
-70.351833493079
-72.6369766588252
-74.7096212994498
-76.900587885031
-79.4875645994088
-82.2508659955962
-84.6376537678846
-86.3540441858984
-87.6184092531076
-88.7504047956046
-89.6634093912657
-89.9646524136453
-89.5417214299468
-88.830314404509
-88.3580194301735
-88.1336305836692
-87.6922099834485
-86.7590834594893
-85.669328408802
-84.9850737312975
-84.8081210806267
-84.6932523496771
-84.2725906644681
-83.7502207676969
-83.5917440063106
-83.8113002944808
-83.8173359711942
-83.0583571492467
-81.6513579742381
-80.1857238225158
-78.9734401981015
-77.7377409077905
-76.1355058097487
-74.3840991914412
-73.1130943248654
-72.5972098837524
-72.373531659338
-71.7648281867258
-70.6451970827689
-69.4657846331525
-68.5367330058954
-67.5420475425292
-65.9424481179218
-63.7239464803651
-61.4747080989489
-59.6609275876953
-58.0453900843762
-56.0159237596433
-53.3913897011432
-50.6445757314064
-48.2629067259878
-46.1173012556719
-43.6904019915308
-40.8524892448295
-38.126685550173
-36.0637255861677
-34.5480009289051
-32.9650476988412
-31.0163410375726
-29.09723132625
-27.7334907841691
-26.8364825267252
-25.7882747320046
-24.2531578122066
-22.6192860988474
-21.451738468382
-20.6697419055559
-19.5613890136499
-17.6539608536275
-15.3094174706648
-13.2583594512356
-11.6899446377236
-10.112558163765
-8.1725358886049
-6.31847129291643
-5.37321576859863
-5.52428982138108
-6.04806570170663
-6.14852517630068
-5.83053213350425
-5.68014742966913
-5.8739009381318
-5.76992241838948
-4.66285010057256
-2.71858946263187
-0.831177733498158
0.447354251211635
1.51759477943096
3.0890640973889
5.14422715153601
6.89762641797652
7.81617069400731
8.34168508260526
9.33466963644272
10.9603193232924
12.5042270289208
13.3900678063396
14.0630993288903
15.5451132546004
18.2034623668407
21.3243676653775
24.0366716289888
26.3564206455428
28.9644678702699
32.0155881516495
34.5866625671035
35.5580925246615
34.8401848617528
33.3849605236362
31.9946477828326
30.4871219029178
28.268672214781
25.4811555171418
23.1341766164598
22.0019834373539
21.7309097366899
21.3437915218177
20.4860035903471
19.7871538092362
19.9049053579855
20.5756025874032
20.9659295767063
20.8430447299236
20.9502315204405
22.0289767921948
23.7677518504254
25.1005019197694
25.4958025359581
25.5407100026689
26.0443266243054
26.8652136542907
27.0553914730972
26.1577612413423
24.9194325118139
24.4190026433648
24.713508478501
24.7880193556761
23.898797692425
22.557382338897
21.8646998364001
22.0839285702317
22.3509021496309
21.9054687204284
21.1912205097818
21.3329381486737
22.6626480568085
24.2491929259278
25.0660908788669
25.2563424473268
25.8287037247749
27.2224111149747
28.6917217235372
29.3470286195941
29.4357671665399
30.0964851684534
31.8695058838586
33.9442288902969
35.1566296095096
35.4005175437318
35.5640861992373
36.1217531941557
36.3615121860061
35.3496938411166
33.2885114858911
31.2981515689632
29.8317069118145
27.9772261941653
24.863428671134
21.4474827127671
20.1107868854601
22.1706868125008
26.3035290153016
30.02721661355
32.5870290196247
35.6463128111399
40.8001094472064
46.9613101614347
50.9570323510308
50.7104014604359
47.1442275902614
42.5753873563199
37.8008211003939
31.621562290574
23.2550725170019
14.2775552200526
7.39260677588028
3.55123218208653
1.16079343023657
-1.6120357690901
-4.50200071658062
-5.82698423843333
-5.17618305440185
-4.37801771324231
-5.32820043184948
-7.53912223958237
-8.76309785461234
-7.98002811731968
-6.80498894915405
-7.37436553109159
-9.46403076208734
-10.7144032003381
-9.75359344950716
-8.07246955129479
-8.04558715659477
-9.62247952643289
-10.1336259376502
-7.65317692599188
-3.60480209452836
-1.1441329496433
-1.3437266190261
-2.13761040681902
-1.38289067463697
0.0623425191171165
-0.595342328362552
-4.21901801146894
-8.18657959723331
-9.21184049308077
-6.79378064212068
-2.82373303669474
1.73080363001963
8.04590942313446
16.5582915415119
24.1164743144382
25.8532500434893
20.0581048330324
9.55592647925861
-2.81338962359501
-18.7513124276924
-42.156183949976
-71.8155883506882
-98.9322541767997
-114.849231683853
-121.567710065875
-132.341438709181
-159.710956886542
-202.626429796451
-245.489125962416
-268.473193662179
-257.117254953284
-203.637306170337
-105.358281094864
31.7106626635861
188.070095838864
337.201891568447
464.60792660591
580.161782347201
703.376824097607
829.274383808822
911.383130063097
889.897006030022
747.305667599189
537.593318202486
352.941054491567
252.323168770607
217.853508697702
180.631073065676
90.0701260528845
-40.9672507965349
-155.630148486364
-211.542717283175
-217.523499710756
-216.711658514275
-241.258957656525
-287.323064527542
-329.78676974464
-352.46139871228
-359.500980707001
-361.793984516763
-360.703055417204
-349.070489894391
-324.616571648948
-296.493844586932
-277.036616145163
-270.099079800762
-270.085477287778
-270.780539175365
-271.289294264306
-272.23025222218
-269.405404153256
-255.404143438703
-228.325730230082
-196.458940434298
-172.005382156766
-160.259224310735
-156.158611635376
-151.246969495781
-142.244277486776
-131.894712297774
-123.023024230094
-114.381136272638
-103.104795804982
-89.5187792592773
-77.5344104800627
-70.3063614547449
-66.9990073464892
-64.5496206460628
-61.5245323305975
-58.8193335703378
-56.7612082290164
-53.2085779708616
-45.6988526319076
-34.900414566084
-24.566048233452
-17.6662445336273
-13.4129971301303
-8.80159048783549
-2.55624656683115
3.5331287220364
7.32118467153088
9.28358827934995
11.8736733280908
16.2734009266601
20.9022961947247
23.5825018583736
24.4249753322022
25.6728573268293
28.8265037968873
32.873094706457
35.8352534101644
37.4410497192905
39.3592310084976
42.7868209312019
46.675056790627
48.9523672413006
49.1108808947239
48.7818676603983
49.6316827199748
51.3852598414771
52.4818229363745
52.3306893731423
52.1025330070123
53.0581930512152
54.721490412815
55.3628034631631
54.1630441568038
52.2340682566188
51.2266191472766
51.4083225640875
51.6761086949766
51.3212348234626
51.0804056392061
52.0679132120596
54.0729936574393
55.5466805554097
55.3356183449359
53.9180430446087
52.5943580574732
51.7829903726189
50.6699373609661
48.5712379525812
46.0816282383385
44.4338792880211
43.9393345670614
43.6155425036059
42.5103661378993
40.9759989968927
40.2341478274
40.8431279109126
42.0851447335878
43.0051572397511
43.6279949970676
44.7063302351077
46.3899939838818
47.6867018950635
47.526574935017
46.0858282372967
44.6592861206496
44.2703142920346
44.8263073626984
45.829330703721
47.5410070176065
50.9154529954552
56.3211442931022
62.7646191948525
68.7259729529376
73.6094863463339
78.0010083620066
82.4839493911227
86.630761351716
