Value(bpm)
70.2974828375286
70.4342989500591
70.5702458052821
70.7039020674618
70.8338253464748
70.9585533225601
71.0766054830437
71.1864854895942
71.2866841911031
71.3756832926365
71.4519596850559
71.5139904328339
71.560258409337
71.5892585594641
71.5995047591185
71.5895372297029
71.5579304538535
71.5033015262108
71.4243188604582
71.3197111614716
71.1882765595876
71.0288917931189
70.8405213157319
70.6222261975772
70.3731726835263
70.092965365083
69.7844353031378
69.4521373373187
69.1005475283398
68.734018494342
68.3567604467404
67.9728279515327
67.5861119997425
67.2003369252865
66.8190616907626
66.4456850672033
66.0834542584732
65.735476560774
65.4047336991915
65.0940985435163
64.8063472532611
64.5441577860957
64.310154747437
64.1069418846056
63.9371282539042
63.8033564889188
63.7083334418244
63.6548635780754
63.6458856291061
63.6845131526981
63.7740798235036
63.9181904860439
64.1207792613875
64.3861763226739
64.7191805009641
65.121583975592
65.5856319834135
66.1016704963021
66.6596072985723
67.2487457801341
67.8576453636804
68.4740133762349
69.0846351288709
69.6753505604874
70.2310868337636
70.7359564828318
71.1734298041925
71.5265878626345
71.7799846177852
71.9333841009047
71.9957458693917
71.9769338757684
71.8873880314182
71.7379052207
71.539446132858
71.3029727041281
71.039318789606
70.7590948498901
70.4726260201688
70.1899219548603
69.9206762950965
69.6742934504961
69.458200294442
69.2713412569819
69.1102433805466
68.9715537789779
68.8520170306723
68.7484556835365
68.6577540855051
68.5768453085932
68.5027009925683
68.4323239794087
68.3627436431151
68.2910138421228
68.214213434187
68.1294492966804
68.03488743446
67.9353016842505
67.8380131562336
67.7502668988609
67.6792382711229
67.6320610444788
67.6158704918808
67.637861570175
67.7053627538047
67.8259266747499
68.007439489367
68.2582518676219
68.5873357476959
69.0044726148569
69.5170715936143
70.1168654202244
70.7903794281994
71.5233984244182
72.3006495285698
73.1055312029082
73.9199007287093
74.7239365959522
75.496096632711
76.2131955501759
76.8506260137844
77.3827443239158
77.7844822030575
78.0494575704019
78.1882983029983
78.2136207585362
78.1391478931374
77.9793351337006
77.7490325151526
77.4631947680957
77.1366463937592
76.7839046816995
76.4190603710592
76.0557133404999
75.7069593318509
75.3838940377457
75.0884030576597
74.819170879308
74.5749581212246
74.3545983030739
74.1569908392077
73.9810946682821
73.8259224462279
73.6905352392052
73.5740376612167
73.4755734080279
73.3943211450841
73.3294907123915
73.2803945077887
73.2469566118466
73.2293986690993
73.2279639166278
73.242916626825
73.2745432835666
73.3231538537483
73.3890831632768
73.4726923875678
73.5743706676821
73.6945368644527
73.8336414643322
73.9921686522427
74.1700072504305
74.3625644334808
74.5632091804402
74.7651654589677
74.9615104610902
75.1451776669555
75.3089731509321
75.4456057527727
75.547731555592
75.6080128138672
75.6191910567031
75.5741735599539
75.4661338346583
75.2919024408333
75.0585890551251
74.7752901754059
74.4510751921852
74.0948817697669
73.7154337638057
73.3211812913992
72.9202618818382
72.5204811789828
72.1293114208865
71.7539058612467
71.4011273897961
71.0775898252955
70.7893946175843
70.537048008363
70.3165121682251
70.1237830330956
69.9550067611813
69.8064515363782
69.674484093479
69.5555505473388
69.4461612071776
69.3428791344968
69.2423122615371
69.1411089288871
69.0359567272514
68.9235845405952
68.8010074621648
68.6685338749687
68.5288047001113
68.384476276711
68.238164031085
68.0924401897398
67.9498334784802
67.8128307228004
67.6838802674215
67.5653971412262
67.4597699074783
67.3693691577427
67.2965576311214
67.2437019682435
67.213134870766
67.2043646295934
67.212634895673
67.2328591123838
67.2599556138287
67.2888333714975
67.3143854291701
67.3314900643705
67.3350197319001
67.3198578127476
67.2809231096389
67.2132018992876
67.1117871734093
66.9719244807116
66.7890635284284
66.5605696306522
66.2912852161745
65.9880409357684
65.6575621438027
65.3064109654857
64.9409426708564
64.5672756379603
64.1912739550054
63.8185415404013
63.4544265920266
63.1040351963692
62.772253017739
62.4637741324849
62.1831362605071
61.9347618670326
61.7229354757419
61.5497554708211
61.4148538226378
61.3178573201367
61.2585329793542
61.2367862810948
61.2526606829893
61.306338400823
61.3981424758772
61.5285401674009
61.6981477328593
61.9077366839557
62.158241634362
62.4507698864856
62.7866129404595
63.1672458402324
63.5919065409351
64.0546548056685
64.5486062337239
65.0664890186351
65.6005692999039
66.1425913146867
66.6837352589306
67.2145964026991
67.7251894682936
68.2049824957771
68.6429642988646
69.0277490605001
69.3477205460922
69.5914113104557
69.7548598930378
69.8439804706088
69.8658737236524
69.8280777146179
69.7384307950463
69.6049474759664
69.43571021476
69.2387790196131
69.0221198362803
68.7935519048084
68.5607136788473
68.3310464927338
68.111794934571
67.9099916775572
67.729714785785
67.5700077880918
67.4294533366974
67.3066880610992
67.2003953154765
67.109298638578
67.0321558576445
66.9677537789685
66.9149034172397
66.8724357241072
66.8391977835675
66.8140494480201
66.7958603942329
66.7835075831096
66.7763543295381
66.7763207253639
66.7861747779659
66.8086956737232
66.8466826300422
66.9029666706896
66.9804248884847
67.0819973392082
67.210706768116
67.3696814402272
67.5621814299211
67.7916288274949
68.0616424444695
68.376077751247
68.7374960582266
69.1394010411318
69.5716904278818
70.0238048505051
70.4846458775227
70.9425209553393
71.3851244003303
71.7995596578517
72.1724081392042
72.4898493727491
72.737835825941
72.9023234729622
72.9695559746342
72.9279139063206
72.7813584282854
72.5428611150948
72.2259264033659
71.8441969856872
71.4111979311538
70.9401326401297
70.4437312612858
69.9341494986091
69.4229138883689
68.92090857777
68.4383982791454
67.9850822729876
67.5701749577942
67.2022805058032
66.8836865052594
66.610228131202
66.3777097555523
66.1821898837978
66.0199364744598
65.887388393305
65.7811221504201
65.6978232527212
65.6342616541783
65.5872709081127
65.5537307255886
65.5305527250276
65.5146692234571
65.5030249711864
65.4929564480823
65.4845349184895
65.4790133436693
65.4776491606006
65.4817009090048
65.4924300720239
65.5111034058316
65.5389957658073
65.577393441114
65.6275980146014
65.6909307709644
65.7687376831242
65.8623950149719
65.9733155880822
66.10293548845
66.250897066448
66.4135586203273
66.5868833287188
66.7667603437752
66.9489935175383
67.1292951878988
67.3032853086623
67.4664962300353
67.6143834281056
67.7423424415287
67.8457321978882
67.919904799152
67.960241684753
67.96220149553
67.9236033718697
67.848062531104
67.7401661136723
67.6045466321501
67.4458418031608
67.2686606563956
67.0775560834111
66.8770038149995
66.6713876795662
66.4649908964169
66.2619930957104
66.0664727284788
65.8824145323292
65.713721747865
65.5641683028511
65.4362031975442
65.3310954368295
65.2500972448486
65.1944980836291
65.1656348352088
65.1649027876023
65.1937675535561
65.2537780755777
65.346580899417
65.4739359320468
65.6377339404796
65.8400160960377
66.0829959269396
66.369083625665
66.6984996702412
67.0635094474641
67.4544356953023
67.8611909973806
68.2732072203189
68.6793949394484
69.0681368717117
69.4273197417556
69.7444089193321
70.0065694693087
70.2008358484187
70.3143303035205
70.3345270836462
70.249834107139
70.0600063665344
69.7788906350075
69.4215584959078
69.0030918730156
68.5383027572035
68.0415198174568
67.5264406343858
67.0060451982566
66.4925644295361
65.9974966686709
65.5316651476665
65.10531019321
64.7282111363573
64.4098344769641
64.1592226278044
63.9779219720796
63.8596821578565
63.7983185683911
63.7880153921266
63.823228218049
63.8986000775793
64.0088888702526
64.1489047186319
64.3134562945286
64.4973055698283
64.6951307881188
64.9014977378802
65.1108396384679
65.3174461261597
65.5159564421948
65.7047903038191
65.8841960858339
66.0544498327455
66.2158436478372
66.3686848594873
66.5132951812215
66.6500098714234
66.7791768984272
66.9011561164821
67.0163184578208
67.1250451457856
67.227726933669
67.324763373622
67.4165105941002
67.5023012490823
67.5805125919765
67.6494760019092
67.707516361556
67.7529569746773
67.7841253161712
67.7993595970849
67.7970161143997
67.7754773413153
67.7331606984531
67.6685279301685
67.5800949934027
67.4664423496699
67.3262565023294
67.1610991584705
66.9775118343606
66.7824457978934
66.5827132651274
66.3849720778399
66.1957241212675
66.0213266828525
65.8680160013168
65.7419424044675
65.6492166740976
65.5959676016562
65.5884111093825
65.6329318162967
65.7361785443833
65.904449244048
66.1366308177067
66.4270781698651
66.7701765769533
67.160306716179
67.5917509812678
68.0586081132177
68.5547159347211
69.0735825960692
69.6083273239938
70.1516322131863
70.6957071019931
71.2322700063818
71.7525716845224
72.2497569590938
72.7209386985057
73.1636224710412
73.5752983265717
73.9534580764907
74.2956141052066
74.5993195647535
74.8621897569744
75.0819244601664
75.2563309106866
75.3833471066424
75.4610650623669
75.487833303744
75.463587289055
75.3896461264094
75.2675558043417
75.0990326601825
74.8859433739184
74.6302843848
74.3341610832492
73.9997671084398
73.6293640532381
73.2252618445427
72.7898000300254
72.3253301633592
71.8342059067057
71.3198379847101
70.7877853148028
70.2436358734819
69.6926905665347
69.139954746954
68.5901377034548
68.0476590393617
67.5166609087474
67.0010251585773
66.5043945319459
66.0301972096716
65.5816740988358
65.1619084124164
64.7738572208672
64.4203721564569
64.1035502461152
63.8244499098598
63.5841081162154
63.3836454489356
63.2242832777068
63.1073622076486
63.0343621365746
63.0069243033304
63.0268757772483
63.0962569211429
63.2173524624738
63.3927269347165
63.6252654105755
63.9182206495986
64.2751481737892
64.6945832884114
65.1675360399613
65.6841132905062
66.2338993061501
66.8058136574045
67.3879991369898
67.96774555402
68.5314568654041
69.0646702079257
69.5521357691089
69.9779658123578
70.325859279336
70.5794050102954
70.7245538255033
70.7644230374787
70.7108683017248
70.5765243680944
70.3744518049027
70.1178683889461
69.819926653116
69.4935411330885
69.1512658108448
68.8052199870711
68.4670593510133
68.1479883041081
67.85880953935
67.6100073754841
67.4113545276089
67.2637581634077
67.1608610112225
67.0963356977546
67.064047575401
67.0579904915957
67.0722345119141
67.1008847480112
67.1380507975713
67.1778265715847
67.2142804721689
67.2414559950408
67.2533828649606
67.2440987689171
67.2077352047669
67.1433471846078
67.0586768502515
66.9623247480794
66.862814108013
66.7685722815108
66.6879336937505
66.6291637107429
66.600502965276
66.6102320432929
66.666757001876
66.7787169814563
66.955116217125
67.2054841022644
67.5400677104479
67.9651285649467
68.471220670094
69.0453255264467
69.6738519508347
70.3423582737233
71.0353208718901
71.7359577196536
72.4261197804581
73.086266366472
73.6955425721414
74.2319768792782
74.6728142938744
74.9950778428459
75.1862763426624
75.2548015530155
75.2126548927514
75.0728340384168
74.8489769028951
74.5550398014524
74.2050203570634
73.8127313628832
73.3916280100965
72.9546878349824
72.5143405358086
72.0824434480625
71.6702978647295
71.2874760265923
70.9353700809323
70.612302689021
70.3166992772095
70.0470845089297
69.8020720609234
69.5803554240018
69.3806996033765
69.2019336110142
69.0429436572959
68.9026669619322
68.7800861149533
68.6742239279527
68.5841387238497
68.5092186557279
68.4507951893016
68.4109714599542
68.3918704956796
68.3956456380396
68.424494341367
68.4806735814082
68.566517046588
68.6844543332149
68.8370324224973
69.0269397842644
69.2570335324291
69.5303701539039
69.850238677266
70.2173641836024
70.6239662692036
71.0603522918101
71.5163991609471
71.9814732174984
72.4443783504316
72.8933364280633
73.3160046832398
73.6995348117314
74.030678102962
74.2959398067541
74.4817840611032
74.5749277874021
74.5693139877613
74.4738231845299
74.2997360955597
74.0586769716434
73.7623927333476
73.4225667808232
73.0506701657333
72.6578506447547
72.2548584573034
71.8520065090661
71.459161972097
71.0857660759385
70.7408789930793
70.432733901506
70.1624381600336
69.9262114991351
69.7203553429638
69.5413313457985
69.3857328537234
69.2502605701757
69.1317019910907
69.0269142722429
68.9328102695234
68.8463475552577
68.7645202623978
68.6843536450716
68.6029012696506
68.5175755589182
68.4302948245877
68.3461788682366
68.2703688498702
68.2079644338228
68.1640401686333
68.1436693860986
68.1519556608746
68.1940720459993
68.2753085242039
68.4011283962735
68.5772346767608
68.809648000594
69.1047980856809
69.4682689797392
69.8942134349524
70.3705205015083
70.8845394547057
71.422952632885
71.9716408623722
72.5155979472712
73.0389027787209
73.5247588430823
73.9556110558527
74.3133485860702
74.5795993511901
74.736116944602
74.7688351951421
74.6837477070982
74.4941760810077
74.2141371640234
73.8579851471511
73.4401046287565
72.9746579026942
72.4753893330392
71.9554861432202
71.4274923585523
70.9032709921184
70.3940087622204
69.9102575358611
69.4620056145401
69.0563687189202
68.6930034988551
68.3703415738157
68.0869831473685
67.8416838024566
67.6333429976575
67.4609940648498
67.3237955395361
67.2210236811988
67.1520660633612
67.1164161321772
67.1136686489472
67.14351594643
67.2057449415827
67.3001092848519
67.4255563978014
67.5807145777111
67.7642622288139
67.9749169705946
68.2114239319655
68.4725446554693
68.7570465172732
69.0636925872937
69.391231870935
69.7383898900606
70.1038595762893
70.4862924648046
70.8842786491657
71.2949366864441
71.7124750774965
72.1305027273846
72.5423262739665
72.9409511708296
73.3190961387587
73.6692224037708
73.9835789846371
74.2542649957795
74.4733094773619
74.6327686465838
74.724839688313
74.7421616007569
74.6842292791779
74.5592030888218
74.3760612140408
74.143914708659
73.8718804306965
73.5689760492419
73.2440378450555
72.9056610827483
72.5621620277235
72.2215602138484
71.8915793210354
71.5796649696111
71.2930178513248
71.037655577316
70.8147557482251
70.6241232782635
70.4656448838828
70.3392895911055
70.2451094815734
70.1832409862072
70.1539067482487
70.1574180848764
70.1941780846678
70.2646853871116
70.3695387003566
70.5094421246652
70.6851727575505
70.8954610670682
71.1358175845883
71.4014304761145
71.6873930270214
71.9886699706187
72.3000701794108
72.6162261498259
72.9315808633928
73.2403827218227
73.5366893232444
73.8143808633046
74.0671838984301
74.2887730183536
74.4752721979331
74.6260641036617
74.7408418953878
74.8194034351634
74.8616524419791
74.8675988739639
74.8373585350292
74.7711519134833
74.6693022704926
74.5322330062003
74.360464340625
74.1546093549594
73.9154304010159
73.6456756425381
73.3503306980392
73.0344237604537
72.7028659071893
72.3604289756728
72.0117302706894
71.6612236623577
71.3131965755333
70.9717723486945
70.6409174479214
70.3244530544671
70.0260705979992
69.7493508779369
69.4977105032453
69.2735936026195
69.0788303963377
68.9152611357882
68.7847647160532
68.6892775213585
68.6308137203893
68.6114872793019
68.6335360208622
68.6993481294963
68.8114915872447
68.9727471285922
69.186145427921
69.4550093883884
69.7815954192075
70.1593400606992
70.5779262860721
71.0266517726342
71.4943185949118
71.9691448729387
72.438711324678
72.8899478990368
73.3091662716565
73.6821439720804
73.9942651178008
74.2307210103139
74.3767711030519
74.4214535717331
74.3708841813289
74.2368177422135
74.0314608349931
73.7672222333558
73.4565017960006
73.1115206026272
72.7441935033673
72.3660432061119
71.9881535897721
71.62115908438
71.2752666413891
70.9603069507476
70.6856853297266
70.4549100122166
70.2636606202626
70.10726136815
69.9812238305123
69.8812057616901
69.8029764290928
69.7423878280279
69.6953513163254
69.6578193426754
69.6257720480137
69.5952085979806
69.5621431586254
69.5226054584601
69.472855675855
69.4128335071844
69.345583364342
69.2742305333363
69.2018772879828
69.1316006670439
69.0664530125628
69.0094652122957
68.9636525963605
68.9320234552549
68.9175901730049
68.9233830053643
68.9524665789599
69.0079592437303
69.0926452023387
69.204434199024
69.3379644849984
69.4877778249913
69.6483476526441
69.8140568786741
69.9791844344023
70.1379009354105
70.2842739143057
70.4122830720321
70.5158459280736
70.5888541060025
70.6252202688965
70.6189358556147
70.5662761540117
70.4707889404059
70.3376102601289
70.1719342466694
69.9789627162865
69.7638623393695
69.5317296281916
69.287563743105
69.036246930814
68.7825322698848
68.5310383082677
68.2862501316645
68.0525263954355
67.8341118814329
67.6349284405713
67.4576319527494
67.3044624102016
67.1776624653905
67.0794954118848
67.0122645322131
66.9783342477925
66.980153315542
67.0202803870912
67.1014123297265
67.2264158068032
67.3983627337261
67.620570369501
67.8966469807362
68.2295179229457
68.6143139320272
69.042250867133
69.5042110151791
69.9906513376661
70.491511393621
70.9961461725793
71.4932878054433
71.9710408959498
72.4169166238502
72.8179106918347
73.1606294911992
73.4314674268994
73.618080981319
73.7205096197234
73.7461628609356
73.7030611335522
73.5996030203116
73.4444195801665
73.2462453474454
73.0138085727085
72.7557421295514
72.4805155388414
72.1963877913892
71.9113800942671
71.6332673201821
71.3695560620807
71.1247779701988
70.8984633840336
70.6896732383619
70.4975112162081
70.3211196800789
70.1596759468385
70.0123888721591
69.8784957146797
69.7572592536886
69.6479651373758
69.5499194415463
69.4624464211994
69.3848864396014
69.3166257801794
69.2580595166077
69.210759315079
69.1763652062226
69.1565238249934
69.152894997048
69.1671591582456
69.2010256549445
69.2562419892506
69.3346040923102
69.4379677305641
69.5682611751641
69.7274992942219
69.917799262132
70.1407314240009
70.3914894620819
70.6615212116238
70.9420019072702
71.2238338476069
71.4976285218116
71.753712752846
71.9821608095585
72.1728542490103
72.3155707402274
72.4001022635008
72.4164018680727
72.3547566301151
72.206267318297
71.9716669842428
71.6626915524797
71.2918120948672
70.8714032017125
70.4135624672151
69.9299742536348
69.4318161950829
68.9297053474438
68.4336799661995
67.9532125198674
67.4972496234751
67.0742750018736
66.692392275811
66.3594252332574
66.0812880869739
65.8562892520502
65.6809329794772
65.5520135455912
65.466570827897
65.4218512807395
65.4152734471722
65.4443972563997
65.5068964959211
65.6005339621533
65.7231388884991
65.8725863298816
66.0467782510866
66.2436261254588
66.4610336068456
66.69685301558
66.9488706593057
67.2148223182972
67.4923832138228
67.7791580619921
68.0726725948958
68.3703666728052
68.6695891370056
68.9675945744853
69.2615421823112
69.548496930021
69.8254332215581
70.0892412528566
70.3369678280989
70.5672582939101
70.7794751443659
70.973002338534
71.1472451973264
71.3016331302118
71.4356223464001
71.5486985302621
71.6403794600715
71.7102175487052
71.7578022847312
71.7827625523664
71.7847688091153
71.7635659823362
71.719914993318
71.6557570286995
71.5731225020938
71.4740545183701
71.3605991164165
71.2347966655524
71.09867444301
70.9542404009074
70.8034781149717
70.6483428940386
70.4907590190363
70.3326180726832
70.1757783163578
70.0221570455594
69.874435546305
69.7356603954697
69.6088377547284
69.4969392797567
69.4029139257792
69.3297021995293
69.2802528762263
69.2575422558952
69.2645960985425
69.3045144537077
69.3804996887704
69.495888124999
69.654185814644
69.8575456275085
70.101413971308
70.3793336490841
70.6847375810552
71.0108875112552
71.3508242218559
71.697330046941
72.0429047989449
72.3797565023752
72.699808500423
72.9947245369347
73.2559532923455
73.4747935414048
73.643871849103
73.7632819281691
73.8357806175162
73.8643380536349
73.8520988876486
73.8023459959278
73.7184658313833
73.6039159846114
73.4621954092124
73.2968176523381
73.1112873242375
72.9090799427048
72.6936252023351
72.4681632445658
72.2344706348175
71.9934410635259
71.7459404735107
71.4928179489664
71.2349045057804
70.9730120974962
70.7079328274098
70.4404383565447
70.1712794967307
69.9011859776824
69.6308663768346
69.3610082007076
69.092278106738
68.8256716689388
68.5648766062568
68.3147465930201
68.0800058398522
67.8652608976757
67.675026166098
67.5137551009392
67.3858770092887
67.2958395126782
67.2481569817055
67.2474655038059
67.2985852485359
67.4065914548425
67.5768957011301
67.8147343610317
68.1164915882259
68.4713581490981
68.8681133550226
69.2951497545938
69.7403397805006
70.1909399074972
70.6335371157334
71.054043709405
71.4377471468902
71.7694213090631
72.0335043682464
72.2143459512663
72.2966497016255
72.2746299305735
72.1579353566162
71.9582278473519
71.6875512125883
71.3580828737457
70.9819237457424
70.5709296050518
70.1365846034982
69.689915557595
69.2414442293714
68.8011739855356
68.378606906939
67.9827875308724
67.6223664751989
67.303264276848
67.0246313463268
66.7846329983117
66.5816020336979
66.4140219435557
66.28051204907
66.1798143092771
66.1107815684749
66.0723670484891
66.0636149187658
66.0836518005053
66.1316790805648
66.2069659272705
66.3088429141336
66.4366662075737
66.5894781024751
66.7661151155754
66.9654326337444
67.1863003587732
67.4275939031401
67.6881867714442
67.9669426851653
68.2627082201491
68.5743057373784
68.9005265983837
69.2401246671872
69.5918101110848
69.9542435229034
70.3256037135766
70.7019090859996
71.078369959248
71.4499900488563
71.8115672358513
72.1577017336157
72.4828125168847
72.7811626879537
73.0468943315346
73.2740732199937
73.4567434710181
73.5889919300776
73.6650216555329
73.680795590366
73.6408339599584
73.5526339311869
73.42383392001
73.2621209526595
73.0751552301662
72.8705108335232
72.6556326515559
72.4378091713899
72.224160473544
72.0216406143275
71.8370535464872
71.677081812076
71.5481500881407
71.452588978444
71.3887292788492
71.354822953295
71.3492063332023
71.3702866859904
71.4165299513418
71.4864494945594
71.5785957515858
71.6915466621168
71.8238988063523
71.9742591778305
72.1412375398859
72.3234479708284
72.5209621046363
72.7369962906399
72.9752655860392
73.2396129500571
73.5340347207082
73.8627111000943
74.2300422917745
74.6406911046179
75.0996330514992
75.6122152397641
76.1842256890956
76.8219751421213
77.5306926881342
78.3010974647069
79.1153488394712
79.9540513235117
80.7961011838486
81.6185673437427
82.3966927960661
83.1040431839661
83.7128281958237
84.1944159249309
84.5200493552918
84.6622986115915
84.6158540269171
84.4036664099131
84.0520300406852
83.5879764278503
83.0384997669577
82.4299537171242
81.7876257405013
81.1354818192985
80.4960657997599
79.8905335669044
79.3388019676479
78.8597146092144
78.461826317027
78.1351779751653
77.8683858010662
77.650650316521
77.4716066384487
77.3212076980433
77.1896367393253
77.0672466276691
76.9445243238703
76.8120794024345
76.6606557467222
76.4811655598858
76.2655470294825
76.0146138367558
75.7344769133249
75.4312325913534
75.1108472414806
74.779127837713
74.4417022138812
74.1040084094985
73.7712924154348
73.4486136008646
73.1408571243087
72.8527526952218
72.5888991512633
72.3536762483549
72.1477017026689
71.9673059148602
71.8086973367028
71.6681904992298
71.5421855585954
71.4271518627766
71.3196152783529
71.2161490796048
71.1133682483881
71.0079270642771
70.8965198814948
70.775884993061
70.6428114741776
70.4953078868475
70.3388576333924
70.1817863536766
70.0322819275504
69.8983959032904
69.7880709034418
69.7091859618585
69.6696194900343
69.6773300893852
69.7404561154052
69.867435779772
70.0671506880485
70.3490971213644
70.7235317661531
71.1944888694374
71.7525108755278
72.3863957476294
73.0844892299771
73.8344175162906
74.6228490988808
75.4352909582478
76.2559279028606
77.0675172561533
77.8513539510165
78.587323017203
79.254064264177
79.8346725275404
80.3271174743119
80.7326337535099
81.0531909083574
81.2914400567618
81.450650506959
81.5346387758225
81.5476925519237
81.4944920981412
81.3800314358878
81.2095414162252
80.9884259624452
80.7230366493571
80.4212414781428
80.090959679601
79.7399423297047
79.3757280487695
79.0056140569178
78.6366415997135
78.2755946042426
77.929010384399
77.6032012682794
77.3042861544659
77.0382312037223
76.8100043624651
76.6182223889021
76.4589006419233
76.3281921150149
76.2223682063309
76.1377928439396
76.0709006199612
76.0181786272378
75.9761517743774
75.9413714207022
75.9104072236971
75.8798421292912
75.846277399011
75.8091078561773
75.7747476482655
75.7506782364377
75.7443678392534
75.7632991271758
75.8150117516351
75.9071600983744
76.0475870771502
76.2444153263483
76.5061579472056
76.8418518292778
77.2612178493878
77.7729095304253
78.3693807884021
79.0340635259654
79.7494341910774
80.496781218184
81.2559729196842
82.0053116890726
82.7214938009709
83.3796968162041
83.9538167218818
84.4168735030374
84.7420665391947
84.9207794257782
84.968419957306
84.903268384384
84.7444943748174
84.5116957842081
84.2245180121688
83.9023628318979
83.5641891887056
83.2284037643741
82.9128362036521
82.6347927107641
82.4092042887384
82.2353612048103
82.1054685455782
82.0119386916438
81.9473612162122
81.9044440489479
81.8759684824253
81.8547573452522
81.8336559553952
81.8055256564219
81.7632498336425
81.6997523985178
81.6112364742614
81.5056343995319
81.3934727793389
81.2851725546027
81.191045853901
81.1213191857212
81.0861823927243
81.0958631740833
81.1607276368824
81.2914082723419
81.498961999112
81.7949527021936
82.1817496840869
82.6442529125234
83.1651918098455
83.7266431365822
84.3097969832606
84.8947975720739
85.4606695088284
85.9853426811655
86.4457898119133
86.8182892316556
87.0789188562678
87.2158399343347
87.2411068849314
87.170372258418
87.0198941592965
86.8062118287924
86.5458785736987
86.2552570209815
85.9503779771955
85.6468614478199
85.3598966697354
85.104277284474
84.890529617187
84.7117442729027
84.556481555271
84.4135192351923
84.2718044749318
84.1204353656663
83.9486710552922
83.7459693655475
83.5020505517201
83.2069853377315
82.8513046011537
82.4263156130264
81.9344238374991
81.3937617038566
80.8230782844351
80.2402511267971
79.6622098582789
79.104936829736
78.5835345361474
78.1123503878302
77.7051512118164
77.3753423890957
77.1362296271365
77.0013249901323
76.9811568367426
77.0664330130464
77.2411544101776
77.4897200556518
77.7965990062426
78.1460559976273
78.5219381018558
78.9075235048634
79.2854367229657
79.6376367545141
79.9454856552746
80.1899046006741
80.3550521622757
80.443496175416
80.4643161312244
80.426989731425
80.3412409433915
80.2169119460046
80.0638576846784
79.8918643727788
79.7105923259427
79.5295428079448
79.3580481106764
79.2052838798601
79.0790098945327
78.9768022075623
78.8915346980405
78.8161424863642
78.7436262657145
78.6670408359799
78.5794960070807
78.4741696091249
78.3443322970597
78.1833837014863
77.9848992611269
77.7426867853321
77.4510376163701
77.1115208577659
76.7346087979361
76.3310946493177
75.9114235898192
75.4856404334525
75.0633660024177
74.6537994791342
74.2657439538573
73.9076525843332
73.5876931958522
73.3138297299361
73.0939196683202
72.9357858459749
72.8423727994695
72.8071880722252
72.8229443306978
72.8825773456977
72.9791536226056
73.1057927361975
73.255603211127
73.4216313653757
73.5968229958353
73.7739981440481
73.9458394388102
74.1048946671572
74.2436239091128
74.3564870236288
74.4413490845586
74.4964355755369
74.5200312947146
74.5104941534223
74.4662692645693
74.3859031336519
74.2680577471587
74.111524338438
73.9152366005867
73.6782831103714
73.3999187272497
73.0795845749271
72.7193418858303
72.3269033737077
71.9105606327505
71.4783183993707
71.0378559420052
70.5965065648879
70.1612534562874
69.738740040985
69.335293063666
68.956956805587
68.6095370959773
68.298654101953
68.0298032523571
67.8084240204325
67.6383891343342
67.517936086186
67.4442319090728
67.414666057247
67.4268161198274
67.4784172680962
67.5673348069689
67.6915393120527
67.8490839250857
68.0380834567868
68.2566950106313
68.503099896475
68.7754866514172
69.07203343372
69.3897275083625
69.7222173386415
70.0623555213031
70.4027145825515
70.7355752334623
71.0529309951673
71.3465108322791
71.6078213312494
71.8282096690689
71.9989481139433
72.111340070341
72.1568467292484
72.1272322358123
72.016338331196
71.8300075678704
71.5793689637583
71.2756685062346
70.9300728083814
70.5535282213211
70.1566558490868
69.7496812474475
69.3423965068727
68.9441517967182
68.5638732284201
68.210104013314
67.8910662789734
67.6147415091413
67.3885269324871
67.2130640088263
67.0839387000014
66.9968586439342
66.9477402616548
66.9326607251169
66.9478160929979
66.989484831668
67.053996142417
67.1377026850545
67.2369574290128
67.3480944808699
67.4674138348485
67.5911700721444
67.7156352131963
67.8396638069277
67.9654761587974
68.0955471199727
68.2323903603641
68.3785626082986
68.5366698430399
68.7093755420507
68.8994111088775
69.109588639211
69.3428162230686
69.6021160315559
69.8906454991185
70.2117219889962
70.5680876140997
70.9559500597398
71.3679083577805
71.7962166084351
72.2327615928836
72.6690287535493
73.0960867684853
73.5045932371206
73.8848240997374
74.2267292795027
74.5200166137811
74.7542653878163
74.9190696723936
75.0065829694892
75.0207988315619
74.9696123621677
74.8612469844308
74.7041207227205
74.5067293021837
74.2775474610912
74.024949581185
73.7571499067571
73.482161971412
73.2077763900648
72.9415558966865
72.6908464006905
72.4624552791704
72.2597022000117
72.0840088966795
71.9368008521013
71.819540233546
71.7337386477302
71.6809708072344
71.6628892682557
71.6812404309478
71.7378820300481
71.8348023864946
71.9741417419752
72.1582160598956
72.3894087932439
72.666051646088
72.9814996393762
73.3286982152876
73.7003947674459
74.0890778615232
74.4869300097301
74.8857953393186
75.2771638749076
75.6521744093124
76.0016380369997
76.316084332563
76.5858318370754
76.8025292543252
76.9655565401868
77.0770728183912
77.139484118443
77.1554091177863
77.127646062269
77.0591399567488
76.9529506393089
76.812222271835
76.6401546922731
76.4399769839962
76.2149235290968
75.968209156305
75.7026931507304
75.4206257843391
75.124164339435
74.8154251253343
74.4964768026113
74.1693349757492
73.8359579983967
73.498243925327
73.1580285381139
72.8170843671955
72.4771206311108
72.1397840139342
71.8066602040116
71.479668866094
71.1627254156162
70.8602857483923
70.5766626290838
70.3160476459651
70.082538210732
69.880168943147
69.7129473677866
69.5848940171076
69.5000872224371
69.4627130867478
69.477121377281
69.5478883624804
69.6798823366323
69.8742499634392
70.1210760562689
70.4084461059007
70.7242033582253
71.0558234370576
71.3903301019427
71.7142555484374
72.0136496602436
72.2741429311687
72.4810672580354
72.6196373334363
72.6751928509669
72.6334981738116
72.4844118970433
72.2363494441033
71.9041015044985
71.5026264054335
71.0467450894634
70.5509023502824
70.0289913630927
69.4942387803305
68.9591453380285
68.4354756452545
67.9342904543775
67.4660150486652
67.0405382560645
66.6673378526251
66.3553456156275
66.1058662811229
65.9123317520669
65.768200937159
65.667275126004
65.6036121630888
65.571454388651
65.5651686139985
65.5791969215248
65.6080174925736
65.6461149897073
65.6879602666034
65.7279993559454
65.7606517965198
65.7803184058014
65.7824672918629
65.7688269905046
65.7434038587564
65.7102110250256
65.6732533700043
65.636520522214
65.603984727483
65.5796035439794
65.5673273159168
65.5711114048963
65.5949332078113
65.642814064583
65.7188462587957
65.8272254418403
65.972233702961
66.154443295093
66.3681311974342
66.606917892062
66.8642962336945
67.1335862059742
67.4079020200631
67.6801324410219
67.9429354666355
68.1887486101987
68.4098160340264
68.5982336230855
68.7460127587517
68.8451630376572
68.8879112905778
68.8720354929476
68.8029953286529
68.6870128039563
68.5304383913675
68.3396720185365
68.1210953638942
67.8810161214673
67.6256244234108
67.3609612276841
67.0928981946954
66.8271283886124
66.569167039703
66.3243615840728
66.0979102461083
65.8946249840446
65.7175478592622
65.5690411050163
65.4514868097535
65.3673114204561
65.3190106261387
65.3091766170361
65.3405281224555
65.415943737583
65.5384991775035
65.7115092515796
65.9385755413215
66.2236410006988
66.5710529936762
66.9853821852792
67.4648393990136
68.0002092061906
68.5814948916349
69.1981100988267
69.8387293663684
70.491167777839
71.1422961116902
71.7779996187912
72.3831898243932
72.941879302645
73.4373289102881
73.8522751838448
74.1697700880228
74.3852696376355
74.5072472281254
74.5455953364404
74.5108631689201
74.4140343739138
74.2663292324457
74.079036740064
73.8633798049567
73.630414907128
73.3909660843763
73.1555920723291
72.934584825748
72.7379278798117
72.5705682557757
72.4294935591754
72.3110626438131
72.2117261089175
72.1280059132727
72.0564786906727
71.9937625449708
71.9365071645527
71.8813871427046
71.8250984233534
71.7643578118906
71.6959054988415
71.6165105404385
71.524044062729
71.4220468840768
71.3158864309063
71.2108716460942
71.1122497681837
71.0252120917511
70.9549073089911
70.9064622741856
70.8850101375347
70.8957259441322
70.9438699890445
71.0348394646626
71.1742292395276
71.3676882134819
71.6144044312544
71.9056900970035
72.2322737650339
72.5846451705063
72.9529688474639
73.3270219392616
73.6961584905888
74.0493031275073
74.3749773398616
74.661361510833
74.8963953177412
75.0679180914451
75.164658257454
75.185418182244
75.1359318611405
75.0224343314276
74.8514358205844
74.6296190919642
74.363746285246
74.0605768758372
73.7267977509512
73.3689658413965
72.9934632769457
72.6064646593607
72.2139157723382
71.8215010965698
71.4331559937743
71.0501998966426
70.6736703325107
70.3045597431832
69.9438181769113
69.5923561753554
69.2510478292446
68.9207339804352
68.6022255520319
68.29630699214
68.003739820669
67.7252662723851
67.4616130331406
67.2134950834888
66.9821047843757
66.7703743565505
66.5815839149444
66.4189757121586
66.2857793798984
66.1852402277515
66.1206507924366
66.0953859575222
66.1129421092254
66.1769809637081
66.2913789027593
66.4602828979733
66.6881744020166
66.9799429574509
67.3399788111585
67.7634863389217
68.2402013000289
68.7594156115619
69.3098664522646
69.8795964863819
70.4558485231599
71.0250009961966
71.5725521473698
72.0831616854884
72.540758713893
72.9287236091945
73.2301490274361
73.4291586916225
73.5236584526532
73.5220207868193
73.4336300274498
73.2684398619509
73.0367559786211
72.749040838964
72.4157453873941
72.0471704607668
71.6533588729767
71.2440177071149
70.8284692824104
70.4156285696516
70.0140044745826
69.6309593858802
69.2695374893258
68.9313637266416
68.6180240432908
68.3310795798093
68.0720805292654
67.8425805737513
67.644151987565
67.4784015251896
67.3469872451987
67.2516364578402
67.1941650255112
67.1764982931887
67.2006939819937
67.2686950550537
67.3789162062763
67.5272269484536
67.7094991106915
67.9216197053698
68.1594502086499
68.4187906816596
68.6953486427572
68.9847127778541
69.282331730499
69.5834983461958
69.8833398541816
70.1768145507958
70.4587155963303
70.7242415019158
70.9707238174691
71.19602290532
71.3979887434799
71.5744733799488
71.7233446456847
71.8425010393445
71.929887663285
71.9835130553578
72.0014667257537
71.9819371737081
71.9232301265994
71.8237867152509
71.6824355535987
71.5013351192541
71.285010431603
71.0380498611418
70.7650141253839
70.4704020679484
70.1586224916667
69.8339719574845
69.5006183317403
69.1625897686982
68.8237687511304
68.4878907763786
68.1585472651376
67.8391922814793
67.5331882204543
67.2448912317924
66.9798185386858
66.7434173703909
66.5410338860487
66.3779663411519
66.2595263509163
66.1911087156596
66.1782707265787
66.2268224024813
66.3429297461565
66.5332338926374
66.8049900066956
67.166231052841
67.6259210593223
68.1869883012568
68.8376461233808
69.5636938933479
70.3500085280898
71.1801868437892
72.0362416437605
72.8983668521446
73.7447935036256
74.5517637762088
75.2936535259055
75.9432736422458
76.4723755166442
76.8544053014276
77.0854874671821
77.1769878378575
77.1422082292199
76.9957339598528
76.7529885584728
76.429827966702
76.0421892995541
75.6058032337983
75.1359737592966
74.6474247204579
74.1542094557454
73.669677908592
73.2060320280416
72.7686656366757
72.358314149929
71.9756114809036
71.6211987244209
71.2957316798254
70.9998884803127
70.7343773933013
70.4999448642527
70.2973838851955
70.1275427793302
69.9913345048074
69.8897465944807
69.8238518645902
69.7945791696642
69.8015598318741
69.8440287540146
69.9213263121573
70.0328920762516
70.1782586738034
70.3570464039303
70.5689585192135
70.8137771037919
71.0913594855329
71.4016351281283
71.7446029558038
72.1203290691794
72.5286285009432
72.9644535100259
73.4186575512351
73.8815400107365
74.342902695115
74.7920322703988
75.2177124777849
75.6082698854517
75.9516566510475
76.2355730045742
76.4476308504619
76.575557999637
76.6074410181592
76.5364861616501
76.3715685560384
76.1252036962526
75.8101798289216
75.4393161258586
75.0252629061505
74.5803459585049
74.1164545707534
73.644971062704
73.1767384407888
72.7220621935839
72.2907421416732
71.8921305489907
71.5346114481989
71.2198886055728
70.9458245984979
70.71040934291
70.5117969442796
70.3482877602454
70.2183124356843
70.1204176321369
70.0532532152105
70.0155606983069
70.0061627700814
70.0239537574447
70.0678908965131
70.1369863013699
70.2301457150347
70.3456960681652
70.4818307780239
70.6367513741116
70.8086569684559
70.9957346300546
71.1961506347381
71.4080425818769
71.6295123877432
71.8586201820651
72.0933791494163
72.3317513704856
72.5716447298302
72.8107510009821
73.0454366969543
73.2713756325244
73.4841377455055
73.6792049397606
73.8519891259278
73.9978561345969
74.1121555810419
74.1902566212745
74.2275893688033
74.2196915433627
74.1622597027704
74.0512041753858
73.8835710638988
73.6628169027417
73.395187572731
73.0869716910386
72.7444194264591
72.3736828452798
71.9807673154798
71.5714937948479
71.1514715360335
70.7260805302609
70.3004628761022
69.8795221919648
69.4679301808844
69.0701394934961
68.6902702632295
68.3315782703376
67.9969741938936
67.6892822689831
67.4112646566132
67.1656475217301
66.9551490261759
66.7825093917831
66.6505232922025
66.5620749459591
66.5201764117418
66.5280097354799
66.588973774392
66.7067367351221
66.8849693955051
67.1211743518924
67.4069834135405
67.7337331978742
68.0925641083844
68.4743172796414
68.8694533466822
69.2679949874724
69.659496041342
70.0330406019001
70.3772757534802
70.6804814834614
70.9306806723819
71.1157909486067
71.226835965298
71.2661715738432
71.2391140249698
71.151354841048
71.0088602176887
70.817776386054
70.5843431104462
70.3148169064968
70.0154050012961
69.6922105468269
69.3511891615086
68.9981165221398
68.6385664631668
68.2778988592068
67.921342691973
67.5742862032982
67.2420016900507
66.9295613427814
66.6418665499313
66.3836838249633
66.1596869324343
65.9745050381231
65.8327769845528
65.7392121030689
65.6986583251547
65.7161787622876
65.7971384052668
65.9473031787935
66.1727073280674
66.4721801297777
66.8356402534314
67.2523779337245
67.7113720688221
68.2011173447359
68.7094844020292
69.2236170034791
69.7298720916507
70.2138100655705
70.6602433754903
71.0533514012443
71.3768682886587
71.6143478646619
71.7539188372974
71.8003901424599
71.7630148397214
71.6516398536988
71.4764915249172
71.2479831221807
70.9765492998344
70.6725104262178
70.3459679164155
70.0067302593028
69.6642683719299
69.3276982400283
69.0057884814296
68.7069900284125
68.4374129019153
68.1961902046479
67.9811292707108
67.7901446827022
67.6212434153897
67.472511671088
67.3421032135823
67.2282290409001
67.1291482654336
67.0431600937349
66.9685968184653
66.9038177520313
66.8472040458258
66.7971543510466
66.752396449597
66.715063841213
66.6893550519682
66.6794948731567
66.6897221747916
66.72431278895
66.787608010755
66.8840490426971
67.0182178832951
67.1948853782014
67.419067420144
67.6960906169636
68.0316691632646
68.431995176951
68.9028001075688
69.4390050397332
70.0283782458589
70.6579014822295
71.3136639740985
71.9807035104264
72.642900785026
73.2829389538929
73.8823421569647
74.4216072078748
74.8804412771153
75.2381146798594
75.4739314591133
75.5727413045599
75.5422908314011
75.3976020856311
75.1545994191968
74.8296720702417
74.4392960837828
73.999725611419
73.5267577438542
73.0355701616689
72.5406273913292
72.0556493162116
71.5936346769343
71.1669323958121
70.7871262033489
70.4583030149258
70.1762491474649
69.9365740310923
69.7351470756956
69.5680516249446
69.431545245859
69.3220254886457
69.2360004400839
69.170063546846
69.1208723099514
69.0851305533384
69.0595740521317
69.0409593723435
69.0262489079967
69.0162624918566
69.0153691715455
69.0280756260104
69.05890829677
69.1124341944071
69.1932878678768
69.3062048534227
69.4560620928336
69.6479260289105
69.8871093585403
70.1792377640745
70.5303283706508
70.9468822170901
71.4326190821996
71.9780608918785
72.5698849548002
73.1939905237384
73.8353199509058
74.4777320832305
75.1039385265137
75.6955154942782
76.2330048480851
76.6961171625203
77.0640467223288
77.3159028832565
77.4323884001703
77.4126909310282
77.2709910988987
77.0228673684325
76.6844856325946
76.2722031461552
75.8022366019061
75.2904002928677
74.7519151776013
74.2012857823927
73.6522392879485
73.1177197669809
72.6099301843153
72.140351798138
71.7155343420995
71.3346913105063
70.996527714236
70.699912852138
70.4438704768232
70.227570463321
70.0503218447066
69.9115671034174
69.8108776286803
69.7479502698866
69.7226049334041
69.7347831866715
69.7845478488881
69.871962969958
69.9951044264095
70.150332278582
70.3339756002173
70.5423560960189
70.7717589170556
71.0184071580949
71.2784400461876
71.5478949377387
71.8226933345694
72.0986312074057
72.3713739760837
72.6364565369347
72.8893081069209
73.1261273798142
73.3442702302457
73.541153031379
73.714176852184
73.8607425431184
73.9782676375215
74.0642049632219
74.1160628088947
74.1314264368391
74.1079806796625
74.0435333047558
73.936038779599
73.7836756479123
73.587230957673
73.3509729662877
73.0794546377708
72.7772205076746
72.4487684345571
72.0985171486692
71.7307796093903
71.3497420355965
70.9594483574306
70.5637897530478
70.1664988777585
69.7711483625855
69.3811531511648
68.9997853463459
68.6303803860822
68.2763378743967
67.9409326508789
67.6273244860405
67.3385794977599
67.0776939266075
66.8476201921215
66.6512952497085
66.491671372374
66.3717495948994
66.2946161834027
66.2634826347157
66.2817298734384
66.3529574449299
66.4787812229219
66.6528360007438
66.8669515156094
67.1129012507313
67.3823101843674
67.6665821161175
67.9568473232105
68.2439319830418
68.5183512755994
68.7703283196454
68.9898410576044
69.1666988403206
69.2906497339598
69.3515359047995
69.3438052095083
69.2723558361398
69.1438265662993
68.9650656359757
68.7430274792146
68.4846819500817
68.1969373049124
67.8865775385778
67.5602140896748
67.2242514741084
66.884866077096
66.5479971242683
66.2193487516915
65.9044020876636
65.6082755028087
65.3334734440962
65.0805423494218
64.8499919944587
64.6423521108113
64.4581771733477
64.2980513776895
64.162593853033
64.052464160954
63.9683681371654
63.9110641405062
63.8813697819771
63.8801692166276
63.9084210928587
63.967167267588
64.0574801096387
64.1795751220991
64.3330084938066
64.5173959586694
64.7324277878724
64.9778644224416
65.2535325809789
65.5593217851292
65.8951812516969
66.2611171056466
66.6571898726367
67.083512213365
67.5402468649467
68.0276047568687
68.5456562755807
69.0907149547293
69.6553205216043
70.2313794010325
70.8102432031081
71.3826794810179
71.9388649520669
72.4684051613032
72.9603846061538
73.4034510248687
73.7859367981283
74.0960191540856
74.3219190673432
74.4528692140245
74.4886060943586
74.4367665550527
74.3057566484637
74.1044082834849
73.8418065810347
73.5271349671103
73.1695412457091
72.7780264753177
72.3613572369079
71.9280008773082
71.4860825586381
71.0433624379258
70.6072310051007
70.1841829187308
69.7784690841339
69.3937149297674
69.0334006783888
68.700887788462
68.3994480728318
68.1322953820213
67.9026198680371
67.713624980627
67.5685674942352
67.4708010246537
67.4238236754595
67.4313306636975
67.4972730224489
67.624841838702
67.809874935737
68.045051883418
68.323064932492
68.6365268945485
68.9778808538449
69.3393248654349
69.7127523285799
70.0897093844833
70.4613712171321
70.8185395106265
71.1516634986926
71.450886986479
71.7062531331667
71.9125723837187
72.0710194029138
72.1834077418496
72.2517622507856
72.278292647332
72.2653666172777
72.2154829858482
72.1312454481139
72.0153372890159
71.8704974593019
71.6994983066795
71.5051251944797
71.2901581754799
71.057641532876
70.8119457246916
70.5577553199431
70.2996351473536
70.0420233352946
69.7892302844912
69.5454430728045
69.3147348909661
69.1010791486991
68.9083679538639
68.7404347502498
68.6010810005426
68.4941069191177
68.4233463952997
68.391817208704
68.3979335367797
68.4386748817123
68.5111169830042
68.6124041079082
68.7397232806516
68.8902811291423
69.0612831320044
69.2499151267032
69.4533270080302
69.6686186067496
69.8928277915979
70.1229208843929
70.3557878530404
70.5885199553676
70.8186869946953
71.0438604192999
71.2615527769404
71.4692215750985
71.6642750045962
71.8440796102575
72.005969972863
72.1472604407197
72.2652589165528
72.3572826662189
72.4206760702996
72.4528301886792
72.4519585553723
72.4193776949162
72.3572375782992
72.2677496912766
72.1531699848069
72.0157829445947
71.8578869283346
71.6817808810845
71.4897525033527
71.2840679137368
71.0669628188769
70.8406351784211
70.6072393318298
70.3689142174824
70.129216886243
69.893636628597
69.6676650343649
69.4566557000804
69.2658443976773
69.100376917627
68.9653442822319
68.8658252265977
68.8069360894398
68.7938885464176
68.8320559626129
68.9270495509373
69.0848060193114
69.3113129086947
69.604365356918
69.9532353823661
70.3466396597736
70.7729392844585
71.2200000253813
71.6750893019371
72.1248142988014
72.5551069714539
72.951262425586
73.2980371020293
73.5798121718569
73.7808253699184
73.8860092130839
73.8931937795274
73.8133298208026
73.6584769839305
73.4410065106517
73.1733758510736
72.8679436207052
72.5368271350118
72.1918024751405
71.8442453662761
71.5051100908014
71.1849431670801
70.8939285293703
70.6419613660868
70.4370304313358
70.2780135596092
70.1609893453613
70.08223971588
70.0382102201241
70.0254735178267
70.0406973024481
70.0806161356508
70.1420068016631
70.2216668994715
70.3163964831742
70.4229826388051
70.5381869513654
70.6587757588736
70.7842797083805
70.9188400441876
71.0670953766412
71.2337735475334
71.4237132345971
71.6418924327282
71.8934643850979
72.1838017330333
72.5185499070376
72.9036911058888
73.3456206249753
73.8512378247679
74.427916065438
75.0773708163851
75.7926632731283
76.5658237385821
77.3883187545619
78.250896627985
79.1434458490994
80.0548705896517
80.9729891536264
81.8844628843132
82.7747644836787
83.6281957905257
84.4293176799323
85.1691409545732
85.8409293911588
86.4380075047254
86.9538525609941
87.3821948118216
87.7171224068137
87.9531884467871
88.0855172506807
88.1099066099444
88.0229226361031
87.827309085985
87.5477445339215
87.214140734289
86.8558228566388
86.5012740315106
86.1780746261615
85.9130220091848
85.7324175096006
85.6625127727658
85.7301173213105
85.9613354818774
86.3484976170697
86.8544035200415
87.440209609101
88.0654498292942
88.6874403672863
89.2610664456444
89.7390085005765
90.0724658775514
90.2124162823497
90.111405251906
89.7352528700174
89.1050347537669
88.261441614055
87.2460668957459
86.0997677327974
84.8614240479385
83.5670911528173
82.2495139212401
80.9379482573359
79.6582266922933
78.4330061008789
77.2821431254689
76.2229249185958
75.2607219876214
74.3868343912426
73.5925639369204
72.8701311888341
72.2125326455466
71.6134218676691
71.0670100286453
70.5679823432401
70.1114275812471
69.6927784561167
69.3077611316691
68.9523524455753
68.6227437286149
68.3153304491213
68.0277783049947
67.7595181124732
67.5101571108278
67.2793360845225
67.0667279562336
66.8720365251738
66.694995341295
66.5353667070987
66.3929407998253
66.2675349077616
66.1589927752927
66.0671840521509
65.9920038430934
65.9333723549692
65.8913758086097
65.8672323544925
65.8627072108221
65.8796007323285
65.9197565481172
65.9850740246176
66.0775220900699
66.1991545942799
66.3521274176369
66.5387175909418
66.7613447441994
67.0225952704539
67.3252496728722
67.6723136632872
68.06657445388
68.504504805183
68.977700218237
69.4772493752365
69.9937445676759
70.517211245652
71.0370625664172
71.5420832943277
72.0204479118567
72.4597779150365
72.8472428667288
73.1697087492068
73.4139353993318
73.567486648511
73.6299598331127
73.6114823536386
73.5230550796418
73.37601684738
73.1818490628486
72.9520137459293
72.6978273861092
72.4303711208489
72.1604363534269
71.8985040152664
71.6547552265796
71.4391110743432
71.2612973138969
71.1274004584774
71.0328736709118
70.9713457287168
70.9365924277589
70.9224843283476
70.9229458228701
70.9319249641799
70.9433737539686
70.9512387704704
70.9494621192723
70.9319927211761
70.8928079072119
70.8259451733456
70.7259450381853
70.5954680260549
70.4445395436303
70.2833395155093
70.1218825944294
69.970004085163
69.8373739118503
69.7335374071685
69.6679820288979
69.6502297350981
69.6899556665944
69.7971350114614
69.9822215101424
70.2563630960184
70.6287614826195
71.0925618271972
71.6348824096268
72.2424839592627
72.901476231072
73.5970579360197
74.313303525589
75.0330062527818
75.7375906655264
76.4071105414938
77.0203497477222
77.5550429702104
77.9891661755539
78.3193524361051
78.5604988611276
78.7292651328534
78.8430922232995
78.9199195798194
78.9779760944644
79.035651662278
79.1114529509581
79.2240453466456
79.3923830320812
79.6359308771404
79.9742345431571
80.4106076343333
80.9314589037676
81.522198578629
82.1676750812999
82.8519141313842
83.5579087455304
84.2674681535706
84.9611370303379
85.6181989165947
86.2167788631222
86.7344230866823
87.1618429117334
87.507724528617
87.7827575005225
87.9983240476038
88.1663284059021
88.2990514929777
88.4090355665207
88.50900213002
88.6118052074367
88.7304213515976
88.8772829517093
89.0543310105764
89.2551852165855
89.4731662670513
89.7014859259439
89.9332252329832
90.1613229953671
90.3785750975138
90.5776452091138
90.7510874433474
90.8913814372735
90.9920223780342
91.0503452647075
91.0646517005662
91.0333659519959
90.9550503279908
90.8284200214245
90.6523571700758
90.4259238943108
90.1483740730767
89.8191636307415
89.4380521209543
89.0114682879959
88.5562551082153
88.0896475720164
87.6282049164087
87.1878072727627
86.7837115186086
86.4306603149147
86.1430396414898
85.9350821469355
85.8211162317998
85.8158528814496
85.9266705227487
86.1394924857439
86.4368856061635
86.8014846805741
87.2156754734522
87.6613458363709
88.1197062878819
88.5711851933553
88.9954063294491
89.3712579329056
89.6774337791159
89.906345700922
90.0686071914582
90.1765047573468
90.2426791868329
90.2799905666065
90.3014176883799
90.3199937772086
90.3487794940358
90.4008736162768
90.4894615902461
90.6238575882253
90.798813709121
91.0057338520409
91.2359408711933
91.4806223777621
91.7307928557186
91.977272746579
92.2106854063868
92.4214729469046
92.5999319274597
92.7365581646727
92.8276034201996
92.8747399522866
92.8799746706976
92.8454327123558
92.7733387470218
92.6659986594217
92.5257818393511
92.3551042803496
92.1564126553322
91.9321735330481
91.6858573891415
91.4232029254663
91.1501675518282
90.8725817106619
90.5961403579066
90.3264018296819
90.0687936534374
89.8286248792193
89.6111045574219
89.4213654900891
89.261657332077
89.1248626594221
89.0020524193989
88.8844147536716
88.763235684255
88.6298971496512
88.4758918771707
88.2928545284508
88.0726083739649
87.8072264499689
87.4891080631838
87.1147039207079
86.6917359559144
86.2298808821263
85.7385696028272
85.2269193800679
84.7036873943296
84.1772441268704
83.6555647095731
83.1462362781482
82.6564794024903
82.1931818233497
81.7628887659727
81.3694815422045
81.0134099793524
80.6949370785245
80.4143977826948
80.1722045686807
79.9688535357949
79.8049310773709
79.6811212317439
79.5982138217502
79.5571135067596
79.5588498891542
79.6045399416455
79.6920144164381
79.8135738908073
79.960999836407
80.126011987529
80.3002224419056
80.4751068082063
80.6419929848474
80.792068337061
80.9164060626299
81.0060113883795
81.0518879079411
81.0453650833949
80.9844064414874
80.874175840075
80.7203235508045
80.5285715521692
80.3046574012916
80.0542860706992
79.7830900530631
79.4965977788544
79.2002101835518
78.8991851038418
78.5986290747881
78.3034933658647
78.0181335503663
77.7458386559185
77.4896933768185
77.2527134228779
77.0378603544899
76.8480585112568
76.6862140102601
76.5552358488469
76.4580592120132
76.3976711571953
76.3771389312068
76.3996412675755
76.4679793872881
76.5787897493089
76.7245940373628
76.8978315762578
77.0908715944216
77.2959650463231
77.5052113841107
77.7105408780663
77.9037133091024
78.076333946716
78.2198876686978
78.3257918600927
78.3856199345205
78.396723068855
78.3638805976458
78.2924869381995
78.1880226257818
78.0560047869996
77.9019450726202
77.7313153672229
77.5495213696406
77.3618839603841
77.1736281417643
76.9898792524832
76.8156661186824
76.6550984086121
76.507826851999
76.3720707016759
76.2460834665554
76.1281489442686
76.01657717117
75.9097011747089
75.8058744949077
75.7034694471944
75.6008761028507
75.4965019659654
75.3887723271073
75.2761349088604
75.1585116358755
75.0394872170552
74.9231691189297
74.8136144013268
74.7148350356039
74.6308075100101
74.5654866277434
74.5228234562052
74.506787457141
74.5213929171804
74.5707299081159
74.6590001386025
74.7905092234581
74.9663118855956
75.181944841253
75.4324391677038
75.7127881840254
76.0179017991367
76.3425670969995
76.6814153108802
77.028895552346
77.3792558429164
77.7265321434203
78.0645461818731
78.3869131829032
78.6882775104607
78.9672281682554
79.223211033134
79.455707239889
79.6642355537346
79.8483546141315
80.0076650313687
80.1418113181367
80.2504836393754
80.3334193649665
80.3904044113294
80.4212762347569
80.4272824596106
80.4134741345067
80.3855728392632
80.3493039392718
80.3103806210876
80.2744960781227
80.2473238002437
80.2345258986845
80.2417694233267
80.2747507025639
80.3392278568984
80.4410434462051
80.581585196479
80.7516739778661
80.940539106212
81.1372428242033
81.3306430886904
81.5093862046747
81.6619307671662
81.7766042856512
81.8416933978371
81.8455677079898
81.7768360096821
81.6248525689725
81.3896288444104
81.08341554628
80.719205339743
80.3098518796975
79.8679148952006
79.4055473619898
78.9344229244125
78.4657005789415
78.0100230177815
77.5775448813082
77.1779873999292
76.8207164403885
76.5131465273991
76.2544709326365
76.0416324855424
75.8717963709058
75.7423193428305
75.6507219879617
75.5946640054113
75.571922057498
75.5803698223376
75.6179599434614
75.6827076256118
75.7726756716961
75.8859410478706
76.0188075375544
76.1643477277673
76.3152112281729
76.4639353454766
76.6029414533327
76.724546231613
76.8209883196884
76.884470772361
76.9072194166719
76.8815567813926
76.7999907149363
76.6553161388004
76.4419834870128
76.165775641977
75.838198175807
75.4706792395838
75.0743927304906
74.6601636244801
74.2384071740115
73.8190995307607
73.4117768659892
73.0255599448008
72.6692013012905
72.351152598622
72.0796503907425
71.8626603551864
71.7022289653421
71.5930556577133
71.5296399901752
71.5067074630133
71.5191464344659
71.5619539953384
71.6301898355624
71.7189374466184
71.823272258225
71.9382365149279
72.058820863831
72.1799527514407
72.2964939422885
72.4047872219214
72.5054198223569
72.5997267357198
72.6890611896247
72.7747925722744
72.8583048509987
72.9409955011254
73.0242749600534
73.1095666201735
73.1983073738997
73.2919487245796
73.3919584784854
73.4998230639825
73.6171906903265
73.7462037373971
73.8891406947616
74.0483282411263
74.2261507501469
74.4250614861593
74.6475956352948
74.8963853528366
75.1741770503607
75.4838511976528
75.8284449764642
76.2111781982734
76.6351948095242
77.0971621347532
77.5868667408011
78.0933074255508
78.6049068379549
79.1094691433622
79.5941733212121
80.0456071092283
80.4498465359247
80.7925852876964
81.0593167250213
81.2355691193919
81.3087604496045
81.2838643423126
81.1768686855424
81.0043075185211
80.7828172009086
80.5289056827342
80.2587903481759
79.9883036410246
79.7328635237257
79.5075048196403
79.3269675418575
79.2058393041584
79.1578953758729
79.1822766456198
79.2658190288785
79.395151271973
79.5569191209388
79.737651958175
79.9236741882457
80.1010622964126
80.2556494563948
80.373079854992
80.4389144780338
80.4387889144076
80.3595159884413
80.2005214029057
79.9703786744633
79.6780775383305
79.33268707861
78.9432315534841
78.5185869007942
78.0673983953001
77.5980190722175
77.1184678829457
76.6364061047257
76.1591302697459
75.6935797864157
75.2458117226235
74.818998285858
74.4154028682031
74.0372093955436
73.6865396951496
73.3654715534987
73.0760576414934
72.8203453671012
72.6003977636108
72.4183155726267
72.2762607359908
72.1764815717872
72.1213399786545
72.1130465080794
72.1499826413152
72.2278062960346
72.342222837172
72.4890017885031
72.6639354301194
72.8628024732248
73.0813365548345
73.3151994636319
73.5599591534666
73.8110727244313
74.0638746530683
74.3135706314961
74.5554293118248
74.786469282381
75.0046999612739
75.2081118236764
75.3946718742612
75.5623316908874
75.7090366163282
75.8327360781902
75.931394995484
76.0030062063842
76.0456038259993
76.0572774159949
76.0361876198301
75.9818451620169
75.8976680827523
75.7878381875981
75.6565484105686
75.5079772606711
75.3462679369965
75.1755121281059
74.9997384266408
74.822905227395
74.6488979360236
74.4815302949788
74.3245496316738
74.1816416444931
74.0547657531677
73.9416386395769
73.839364385717
73.7450895230132
73.6559956849645
73.569294496765
73.4822246290679
73.3920509563041
73.2960657662619
73.1915919673531
73.0759882334308
72.9466560135666
72.8010483162354
72.6379410972892
72.4616714243002
72.2780191978802
72.0926576856973
71.9111470390893
71.7389366213846
71.581375658808
71.4437318127883
71.3312173678763
71.2490228710478
71.2023582440682
71.1965016216546
71.2368564485762
71.3287155719068
71.4706575049395
71.6544364429726
71.8714908038541
72.113152000085
72.3705718690396
72.6346705658465
72.8961060170056
73.1452664815058
73.3722879899015
73.5670983980292
73.7194894651502
73.8192177154954
73.8564720918779
73.8294638998999
73.7444938670709
73.6084347146424
73.4282934348069
73.2111230357944
72.9639471944506
72.6936985202602
72.4071705938267
72.1109835110124
71.8115623459132
71.5151277384225
71.2276977068255
70.9550997711207
70.7021564189102
70.4699235881121
70.258460284714
70.0678531526707
69.8982176521043
69.7496993228617
69.6224751735466
69.5167552091013
69.4327841114207
69.3708430890887
69.331251914166
69.3143711660696
69.3206047049939
69.3504009794587
69.4032259041585
69.4757326277763
69.5640931294866
69.6644652598255
69.7729771113006
69.8857155941936
69.998719293882
70.1079757301546
70.2094231631419
70.2989570935231
70.3724415852798
70.425725496251
70.454663634288
70.4552817261559
70.4268610179409
70.371944071287
70.2932599115891
70.1935658427673
70.0756302079698
69.9422172637274
69.7960742417187
69.6399206265027
69.4764396389462
69.30827188391
69.1380110970907
68.9682019095157
68.8013395386683
68.6398032646553
68.484577761245
68.3353920539061
68.1919359507296
68.0539064847036
67.921007426207
67.7929488292635
67.6694466096426
67.5502221530655
67.4350019519329
67.3235172691365
67.2155038276435
67.1107015246642
67.0088541693174
66.9097111385719
66.8134978875244
66.7215270353021
66.63525085665
66.5561087971076
66.4855303148972
66.4249383245353
66.3757532392304
66.3393976159189
66.3173014146562
66.3109078930883
66.3216801669833
66.3511084794542
66.4007182347578
66.4720788676809
66.5664505315827
66.6819813468507
66.8151953143681
66.9625771126984
67.1205682195352
67.285553232781
67.4538499020003
67.6217030252845
67.7852824048697
67.9406850756144
68.0839420219223
68.2110295789908
68.3178856715534
68.400430976151
68.4549363444696
68.4810178515111
68.4802141432882
68.4541500372401
68.4045037478706
68.3329950309059
68.2413739531414
68.1314103929255
68.0048843546788
67.8635771600788
67.709263559041
67.5437047857525
67.368642569042
67.1857940924628
66.9968662434191
66.8042175945242
66.6110251047739
66.4204500900587
66.2355820865233
66.0594432357884
65.8949953965588
65.7451498408808
65.6127794266171
65.5007331796446
65.4118532694621
65.3489944203759
65.3150458678041
65.3129560466779
65.3457602883464
65.4161078637833
65.5219017643399
65.6583812872983
65.8207681211105
66.0042540317606
66.2039652416269
66.4149336187968
66.6320748616508
66.8501740258663
67.0638788617228
67.2677015044556
67.4560290834269
67.6231437801481
67.7632527637908
67.8707905503123
67.9447913729985
67.9882783906379
68.0045032163186
67.9967950906143
67.9685357809111
67.9231375052994
67.8640241039139
67.7946155963688
67.71831619225
67.6385057638798
67.5585347474128
67.481722409895
67.4113584059158
67.3506807528225
67.3010354337217
67.2607003749114
67.2276860630032
67.2000164520216
67.175725238296
67.1528533036605
67.1294473110573
67.1035594415279
67.0732482636361
67.0365807256452
66.9916352573121
66.9365059620292
66.8693078713204
66.7881832225229
66.6922234761362
66.5849514370102
66.4711817060353
66.3556707448377
66.2431109736742
66.1381318810701
66.045307642215
65.9691710419449
65.9142335620108
65.8850115914428
65.8860588527773
65.9220053070951
65.9976030109027
66.117779654541
66.2875204717226
66.5064019373685
66.7674163010579
67.0631029061465
67.3858384351805
67.7277615461539
68.0807139400213
68.4361992179267
68.7853614194335
69.1189854966242
69.4275221347079
69.7011392310277
69.9298019425192
70.1033824647613
70.2129124149543
70.2593396872364
70.2489567924681
70.1883872554783
70.0844440607009
69.9440399311401
69.7741100241676
69.5815480548948
69.3731562839097
69.1556093391884
68.9354314912412
68.7189867664657
68.5124811604491
68.3219761910546
68.1530613896793
68.0074678557253
67.8846413048128
67.7840457152952
67.7051933543746
67.6476419176595
67.6109919471506
67.5948845016844
67.5989990568751
67.6230516142356
67.6667930014872
67.7300073481179
67.8125107220658
67.9141499150165
68.0347886963602
68.1740975560079
68.331581213403
68.506755903226
68.6991523677199
68.9083130228409
69.1337892204583
69.3751385911078
69.6319224535981
69.9037032794344
70.1900422015928
70.4904965586691
70.8046174668703
71.1319471142166
71.4705322898487
71.8133744291671
72.1521632093492
72.4782743527569
72.7827860748424
73.0565176107129
73.2900914128119
73.4740201051249
73.5988184979045
73.6551399076917
73.6339347127686
73.5266275592652
73.3253080101583
73.0261959062766
72.6406290498529
72.1840515026568
71.6717047920723
71.1183813831462
70.5382448694795
69.9447133267752
69.3504000012103
68.7671042374871
68.2058452200663
67.6769314983232
67.1900601930136
66.7544410702618
66.3789421979058
66.0720080907981
65.8355228698692
65.6646132965144
65.5545365092936
65.5009564359314
65.4998684596792
65.5475337014167
65.6404211118106
65.7751559496361
65.9484735294294
66.1571773729965
66.3981011092446
66.6680736460172
66.9638872941325
67.2822694976292
67.6200662984951
67.974508835082
68.3427930469289
68.7219975649212
69.1090708648513
69.5008207099033
69.8939061860021
70.2848326769802
70.6699501605371
71.0454552283329
71.4073972412069
71.7516890201357
72.0741224417732
72.3707533231108
72.6397161769336
72.8799470228723
73.0904349784641
73.2702280691806
73.4184399522051
73.5342564244882
73.6169416372247
73.6658439390821
73.6804012721115
73.6601460473358
73.604709431539
73.5138249827477
73.3877036592005
73.2292880495588
73.0426971699719
72.8320480683633
72.6014230321185
72.3548461247011
72.0962644450104
71.8295339950329
71.5584099677822
71.2865412162639
71.0174686337008
70.7546271634912
70.501351162126
70.2608818231514
70.0359672750566
69.8282636036965
69.6392459825314
69.4703809340556
69.3231351999861
69.198985218427
69.0994272593858
69.0259882884495
68.9802376487647
68.9637996742213
68.9783673725324
69.0257173465149
69.1077261562809
69.2263624113825
69.3813717302201
69.5683738180266
69.7825440776214
70.0190024314707
70.2727768893385
70.5387736257824
70.8117538409274
71.0863178440056
71.3568969272826
71.6177536830167
71.8629914509654
72.0865735604991
72.2823529411765
72.4452967741417
72.5751235093985
72.6728351655341
72.739535065482
72.7764177565912
72.7847587035456
72.7659039001784
72.7212595371769
72.6522818515826
72.5604672713332
72.4473429543574
72.3144578073756
72.1633740550007
71.9956919570498
71.8133587178834
71.6185169454987
71.4132839069787
71.1997421253295
70.9799343479822
70.7558597720786
70.5294714719087
70.3026749669383
70.0773278649093
69.8552405132187
69.6381775929291
69.4278605930184
69.2259711076099
69.0343919285329
68.8566443101959
68.6969095682333
68.5593154636258
68.4479582452047
68.3669323941335
68.3203652560416
68.3124568398741
68.3475252556664
68.4300584918051
68.5647735053027
68.7566839295616
69.0111781115168
69.3341096993534
69.7291067189451
70.1878886286735
70.6985674535768
71.2487344206604
71.8252782986953
72.4142437233593
73.0007363241332
73.5688835154883
74.1018612344073
74.581997309111
74.9909611797865
75.3100470139729
75.5206282349387
75.6137255733207
75.5991415285393
75.4896836899358
75.2987931926059
75.0402369443384
74.7278430830338
74.375285621214
73.9959206597778
73.6026736929796
73.2079754712066
72.8237426305492
72.4613987666299
72.131931719856
71.8440160515913
71.5967194119005
71.3864277259207
71.2097179533649
71.0633258623478
70.9441174413849
70.8490640053086
70.7752205741905
70.7197071958006
70.6796929577488
70.6523824980165
70.6350048741236
70.6248046931821
70.6190763255033
70.6173971257873
70.622781609015
70.6385340646791
70.667972181549
70.7144383435759
70.7813141423786
70.8720382365857
70.9901277541877
71.1392035159204
71.323019458104
71.5454967559633
71.8107632982403
72.1231992740946
72.48481805064
72.8880339439434
73.3227746429833
73.7785445514554
74.2443400551788
74.7085941650889
75.1591546000463
75.5832999710548
75.9677988700249
76.2990162329961
76.5630702231894
76.7460409740986
76.8347634950827
76.8272393370416
76.7319701684265
76.5583782227086
76.3162409284288
76.01550962545
75.6661510323089
75.2780141698989
74.8607239076852
74.4236010214099
73.9756076708846
73.5253165263107
73.0809013717558
72.6501035640033
72.2379180078497
71.8455637690968
71.4739272206664
71.1238736802717
70.7962542772568
70.4919129074611
70.2116933031255
69.9564462525339
69.7270370120208
69.524352961346
69.3493115624562
69.2028686915502
69.0860274254259
68.9997860711917
68.9432835624433
68.9134755656009
68.90726477978
68.921609038321
68.9535018161423
68.9999555582809
69.0579876929772
69.1246092494265
69.1968160467818
69.2715824578384
69.3458577783713
69.4165652513212
69.4806038037084
69.5350792640467
69.5801677555467
69.6182776007768
69.6518822728278
69.6834674318782
69.7155286082466
69.750570661884
69.7911090370434
69.8396728319904
69.8988097102208
69.9710926918731
70.0591288821038
70.1655702174546
70.2931263422264
70.4434165982712
70.6129923378202
70.7969533972724
70.9903157434701
71.1879939309507
71.3847904857381
71.5753926391085
71.7543768421657
71.9162214923696
72.0553282524995
72.1660522362633
72.2427411695171
72.2797834107655
72.2721896311707
72.2207859224054
72.1299981767011
72.0043966636935
71.8486006215005
71.6672376457294
71.4649089260553
71.246160515861
71.0154606518733
70.7771830050601
70.5355956419781
70.2948554063139
70.0590073914156
69.8319891633246
69.6175455801377
69.418887208131
69.2390310472646
69.0809546220335
68.9476143395009
68.8419662555584
68.7669893638859
68.7257115752037
68.7212386467316
68.7567864279879
68.835716912905
68.9615787347385
69.1381529161126
69.369503111424
69.6571791671705
69.9942953634562
70.3722317107918
70.7821192725059
71.2147395794033
71.6604448700662
72.1091014193023
72.5500590478351
72.9721504949096
73.3637246106947
73.7127172000976
74.006762731971
74.2333601104234
74.3845606059855
74.4641244988747
74.4780527827689
74.4327262239156
74.3347983404763
74.1910964656254
74.0085330976294
73.7940290730876
73.5544494817929
73.2965527022436
73.0269524936577
72.7520927415384
72.4782342196208
72.2112854207553
71.9561019642462
71.7171187374609
71.498665901052
71.304992688603
71.1402957975215
71.0087524865421
70.9145584641116
70.8619708305318
70.8553565425599
70.8992471087463
70.9984005068477
71.1578716548933
71.3828769520912
71.6722354190418
72.0168992683612
72.4072467770311
72.8333936091798
73.2850712843385
73.7515308001754
74.2214740731084
74.6830169412382
75.1236882397791
75.5304698158265
75.889882181155
76.1881196865772
76.4130415657378
76.5642848030005
76.6465500179468
76.6649882620352
76.625098863412
76.5326416637236
76.3935545053273
76.2138777604719
75.9996872296401
75.7570362917879
75.4919077860918
75.210175757792
74.9175769040064
74.6191816962234
74.3180683814246
74.0168049009694
73.717878004342
73.4236947860988
73.1365858039296
72.8588096454529
72.5925588238068
72.3399668977113
72.1031167299548
71.884049818816
71.6847766594984
71.5072881171344
71.3534825226061
71.2239619391846
71.1183475960587
71.0362841480129
70.9774650890055
70.9416309954531
70.9285680208136
70.9381066264695
70.9701205362892
71.0245259044215
71.1012806878949
71.2003842174805
71.3218769620611
71.465836285915
71.6306887378646
71.8105727632133
71.99885905149
72.1887862553753
72.373450667325
72.5458088201251
72.6986937064684
72.8248452419248
72.9169554077317
72.9677281976043
72.9699540546312
72.9165979268591
72.8008994107197
72.6185871099544
72.3750143568637
72.0782365074248
71.7363309773329
71.3572936886433
70.9489539858788
70.518908052993
70.0744702516524
69.6226412994772
69.1700918774334
68.723160081176
68.2878610890689
67.8699074853075
67.4747388264212
67.1073658696192
66.770764197204
66.4668126175868
66.1973764520258
65.9643415292103
65.7696375752079
65.6152629715577
65.5033112071361
65.4359994256775
65.4156995599247
65.4449726495629
65.5266070687219
65.6636615467938
65.8595140625381
66.1179039219897
66.4394713779464
66.8169331665555
67.241748445645
67.7051047283306
68.197791642945
68.7100952608484
69.2317155391391
69.7517106331022
70.2584728133154
70.7397413840957
71.1826582218549
71.573871192416
71.8996896222071
72.1482794751737
72.3208099758695
72.4240852197189
72.4654377623794
72.452581400904
72.3934871000729
72.2962729077094
72.169110231146
72.0201479312228
71.8574549034983
71.6889811902722
71.5225372160896
71.3657904649145
71.2261987775923
71.1075073193863
71.0084419378656
70.9274072811108
70.8628504698561
70.8132536455409
70.7771273050848
70.7530043640764
70.7394349018469
70.7349815520734
70.7382155113138
70.747713145378
70.7620531797938
70.779814465913
70.7999445583841
70.8240200527285
70.8547622971872
70.8949095851171
70.9472188230108
71.0144739163139
71.0994963928283
71.2051583626457
71.3343979535702
71.49023741036
71.6758041062938
71.8943547885021
72.1493034668617
72.4439376845812
72.7754023573219
73.1349149646841
73.5131759886626
73.9005187584836
74.286867344515
74.6617202432023
75.0141628133372
75.3329115012759
75.6063925992323
75.8228575528926
75.9705356243427
76.0378230074972
76.0159011792457
75.9092370455555
75.7270033078716
75.4786958033359
75.1739595480749
74.8224393461222
74.4336547034411
74.0169000201815
73.5811698615084
73.1351082115405
72.6869799970818
72.2446628082636
71.8156566095777
71.4070548534002
71.0244020160701
70.6718056731147
70.3532021363366
70.0724516390332
69.8333821082016
69.6398367719571
69.4957260084587
69.4050840842023
69.3721317037355
69.4013456128097
69.4975368804453
69.6659399562095
69.9123151893735
70.2415180771443
70.6468005605825
71.1156654727906
71.6352171215754
72.1919652323297
72.7716375690362
73.359040248166
73.937973939657
74.4912163512102
75.0005826261632
75.4470751800333
75.8111326448822
76.0730026589414
76.2208518307145
76.2630450892812
76.2119307434204
76.0805391090757
75.8822888585969
75.6307327124714
75.3393487394226
75.0213801982933
74.6897241456492
74.3568670493306
74.0348644028097
73.7353607787444
73.4696446760013
73.2453821414683
73.0600452237689
72.9093758245504
72.7892852389138
72.6958181223179
72.6251217351438
72.5734199442778
72.5369915953951
72.5121529783144
72.4952441946851
72.4826193050364
72.4706401825715
72.4556740351175
72.4349653338401
72.4113656597027
72.389936475961
72.3757332807568
72.3738066432274
72.389215825672
72.4270494990201
72.4924536930415
72.5906672672449
72.7270653798746
72.9072116770492
73.1369202317327
73.4223286475415
73.7684241712296
74.1682500934349
74.6088363804293
75.0766729010563
75.5576074596843
76.0367577639466
76.4984777443708
76.9263858677695
77.3034632978291
77.6122287845147
77.8349947753884
77.9542052797228
77.9533604099776
77.8305805047317
77.599808511025
77.2763792784306
76.875896308116
76.413906633863
75.9056382447554
75.3658019949595
74.8084561820816
74.2469293307903
73.6937951479607
73.1608929863679
72.6593872908408
72.1998435699432
71.7882499093393
71.4210234194293
71.0935361662872
70.8014351680331
70.5405976976974
70.3070932658173
70.0971514023906
69.9071345425113
69.733515467743
69.5728588731969
69.4218067237021
69.2770671353404
69.135406573894
68.9936769117786
68.851640710234
68.7141427557014
68.5864746176756
68.4738547221607
68.3814477299973
68.3143916093344
68.2778323559613
68.2769665119308
68.3170918798118
68.4036671332196
68.5423813949575
68.7392353092584
69.0006356993943
69.3332854643006
69.7361397931848
70.197615560979
70.7050508672309
71.2451796230862
71.803964139124
72.3664751155027
72.9168271688395
73.4381798717761
73.9128151377937
74.3223013052279
74.6477520900495
74.8701843762614
74.9720735868366
74.9536673551055
74.8295396417174
74.6154018497585
74.3273489432488
73.9815171706921
73.5938099498417
73.179694806541
72.7540700288101
72.3311967748912
71.9246907225341
71.5475668238136
71.21233114677
70.9311141355351
70.7118437495042
70.5493045448215
70.4359196695186
70.3644286799378
70.3277945913237
70.3191274949314
70.3316231067737
70.358515205222
70.3930413686958
70.4284217591752
70.4578509221202
70.4745026923958
70.4715483091791
70.4423952141148
70.3870410352144
70.3132001528347
70.2290000098171
70.1425067265267
70.0617107771639
69.9945310538561
69.948836898757
69.9324878097427
69.9533908184564
70.0195759999251
70.1392912096447
70.3211179796452
70.5741115816239
70.9056978570845
71.3092530192432
71.7723216702075
72.282045667218
72.8249680066641
73.3868646954399
73.9526243795512
74.50618373836
75.0305284754407
75.5077705807767
75.919312062322
76.2461031866958
76.4691065533295
76.5793969353916
76.5863111943925
76.5018810071517
76.3387453269025
76.1098738289989
75.828327699765
75.5070631889768
75.1587803285775
74.7958167715295
74.4300849087834
74.0730492843785
73.7357407999556
73.4287788382852
73.1582212670232
72.9210776306718
72.71338278362
72.5313284389366
72.3712346465834
72.2295257958917
72.1027107178618
71.9873665602092
71.8801261852645
71.7776689007058
71.6767143777311
71.5740196421699
71.4663790422665
71.3513766876393
71.2324979246646
71.1159461902415
71.007861049037
70.9143113054766
70.8413149868604
70.7948694739155
70.7809917434794
70.8057689399052
70.8754198189203
70.9963680191456
71.1753286286004
71.4194101520925
71.7360511479558
72.1249285813769
72.5742737845686
73.0711194136485
73.6019300828631
74.1524330003176
74.7074964163079
75.2510635046802
75.766151110846
76.2349236531298
76.6388520320536
76.9589653401019
77.1761991826218
77.2757621677605
77.2626534831645
77.1485709222298
76.9459302898031
76.6675660672643
76.3264668483191
75.9355512435887
75.5074878357781
75.0545599830491
74.5885741013189
74.1208085425737
73.6619992950867
73.2223583895072
72.8108143520249
72.4302554168835
72.0810644794804
71.7636526474806
71.478475462203
71.2260393385382
71.0069083248494
70.8217112662144
70.6711494634514
70.5560049312669
70.477149371935
70.4355539965918
70.4323003450429
70.4685859412461
70.5441561813953
70.6552050344812
70.7974714757631
70.9667132908321
71.158671061993
71.3690371609737
71.593429679916
71.82737137951
72.066273856544
72.3054272326799
72.5399957400612
72.7650196243148
72.9754238176895
73.1667582137274
73.3371608177357
73.4853793996809
73.6101842442129
73.7103752775057
73.784789444016
73.8323082692209
73.8518655364077
73.8424549982365
73.8031380373315
73.7330511848052
73.6314134016351
73.4975330253896
73.3314956668472
73.1364516084475
72.9163769553747
72.6752170247052
72.4168626982477
72.1451312133327
71.8637512775229
71.5763523424539
71.2864578186247
70.9974819786546
70.712730279547
70.4354028328455
70.1686007631585
69.9153326110948
69.6782151213938
69.4592033948962
69.2601542209588
69.0829080732902
68.9293010963349
68.8011780323258
68.7004061600191
68.6288903476168
68.5885893573261
68.5815335783642
68.6098444101886
68.6757555698696
68.7816366587588
68.9299775920485
69.120512530152
69.3482568501943
69.6077602027977
69.8934924201628
70.1997943226516
70.5208367707951
70.8505884009533
71.1827927471861
71.5109556624693
71.8283440997193
72.1279973840859
72.4027520871048
72.6452827135046
72.8501133956164
73.0177171529701
73.1498268377422
73.2483138655727
73.3151698104017
73.3524881743482
73.3624466270267
73.3472899746708
73.3093140827262
73.2508509377206
73.174254996605
73.0818909355861
72.9761228767086
72.8590437803431
72.731475537385
72.5938617669783
72.4466490673931
72.2902859858362
72.1252219600388
71.9519063118754
71.7707872950761
71.5823111986209
71.3869215069447
71.1850581176571
70.9771566170745
70.7636476134953
70.5450003449821
70.3241257342318
70.1075337064959
69.9018776818444
69.7136606958132
69.5492630959726
69.4149816677527
69.3170798759636
69.2618492541991
69.255682403244
69.3051585812313
69.4171435018472
69.598905734039
69.858253065413
70.2027450524631
70.6277517512473
71.1193927546129
71.6631288199059
72.2436951859071
72.8448863567673
73.4494028004502
74.0387708863481
74.5933500508426
75.0924423479526
75.5145186538199
75.8375722618318
76.039603960396
76.104961913982
76.0421471226922
75.8666492626333
75.5947744060834
75.2432091916137
74.8286484159742
74.3674950866715
73.8756359675813
73.3682909263716
72.8599310965255
72.364258952487
71.8942426973839
71.4621976569801
71.0794861613925
70.7487677655485
70.4651460115625
70.2237631098265
70.0200337038649
69.8495941105536
69.708259002672
69.5919845653114
69.4968373811966
69.418968479602
69.3545921277317
69.2999690583254
69.2513939171984
69.2051867824199
69.1580251107629
69.1106618092271
69.0665335838199
69.0291083624531
69.0018418921791
68.9881862138205
68.9916015889892
69.0155719194222
69.0636237564138
69.1393490717731
69.246432052833
69.3886802951982
69.5700609020003
69.7947421628213
70.065434249779
70.375947095466
70.7169467237697
71.0788056032859
71.4515285492267
71.8247023858512
72.1874739957697
72.5285599996323
72.836291446371
73.0986965973278
73.3036240809813
73.4389073202798
73.4925691717845
73.4550129440076
73.3298149819422
73.1260711903139
72.8532435082609
72.5209646437142
72.13887729047
71.716498261782
71.2631087935602
70.7876709508981
70.2987690476466
69.8045742656845
69.3128302193104
68.8308570159993
68.3655713751616
67.9232349509002
67.5075842640391
67.1211645092629
66.7664368860544
66.4458118569359
66.1616773198715
65.9164281901968
65.7124976290786
65.5523902548527
65.4387177832122
65.3742376667651
65.3618954498402
65.4048717281379
65.5066348145932
65.6709922215415
65.8988323881803
66.182923412912
66.5147361431682
66.88559412545
67.2865510274032
67.7082889498326
68.1410391396487
68.5745277109165
68.9979498531934
69.3999765938579
69.7687983985304
70.0922096392901
70.3577371305045
70.5532608203857
70.6757262892461
70.7307414067421
70.7246713479892
70.6642169948731
70.5563059259062
70.4079938423558
70.2263784497599
70.0185270818396
69.7914187034696
69.5519003870833
69.3066579362297
69.0622000340863
68.8248551188135
68.6006062653303
68.3922762947115
68.2000898278651
68.0242036572794
67.8647902209832
67.7220387942979
67.5961567439493
67.4873708533435
67.3959287285631
67.3221002954962
67.2661793994899
67.2284855200365
67.2093656142697
67.2091961045046
67.2283849055544
67.2673628914046
67.3265777090742
67.406513862229
67.5076975247827
67.630699599817
67.7761390754074
67.9446867120195
68.1370691007053
68.3540731365914
68.596550958237
68.8654254104965
69.1616960967114
69.4864460955997
69.8406929652078
70.2219083567184
70.6238130838981
71.0396963921141
71.462532547699
71.8849549783805
72.2992445133714
72.6973335907752
73.0708283742241
73.4110506374065
73.7091010018422
73.9559446211824
74.1425196750993
74.2603129356845
74.3088329398968
74.2945690408725
74.2245511887603
74.1060296644942
73.9463746266949
73.7529887902937
73.5332344643038
73.2943755211451
73.043534328679
72.7876632608875
72.5335301158744
72.2877166048582
72.0566062083827
71.8436851913095
71.6470755680267
71.4643532309676
71.2931576113362
71.1311831707649
70.9761725478143
70.8259112576878
70.6782238607824
70.5309715284825
70.382050943339
70.2293944758327
70.0709715815873
69.90479136146
69.7290853283825
69.5462267763673
69.362622958995
69.1847252668187
69.0188546572258
68.871218701557
68.7479396946147
68.6550934572304
68.5987587168092
68.5850772819582
68.6203256399019
68.7109991112155
68.8639103166754
69.0863044791227
69.3851524403537
69.7565526896628
70.1884173760251
70.6681556821089
71.1826408832488
71.7180384794024
72.2596805602194
72.7919936962409
73.2984895463363
73.7618283505663
74.1639652195844
74.4863872900233
74.7104460885074
74.8200313301244
74.8174729095414
74.7144370500969
74.5233844628377
74.2572133828269
73.9289865914039
73.5517005649144
73.1381005828032
72.7005426527579
72.2509008036001
71.8005166970388
71.3601875827436
70.9401882868103
70.5503105697734
70.1968573675417
69.8788566385445
69.5944599397565
69.3419553640262
69.1197530072268
68.9263719854003
68.7604287953553
68.6206268423433
68.5057469837881
68.4146389594247
68.3462135963174
68.2994356926338
68.2733174972114
68.2669125601604
68.2791993215947
68.3088796063135
68.3546260176804
68.4151278909854
68.4890852963321
68.5752035750889
68.6721883838365
68.7787412282263
68.8935554767589
69.0153128512821
69.1426803970461
69.2743079404741
69.4088260473983
69.5448444983737
69.6809513007662
69.8157122595696
69.9476711302827
