Value(μV)
26.7722557512514
62.8323578362489
72.6384530375277
61.8182957089153
47.792244874658
42.5925114491022
44.2662725854366
43.5451361558047
35.9639009174574
25.7593733521132
19.1932772812372
16.9415159313164
14.4528176229659
8.4298899837847
0.66947827774632
-5.01851967002262
-8.06526377841384
-11.7135258450727
-18.6317038352284
-27.5369797659185
-34.988458648413
-39.6686072836673
-43.5982345839513
-49.0848502809526
-55.6934450101204
-61.1173986972203
-64.4955759448329
-67.6400567554025
-72.6151871148573
-78.9447372137913
-84.0823473862973
-86.4360851251025
-87.0238470076333
-87.8181644969379
-89.1822000371889
-89.7824544226902
-88.9058703198733
-87.9290655910505
-88.9153415415093
-92.1637597618584
-95.8820090560636
-98.3393490052707
-99.6899360493411
-101.248116157442
-103.403583898604
-105.034275040667
-105.123314203889
-104.306385705417
-104.219944237629
-105.489136548292
-106.985857504768
-107.280133942392
-106.349548823009
-105.37886959562
-105.075610100932
-104.832157727927
-103.804732464081
-102.345152491295
-101.766842649981
-102.705261586362
-104.242111718256
-104.955695608678
-104.522080480139
-103.817914592734
-103.515525000423
-103.140719787827
-101.850911218596
-99.8018485667339
-98.1513823932665
-97.5968137875838
-97.3582625357
-95.9847116030578
-92.9790053206499
-89.184553600348
-85.537657291158
-81.9310927625942
-77.7068968601404
-73.0379178721396
-69.2186097598517
-67.3340418583394
-66.9742320679544
-66.6652576110353
-65.4814122107001
-63.8060115923275
-62.3846354704251
-61.0692818165306
-58.9861282325691
-55.8694768652019
-52.6887950115934
-50.6248738372031
-49.6716610328936
-48.6730874520554
-46.7361535350057
-44.1855846122992
-41.8922706692162
-39.9912452343834
-37.7695257915052
-34.8508238413799
-31.9942352280634
-30.3180579091056
-29.8991090626403
-29.5913672135709
-28.3294704897483
-26.2337992371678
-24.1260445384723
-22.2037397762317
-19.7300094489287
-16.1772056103152
-12.2341756183554
-9.20460405928227
-7.46825380006072
-5.98091974710213
-3.47650077731897
0.174673597111212
4.16671824047637
8.14112957471334
12.8200838144602
19.0160736674232
26.3766717350882
33.6122525622054
39.9652328528326
45.9923136139879
52.6331928251648
59.8260061065714
66.5147966059643
71.9823808996539
76.6288489524887
81.0860464791094
84.8878098699723
86.6129998767885
85.4580832728218
82.1867146624574
78.118427940952
73.4016858640205
66.8321342966961
57.4972821131497
46.1226778795688
34.361095426975
22.9529849209035
11.1498330101896
-1.89060154145972
-15.5953391387308
-28.2647103470288
-38.6341935276544
-46.6161199622296
-52.4914014675845
-56.0805609923769
-57.3195839716233
-57.3469907426809
-58.1108438538617
-60.4820879674154
-63.3006091328944
-65.0044534694371
-66.0559310039761
-68.8214482186273
-74.4265128562493
-80.1107823099223
-80.5265187535236
-71.9826279649889
-55.2218674527518
-34.1743113934175
-12.825540219601
6.05558292562385
19.7142896560634
24.3946061099881
16.2832796326481
-6.98451416168044
-46.053120457242
-99.7694074837088
-163.31448811485
-226.194789433628
-274.736669834214
-299.511726169077
-299.90453195306
-277.693901759992
-223.925655169667
-115.686937065801
66.6425279416325
314.600964313549
587.609563511977
841.805968318069
1066.96100807997
1289.64496908311
1530.07891585671
1751.82791394648
1861.67630331498
1773.96710155162
1486.97835714887
1098.033800984
736.607837414819
472.195799016348
278.50276162842
81.6641560571143
-158.380372401787
-409.997437314886
-603.619511562932
-696.023512211144
-702.629875782252
-675.571774165886
-658.669754969234
-663.502816997357
-679.456641746882
-695.657831031746
-709.438323578654
-719.145273253696
-717.240366131549
-694.522562362043
-649.765598295586
-592.859014660391
-538.500168611606
-497.792627747556
-474.717332115973
-466.97442693843
-467.309817749287
-464.965138888178
-449.782747617579
-418.237091992332
-375.977801719136
-333.24866467883
-297.021206309774
-267.619784482832
-242.498212655133
-221.58020300333
-207.314791934533
-199.746993397014
-193.403146635426
-180.616221466366
-158.024020079726
-129.192993944473
-100.936073752119
-77.8051909960392
-60.2235543972072
-46.5711910876514
-35.3492047676507
-25.0730674415991
-13.5978081926079
0.783457934526375
17.3937303527406
33.3423981542587
46.3324572132375
56.9477123649331
67.5680581685894
79.2494784478393
90.5183280148862
99.5434331399015
106.763489665995
114.49962382544
124.065583849724
134.147681785441
142.516088735941
148.769182906098
154.551457338071
161.101466096833
167.492734595516
171.91668585564
174.25207733688
176.449280024265
180.168490750402
184.746248980424
188.119755688391
189.452196703816
190.031646865792
191.375015064579
193.163503851638
193.776159706718
192.660011390138
191.313141739566
191.513795529954
193.097302972097
194.186505582335
193.550159462412
192.000852135739
191.079669747121
190.882488039089
189.964037660861
187.420770219273
184.315599303693
182.475711579268
182.19405488974
181.838605895067
179.876559220629
176.672189868226
173.768420394776
171.706565919151
169.329019160022
165.472599038916
160.742803640545
156.942315954438
154.847643710598
153.232696690498
150.412733126757
146.29291799998
142.294642107392
139.365697229789
136.776461581498
133.280031203133
129.015646949482
125.536085024448
123.853062303254
123.056732595013
121.334794498646
118.073081676164
114.333813852742
111.19211216806
108.235827620996
104.248242306861
99.1116628994763
94.2938945018698
91.1560268232588
89.2512228376824
86.857105625011
83.0794679272387
78.8206158541692
75.4239950919511
72.8703053043654
69.9510825319458
66.1666281654856
62.75530930082
61.3786002743609
62.0927021479902
63.2228522809615
63.3079844960683
62.6190989159672
62.366601155602
62.7637047622534
62.5699244241069
60.708263596341
57.7586273142432
55.2847780872819
53.8317914304135
52.2059837463956
48.9717126827512
44.2009820327991
39.2229617504358
34.7931132449461
30.1692898379154
24.3138101884308
17.5564286795743
11.4141178034557
6.72613511882537
2.54412523440453
-2.73251120604108
-9.42278507920422
-16.3155659517112
-22.3569431138661
-27.9856138871926
-34.3453039700914
-41.4723259831525
-47.9504560599008
-52.5812903344353
-55.9148399524175
-59.6199805520815
-64.4857195825951
-69.6206860384489
-73.818340902154
-77.2083047172835
-80.9892316658608
-85.6445739617373
-90.0947630883516
-92.9978299108991
-94.5250018348045
-96.2558577427561
-99.2864496566825
-102.988062282087
-105.986930626168
-108.006345109158
-110.107148971487
-113.040903590931
-115.983281972461
-117.42982429244
-117.140390140415
-116.564903114728
-117.132640603892
-118.585749625441
-119.482756282261
-119.151148378688
-118.489293740055
-118.589164530223
-119.080841007442
-118.488057763316
-116.200251081799
-113.468632087964
-112.058592134629
-112.247278890151
-112.712172303753
-112.377088130137
-111.738976519297
-111.947596748197
-112.942717777564
-113.231632895317
-111.703069518579
-109.120765892776
-107.293304749789
-106.941480908532
-106.992413167579
-106.155228548237
-104.646452267516
-103.780929139254
-104.020152895623
-104.149329260203
-102.761997121851
-100.134403497633
-97.9895707045492
-97.3890493030109
-97.4501510970338
-96.5145581475487
-94.1960783909668
-91.6285246730701
-89.6692028352971
-87.5482010964304
-83.8509609523249
-78.5776058007607
-73.5213843592055
-70.3708142063598
-68.9247493759991
-67.6665107054719
-65.8544839853903
-64.3377097665343
-64.069395170588
-64.4082621557898
-63.6027461693768
-60.9222734138846
-57.6356836648815
-55.4873778808163
-54.602222800651
-53.5131811897486
-51.2157860232318
-48.4946590621066
-46.7705934220712
-46.0549659870915
-44.8202871900181
-42.0431769333851
-38.7260518522488
-36.8100601165786
-36.807550794329
-37.1984160239628
-36.3479921360223
-34.4111208221569
-32.7464712005926
-31.7082331256328
-29.866769490465
-25.8060019854645
-20.1604437663884
-15.1410501543286
-12.0617082600653
-10.0182325883849
-7.36804858952828
-3.97661922970394
-1.22225981403162
0.205402758009448
1.6712856168839
5.16181866357581
10.8623648370193
16.9737760899409
22.0864393213923
27.0065451471137
33.5903572078782
42.0996226317021
50.6057030862011
57.2881868002176
62.5877683302969
68.2834047110461
74.6366376463167
79.4200589865566
80.2813468669659
77.4951256613072
73.5330802085536
69.9671156295124
65.7018287590526
58.7937794003315
49.3855924145573
39.7993770257063
31.6095849020068
23.5862812671811
13.3256825700578
0.507451027431351
-12.5034763665712
-23.5263373838613
-33.0971305081745
-43.2610292527065
-54.2285985855734
-63.4716859375038
-68.6803039360245
-70.7660995536714
-72.7895547435107
-75.9567423486199
-77.8591961104426
-75.4718945525913
-69.3037249175814
-63.4136309272918
-61.0739381956913
-61.2814339672663
-60.210802159404
-55.5882871517456
-48.6536072704789
-41.8016191063857
-35.3661863238377
-27.5225843702052
-17.0272827015244
-5.60058431036475
1.59154008162037
-3.53600583443765
-30.3208863277443
-84.4888668895878
-160.884672997625
-240.722424111903
-300.094061015382
-325.386424672402
-320.115241448468
-292.821127327764
-236.673934543237
-125.488501743179
62.9921596593499
317.596599672382
592.871779458936
845.261989855995
1071.33890097213
1302.49273979566
1552.5543136409
1769.96942404417
1852.3601597725
1723.30988683143
1404.33722890991
1010.87496354394
669.759517450929
430.64549139115
249.213440629394
50.7131999149955
-191.410080533634
-433.562706732503
-607.413906149107
-680.825520901848
-678.083106862845
-651.355417899625
-640.060850244203
-654.408703824023
-685.724251376634
-721.613669425396
-750.475527260785
-760.132956073264
-741.515486583093
-696.473132853409
-638.9060388907
-584.986230952212
-542.08416249623
-508.12421931817
-480.369107109319
-461.420949265917
-454.711731267003
-455.896439087635
-452.285121300333
-432.678105510331
-397.08079440097
-355.631865340692
-318.474725817337
-287.999426057485
-260.808775746266
-234.928748318039
-212.739103865923
-196.871297777603
-185.382689936515
-172.718806375045
-155.135638789311
-133.863564094898
-112.682832340802
-93.6025928061648
-75.9427035954806
-58.9988733585417
-43.8843827356311
-31.8925611578236
-21.8980070435152
-10.756936975761
3.40705432729733
19.1231454908269
33.3627596447095
44.9616533902634
55.4752818968883
66.6739155431644
78.1200543186404
87.9213680557315
95.4892227549418
102.587266804862
111.299367122717
121.557012317194
131.338994792665
139.148803462887
145.548315468471
151.944322039088
158.45017006917
163.716692429775
166.892925179676
169.04385226421
172.098535416977
176.641759813171
181.331889684837
184.595803179051
186.380170036531
187.820840226977
189.480435601099
190.592282530585
190.282745466325
189.065647455351
188.545344972105
189.630779952106
191.507607812677
192.63040842765
192.429048488376
191.61362997832
190.874842669486
189.838863786585
187.682104354369
184.528531626071
181.682615260425
180.27443048108
179.980775073027
179.413589078212
177.659995433273
175.061215049558
172.388999321439
169.65595113119
166.176179325286
161.750840283456
157.32354541852
154.130281300018
152.340274323897
150.871408004334
148.595782935736
145.444501037001
142.144737542437
139.110699663275
136.016231130521
132.55405456043
129.25239674421
127.133286800467
126.538805833635
126.577172114948
125.88774334016
123.794604751291
120.517827994142
116.396757135545
111.32046933051
105.153355836586
98.4962215578425
92.5986128870753
88.3422397359445
85.4810601783016
83.0652432190858
80.5139395669996
78.0336304457902
75.9862107978638
74.18293353841
72.1173817064998
69.826807145469
68.1566134413677
67.9297738227465
68.9618908035346
70.1319733551387
70.4431172763001
69.8111646931949
68.7215329779401
67.3471686101191
65.3408883271122
62.5349700235824
59.5219018481018
57.2160595864552
55.8395449767508
54.5731326809011
52.3177533352971
48.6511526766432
43.8871437187919
38.3427667986967
31.9023700334421
24.4676737143247
16.6053271834257
9.37535753163479
3.40039315030143
-1.70675728625422
-6.82334158901958
-12.3286129744771
-17.8416757115162
-22.9174371254909
-27.6987715718514
-32.6347607247373
-37.6772348962397
-42.1242705242529
-45.456343624141
-48.1621866398393
-51.4621173330235
-56.176998876545
-62.0570825711356
-68.2981359208546
-74.4836941413139
-80.7224810906864
-86.8920414663122
-92.1400229785426
-95.4863052026573
-96.8944906746224
-97.4716156252639
-98.473072939158
-100.254014866551
-102.341003779898
-104.364314515756
-106.550244920108
-109.155967874225
-111.708250009375
-113.213642774484
-113.220644518013
-112.424371510505
-112.001854969605
-112.442179824256
-113.25630710491
-113.811503794132
-114.119923623361
-114.558454409719
-114.989511737709
-114.59871862787
-112.822397411799
-110.233731034729
-108.194457560639
-107.594779803251
-108.153316702114
-109.034278226971
-109.880935078688
-110.913647071279
-112.065716810704
-112.465942642225
-111.140095770635
-108.151085577763
-104.714149178678
-102.051303876556
-100.324232104348
-98.8637195578138
-97.2540154408713
-95.7950579125277
-94.7892463541996
-93.7336072873328
-91.6568803383796
-88.2958773379018
-84.6059320624552
-81.8714898660319
-80.4550629974742
-79.6801042933543
-78.8760727630934
-78.1439346754165
-77.8576560917487
-77.6802257488014
-76.5745462209745
-73.9606738342644
-70.5612287691084
-67.7625980567358
-66.193654780021
-65.2444877445912
-64.0470130861365
-62.5672866350355
-61.3771416446141
-60.4942590812667
-58.9810919292416
-56.0056415270449
-52.0606838605962
-48.6932413631578
-46.9496017099831
-46.4069005847589
-45.9342628444369
-45.117369241562
-44.4761827281385
-44.272307818955
-43.6379782859968
-41.367851280605
-37.4667714741265
-33.4174716700432
-30.6869752798862
-29.2546250793546
-27.9436432043203
-26.0287423449127
-23.9814312391591
-22.426006117404
-20.8192503352704
-17.7841298933551
-12.8196319522693
-7.18020891488092
-2.67562347125321
0.197462699264989
2.50026300668992
5.27481539204311
8.28695132992435
10.7291892519727
12.8383122713014
16.098422201066
21.5771862704924
28.5155341557569
35.0888751473819
40.4550601657397
45.48623115307
51.2829728796474
57.4939634245465
62.7153560449034
66.4249444933922
69.7584816345032
73.9109022929841
78.1802852358607
80.3325501733877
79.0181503974706
75.2230274262787
70.8893734037347
66.5056479563773
60.8275587591222
53.062538548648
44.5078614824732
37.2712094947048
31.6052133600467
25.3958064096437
16.6499550573031
5.86401387282235
-4.78541861342641
-14.321442142085
-24.0095391727835
-35.0730049389234
-46.1679647841708
-54.2795188571027
-58.2300799476372
-60.2653634089684
-63.3664990638164
-67.51290978258
-69.796580362623
-68.5109046428487
-66.0229328488576
-66.4041867699844
-70.3268159621047
-73.4339446562772
-70.3887130894186
-59.9657454494557
-45.4243670445153
-30.3147783107057
-15.2686652379432
0.416816479899893
14.8005925466855
21.9314674315171
14.4005931425601
-13.1973504694527
-62.2522303858353
-128.690169133754
-201.545310516553
-264.650520225967
-304.046305576534
-316.127746073961
-306.104592235506
-274.12961095819
-202.815289076695
-64.6213585709479
151.197788122536
418.217540576221
686.142177273432
921.781677982143
1136.45332705689
1364.15349196685
1604.42635909697
1788.39022405052
1813.29192388402
1624.98623407521
1273.77514056961
886.547385025671
575.15968197876
361.960455006956
186.564645891304
-19.5338818649298
-264.377394860986
-492.943507734818
-642.359179692566
-695.772533288012
-687.913296318431
-668.579690966791
-666.064511843426
-680.570730767394
-701.107071165197
-720.455380214457
-735.287485601977
-739.862536684557
-726.132143971445
-690.634014532345
-638.801911634676
-581.683970789414
-529.856610015273
-490.809756429478
-469.138065626408
-464.941666313355
-470.62623917471
-471.993785449136
-456.470256581752
-422.207559745559
-378.713100173068
-337.892831218133
-304.720414138823
-276.682699150771
-250.750357682618
-228.470041236862
-213.30752295279
-204.49511220071
-195.682304734434
-180.28657370924
-157.228548115952
-130.787551928384
-105.717107933074
-83.7742311389444
-64.7536397525203
-48.9608601187421
-37.0286748913605
-27.6939170967574
-17.5410787337378
-4.03523740377873
11.7253505083828
26.2727453753262
37.7532906383816
47.7536231061497
58.7896770056442
70.8074982775365
81.2150710702141
88.3098126261236
93.5956557490217
100.022503761123
108.48833791402
117.073075270081
123.790930223573
129.115481423789
135.038033725147
142.111745381754
148.541498868673
152.554489985691
154.888057874923
158.080404847656
163.459859485193
169.697052743023
174.664136993023
178.033621301595
181.230993633965
184.990932850874
187.952605365118
188.273086059713
186.154710233962
183.918898563323
183.459474723575
184.31209751692
184.71650238182
184.123841711562
183.805954630635
184.856908975676
186.378795852761
186.375549539539
184.245445983325
181.604628670042
180.333242008537
180.343561920099
179.88761244733
177.88410187508
175.170291986666
173.111695630403
171.536803713747
168.822577942829
164.056860229094
158.423213163659
153.955949796494
151.241319552624
148.976693272986
145.838099881028
142.137488617206
139.153837786682
137.172193444582
134.95002494298
131.361473574441
127.022568300177
123.699251629996
122.218477938418
121.556255748862
120.20541148711
117.95279026351
115.754687052985
114.0145409459
111.710798923063
107.644002445421
102.172580225029
97.07594150246
93.6127468803792
91.2168912202203
88.4498535421134
84.8970531048124
81.5242981210007
79.1182061651606
77.0026337457257
73.8448570734482
69.551360300184
65.7392603390409
64.0701245782555
64.4907002989188
65.532017608511
66.1597742428339
66.7390337283896
67.9603879365749
69.314159965292
69.266869928025
66.9847170158778
63.3566585614248
59.9582808392345
57.2671209355348
54.3657852520031
50.3755460459289
45.6293470799454
41.0543658758186
36.7047246770372
31.5306960039403
24.7763566491278
17.1608194058134
10.2307319937258
4.67329760818726
-0.251196362924844
-5.48456222412784
-10.8406577283259
-15.3501441691158
-18.7748082127147
-22.1861993635525
-26.7402550242624
-32.2166193806669
-37.2712793853405
-41.1330469300703
-44.5736264329941
-48.9162907688141
-54.399145877229
-60.0194494398531
-64.9977456721157
-69.852379611286
-75.6094837031197
-82.1797635093122
-88.0880865383404
-92.0041545719679
-94.1706457161634
-95.9491297812675
-98.1339671984316
-100.227610404925
-101.526985741131
-102.450966680631
-104.247127417841
-107.413991367057
-110.929170094634
-113.354046713363
-114.441291125907
-115.227501901313
-116.581750884006
-118.162127011655
-119.1083847262
-119.441437603832
-120.202884108612
-122.085327573587
-124.368126293465
-125.618517940963
-125.305169929328
-124.269075357682
-123.499937510743
-122.8781636835
-121.533619331915
-119.273016906967
-117.081912396253
-115.94954965909
-115.541579010951
-114.510941073161
-112.109203663708
-109.045352095655
-106.514073914445
-104.702311970528
-102.731511672954
-100.054766878247
-97.3818090216883
-95.8379506130435
-95.4370823921678
-94.9064338778143
-93.1537472650321
-90.5129290931971
-88.1888333153986
-86.6721724211434
-85.210865548408
-82.9807810244496
-80.327715565788
-78.3717448873759
-77.4748208284553
-76.6250668977879
-74.6092962131153
-71.4858425749372
-68.4616460511804
-66.3667530805489
-64.7403856562763
-62.6883957513623
-60.2910953847425
-58.610405589005
-58.2422586825156
-58.3518648238569
-57.5406980636341
-55.4799830431976
-53.2088561796438
-51.7319410870017
-50.7743660121678
-49.3137726581638
-47.1215606186767
-45.1875846881445
-44.3977587571839
-44.2060991764741
-43.1185984444164
-40.4425596107712
-37.0658855728019
-34.2740440513773
-32.171921965421
-29.7734090785108
-26.5875611019468
-23.5239898078075
-21.8381054245832
-21.4678898508432
-20.9810984882284
-19.2672947152474
-16.8042489351659
-14.864024579787
-13.722960527139
-12.2451338346442
-9.381329100994
-5.57167298450098
-2.15362237588494
0.465296981050333
3.42415865418423
7.92345242619056
13.5298915209907
18.4974917868082
21.7346548160299
23.9095044810937
26.3238856286878
29.1153871210868
31.2116537616557
32.1149903421951
33.1272236033998
36.2994718888882
42.3394816971122
50.0641388324807
57.9772518755594
65.835950519861
74.2036115516145
82.7410815776318
89.6749007555527
93.2738394474058
93.4441136923359
91.3739492086707
87.7543760354591
81.9802819530782
73.3660970591576
62.6440267720824
51.6020540788843
41.2509835401048
30.9691151456311
19.8240226364266
8.32987332643053
-1.76896888176261
-9.51508809162269
-15.9554757625908
-22.9530707841388
-31.1155301935066
-39.4654629317982
-47.0998559885432
-54.4625413490008
-62.5082567743064
-70.9822765417996
-78.1585473923798
-82.1809292264335
-81.9085682987633
-76.2586944218013
-63.8982401264281
-45.1766226878873
-24.5739098879647
-9.61572840873512
-5.48550697581553
-10.3453196409328
-17.0084780200141
-19.955185068945
-20.2405364536673
-23.0630397955988
-31.6619528040878
-45.6482002094962
-65.5388076954688
-95.9459515131965
-140.542129456036
-193.335185787163
-238.364105839371
-261.557490162093
-262.162241113141
-248.035031326162
-217.076666820864
-146.95822448068
-10.6306873584678
194.076287868275
434.061725692663
667.559353864232
884.007124443729
1111.57569412264
1375.13277700897
1642.16008454343
1816.51942511004
1799.45975521334
1569.61751148178
1208.21576051241
842.373520346051
554.941061062271
339.317361061098
133.368229947262
-106.795818857636
-363.243086216878
-576.090236694689
-698.09402461066
-729.66476214618
-708.774946650132
-676.197755064361
-652.619412286104
-641.823002327091
-644.607634942638
-662.956747393574
-692.42906806152
-717.073032492512
-717.209677532589
-684.000289427015
-626.36275926848
-563.954890356376
-513.689262616437
-481.531479155142
-463.849079374398
-453.5070335067
-444.317068948717
-432.126053680561
-414.612585117036
-391.310862739345
-363.370977726875
-332.611514762976
-300.821922419392
-270.148990000811
-243.560417218962
-223.695680586736
-210.445643751117
-199.924130814515
-186.73077651133
-167.921691800683
-144.950904673407
-121.77462368103
-101.241939982172
-83.3705424743009
-66.649520307119
-50.2297287901063
-34.4830667766714
-19.8808112963889
-6.1160963368634
7.37651017614941
20.4549524132674
32.3579535199175
42.7843532859643
52.4764716681216
62.4569631842889
72.8603856417161
82.8438498414492
91.662331146469
99.51586472913
107.130052633104
114.7014867379
121.628679798338
127.369560303359
132.273938313798
137.278438019988
142.83624512512
148.437375336487
153.304055009966
157.350085262264
161.200893050524
165.315353879636
169.391708257858
172.822479761151
175.572375380099
178.305603716909
181.57164658814
185.077690770795
187.964102005935
189.726572744014
190.640839937834
191.225799676285
191.513911313042
191.0943951666
189.84018283409
188.319600837673
187.30238551577
186.947337796037
186.676604764051
185.873818898637
184.520989271873
183.014748315312
181.479939790452
179.521159718834
176.737929077106
173.307270600259
169.844784663251
166.69817096003
163.567706359094
159.928690680061
155.707933058488
151.366489619571
147.331943717214
143.555851086893
139.765530937008
136.029906463741
132.832257493381
130.503819238742
128.744942570377
126.8830222211
124.574167767802
122.078410811669
119.788870635356
117.660088168159
115.294651385133
112.55478628857
109.840315934534
107.589673395982
105.598912916904
103.055823169182
99.3218104923114
94.5495863542574
89.4181104104094
84.3655555263207
79.3038504037665
74.1345933627825
69.3183394172707
65.6646755447725
63.5264147944221
62.3865344083433
61.3730040620546
60.0957716273043
58.8268545061828
57.9007369774293
57.1807197216581
56.2788184980711
55.173995045801
54.3327713046176
54.1061440300283
54.1640198243439
53.7198894282076
52.2928403960051
50.0673594924236
47.4456613198766
44.4383707121777
40.7204305029445
36.252573173367
31.5706187144391
27.2567504510371
23.2103805621786
18.670551798588
13.026773220522
6.45289466287426
-0.383886860817086
-7.11449878372508
-13.922109353293
-20.9613736058826
-27.7690461813536
-33.5225088049464
-37.8894299794798
-41.4072989760575
-44.8966767079633
-48.6239429066493
-52.2208193559845
-55.3734540629189
-58.3215998323582
-61.5188563487398
-64.9595507763363
-68.1312908107764
-70.7032871581121
-73.0481174361599
-75.8815818306375
-79.4582048788851
-83.3482060720402
-87.0538753305247
-90.6151835736434
-94.3887635356838
-98.3244847827213
-101.777957091509
-104.197066362639
-105.813201246533
-107.384174570699
-109.247125241579
-110.872708938318
-111.503612139563
-111.064118103143
-110.172239835166
-109.268236625955
-108.055696734833
-106.054132191097
-103.568355408011
-101.752829803713
-101.562428195928
-102.825379372652
-104.559955628808
-106.097209689521
-107.577959814621
-109.259024508886
-110.657984861351
-110.786642787523
-109.263155036429
-106.869202030082
-104.769702041273
-103.322191673837
-101.938450241019
-100.102328053013
-98.1611639634988
-96.845295732755
-96.1900707269347
-95.3589128781564
-93.6783123159633
-91.5465534329808
-89.9703935618953
-89.2519979853268
-88.4925675191953
-86.5678281100655
-83.3465896288462
-79.6240582564666
-75.935035169973
-71.8869558628164
-66.9568901199684
-61.7193786758814
-57.8137986477644
-56.5273764676482
-57.6544011844576
-59.9698120380753
-62.6298565472173
-65.7045280797961
-69.2744258315923
-72.4526636198818
-73.7828273401496
-72.6117619301007
-69.6982529680111
-66.2681649071021
-62.7133970541246
-58.5424898870064
-53.5065214960735
-48.2964658589999
-43.8548811888063
-40.2647752771544
-36.7693392080988
-32.9336266794799
-29.3719714380267
-27.0102371702999
-25.8341169688606
-24.8150895242419
-23.1511945139766
-21.1669637177904
-19.6367195668358
-18.43433832514
-16.3979575856199
-12.7147885961058
-8.02281400910602
-3.66347489060233
0.0767994361749516
4.46686933020418
10.8346604058741
18.9288228102046
27.2357287161955
34.8310732201273
42.3200735679461
50.5938131545502
59.0321840825265
65.599289489961
68.8560391316765
69.3810794926008
68.7985465675369
67.6888139933648
65.0776264880884
60.0708618303956
53.333161684519
46.333218884317
39.3356593314454
30.9153118348104
19.8113943363038
6.75992300337423
-6.16741161853686
-17.9434068640913
-29.5671530932545
-42.3020319550816
-55.4841128498912
-66.8931001687377
-75.336036429927
-82.0716162095634
-89.0740358180971
-96.2311984662926
-101.045803057382
-101.277980943662
-97.3006916791308
-91.4788538591215
-85.7491551992628
-80.5387648145321
-75.8064763880481
-71.9541761006287
-69.0490191261551
-65.9643658530221
-61.5234753348734
-56.3087111385718
-51.798623874383
-47.2021013051298
-39.4028605201828
-29.2542450563368
-28.0515455834923
-53.2608671560605
-112.30708821852
-189.46173420413
-253.162382378863
-281.2670935928
-278.964954158863
-266.90293090397
-248.507777158199
-192.872713413627
-58.2208284204478
163.062587298085
426.415221916939
669.857442367227
870.363402440404
1060.95101944204
1283.30524689818
1519.91638054212
1678.83365433181
1656.91139853758
1428.09750568349
1073.53704739625
723.015771227767
460.629426462479
278.44845367297
112.18242352664
-84.2664578757927
-296.842852300206
-472.145573169303
-569.372406183747
-591.100705790875
-572.310819810974
-549.452745848537
-541.473379733491
-551.872480831793
-577.748535428969
-612.325821707403
-643.128664166839
-655.300335926509
-640.891228807228
-604.575278573839
-558.929126834689
-514.367410753748
-474.40849662068
-439.494658597296
-412.178747103121
-396.075168773637
-390.127563881878
-386.283202532008
-374.608541421317
-350.875843428555
-318.890594607613
-286.016978252315
-257.381146679052
-234.110111297441
-215.262943274998
-199.568827601737
-185.254351957444
-169.870654269647
-151.821679713198
-132.070303291183
-113.396263846758
-97.5183610784017
-83.394668708389
-68.7899172376302
-53.1347685824348
-38.0903697840948
-25.2134047762656
-13.8217641300482
-1.80888377626025
11.7070678528576
25.3241825868887
37.1566445597101
47.0692806537735
56.5006994246168
66.2878103485665
75.4812719389695
82.716971271283
88.2766786627075
94.0730550375565
101.5359737261
110.096092217751
118.129425324693
125.026817425775
131.698402602788
138.995726748789
146.280990717243
152.095415296993
156.036243609342
159.341595588617
163.390886741863
168.05264865802
171.974883442663
174.361835728635
175.898478687104
177.692529858861
179.735520279365
180.96327423325
180.819632166705
180.215313649065
180.568242200176
182.128520162677
183.715113047539
184.148828320972
183.508484991672
182.664053060686
181.847910536894
180.247246541247
177.17343943835
173.230707985442
169.890462946951
167.967116560501
166.912469719527
165.753599401221
164.372343786397
163.460087960665
163.303244858843
163.10939693804
161.825151311776
159.372500594522
156.650075024424
154.275599705746
151.715236828681
147.941606691342
142.756483688081
137.057403325512
131.739075094865
126.720131504274
121.391328672937
115.857829507073
111.25155556408
108.587320936488
107.566515487438
106.854294728924
105.4924657721
103.68268240176
102.033951575496
100.377129768351
97.7798557184701
93.769996594945
89.1394683599833
85.2039680911436
82.3843166502219
79.8596725872237
76.6781180980588
72.8765832871944
69.2242624292761
66.0366648642493
62.6967026563817
58.5337793161879
53.882331702868
49.8816925428237
47.2192435823312
45.3978051013612
43.4270129954538
41.0065912040384
38.684850771663
36.8729558583379
35.1069739028328
32.5860473987503
29.2792013949526
26.0975418714829
23.8353725638486
22.2067820414298
20.2024336817797
17.2899358854399
13.9079600575172
10.6605537955742
7.33868291645021
3.11459912529859
-2.31604340322172
-8.15813998886186
-13.3188097555138
-17.6083502714795
-21.8238765866992
-26.6264881552877
-31.6643459329256
-36.0490237257204
-39.5213199160612
-42.7594981098998
-46.4304499257264
-50.2485468305982
-53.3060580128277
-55.2760111036994
-56.9388867105484
-59.347527215195
-62.6901476228005
-66.2695133524214
-69.5435513377948
-72.8119225251619
-76.6540032711259
-80.9118089103276
-84.6287906673152
-87.0914424284488
-88.6491309652968
-90.2526276903018
-92.3067059467666
-94.3016828526694
-95.6383981866569
-96.4884766153117
-97.5162520547514
-98.8426285735269
-99.6822377267875
-99.220081206387
-97.640397059453
-95.9721675449547
-94.9291569369296
-94.2228668837091
-93.197858353579
-91.8967588053412
-91.1015078086946
-91.2693776452569
-91.7840002408844
-91.5741358352108
-90.3675748822156
-88.9830807511808
-88.2794389658827
-88.110230339593
-87.614136068376
-86.4187249512352
-85.1439368847375
-84.5293509009782
-84.3480201349616
-83.5805210597501
-81.6750406699824
-79.2701847719457
-77.4282574503708
-76.3601045724094
-75.2830986481798
-73.5614853611595
-71.5894505443256
-70.226143977435
-69.5334946644072
-68.5340289622472
-66.3871627005428
-63.4895549609925
-61.0494682923309
-59.6548023681133
-58.6797559651773
-57.2886192739799
-55.6923818903439
-54.963269312064
-55.6109587394245
-56.7941167942616
-57.2563758118628
-56.8203110084579
-56.5021353934271
-57.0778254093513
-57.9575237885988
-57.8443340230617
-56.3295232932896
-54.3413427404462
-52.8587171886687
-51.5856204746292
-49.3496724432983
-45.7218189919345
-41.7207599016769
-38.6364842552736
-36.472072096447
-34.0209362015579
-30.4643242721538
-26.3871331594075
-22.8971691467508
-20.0629146454861
-16.7973630235955
-12.3737962011898
-7.53472279680825
-3.64302517114558
-0.927352828213614
1.87230501881793
5.977096994063
11.1932121028032
16.5349002000636
21.9772165586526
28.8453827461727
38.0992255244718
48.6703725928084
58.1436407663146
65.0873438192501
70.0992864695224
74.2137377233483
76.7854314890426
75.7563802093934
70.12533907646
61.4322321603228
52.1796771824638
43.0562245708838
32.4773418042811
19.0406800882668
3.71527692316764
-11.0801990299159
-24.2655179560164
-37.0340770131439
-50.6950398733941
-64.3765004006287
-75.8023656220551
-84.1979790734917
-91.3537495637665
-99.2259050489692
-107.208747985017
-112.878637131798
-115.350283811839
-116.528231291826
-118.024906121736
-117.532005084102
-109.929379037567
-92.7599777248585
-69.8090801792633
-48.2988163497439
-32.895064174406
-23.5640663803286
-19.1585591170223
-21.1362225675635
-32.0864887378214
-51.5410695677371
-75.9578514720942
-103.856756808344
-138.448217747323
-181.764400382789
-226.273207748146
-256.475739304543
-262.370366289258
-249.499213287666
-229.754659228626
-199.138724209586
-129.161832151297
10.9780000719063
219.449240521276
453.620293598811
665.263338427863
846.830800145912
1036.15092750444
1265.14888341586
1500.51525244763
1642.60492892127
1596.26688541764
1353.14901312559
1006.93141416709
683.67541814039
449.733287086122
278.92802044063
101.361248093433
-119.787081253732
-355.199932745141
-541.217309062643
-635.905014483683
-646.242438320873
-611.949894651666
-573.027713816046
-552.060059490987
-556.014511641219
-582.208525262717
-618.759851006676
-645.723574074635
-644.92101865505
-612.992178712444
-563.832603233108
-516.33212192409
-479.717449181462
-451.232419033076
-426.21975019413
-406.815399952937
-398.736859525926
-401.060941733337
-402.385141095178
-388.846489006576
-355.638570126221
-310.294333808874
-265.685481124957
-230.941381967939
-208.202226292256
-195.047485741456
-187.437793438186
-180.658196589838
-170.197934705883
-154.066400880016
-134.305323538953
-114.945325224766
-97.9051479996581
-81.5093028613691
-63.4773179573611
-44.6144249775586
-28.388113353982
-16.7638441400354
-7.54457092208143
3.31429645804891
17.1693242994779
31.4368809414295
42.9604690337286
51.6525733893792
60.0419009646358
69.7492218889137
79.6419454611815
87.8595687776338
94.7032097198913
102.403975653272
112.106572411635
122.15121685728
129.985068400443
135.220549311138
139.882004530905
145.618050854907
151.601786478389
155.826057953798
157.968187485881
159.969565053386
163.563360601719
168.034689495611
171.168928283177
172.1334082948
172.527759048443
174.288583286881
177.251311420184
179.540236307872
180.1718029915
180.361980894605
181.810022686753
184.267422147925
185.645430715874
184.559830047977
182.014926458274
180.080491288823
179.346712431907
178.468014392379
176.278183126975
173.567130437902
172.119154549074
172.290889720039
172.362481606579
170.564807686603
167.174631564792
164.001185354629
162.010461567595
160.217678563039
157.223450479486
153.253201046358
149.936223964376
148.109380489129
146.579630848146
143.527763897041
138.758601418088
133.895563735898
130.316259569511
127.550517817394
124.177900416501
119.923967335809
116.096788698167
113.761319686534
112.097475290827
109.182458445031
104.256140721985
98.5748476031511
93.7984788101539
90.0487365594493
86.1286125110467
81.4871237832755
77.2166209147445
74.7020742434226
73.7046675407612
72.4543412360275
69.7033635804723
66.1236800122747
63.2937304124146
61.6574430738599
60.1163015659618
57.6911882444571
54.9451924856561
53.2211302222157
52.7030576933118
51.9173482049794
49.4127594586077
45.4861372921148
41.7469234559645
39.1267200283859
36.9253027039361
34.0486284002464
30.6748545515483
28.054680715815
26.6905444836662
25.3532015290149
22.3337271401036
17.3911344108936
11.9239368881442
7.19626972942395
2.94649338173276
-1.87714982444298
-7.36374123168516
-12.3080932315808
-15.7947192665851
-18.5794271628262
-22.3563820738122
-27.7662592375376
-33.6743801036852
-38.6120595344338
-42.4832005809515
-46.3589478066171
-50.7535604790489
-54.7749843846309
-57.3336226905453
-58.7977258026351
-60.826757892999
-64.4813995882645
-68.9813962625242
-72.6647105325467
-74.8735896848653
-76.3682833963942
-77.8868681194314
-78.9221428363244
-78.4307987752635
-76.5366193191439
-74.8938544010048
-75.1042843168997
-77.1400816967426
-79.7239690154864
-82.0697585906156
-84.6703895856999
-88.1846198022136
-92.0589950080945
-94.8628885899139
-95.9663616628587
-96.3165894967658
-97.207260143137
-98.59516048207
-99.150944026263
-97.9674569784585
-95.6807386125258
-93.5683709653776
-91.9004980123931
-89.8092737722503
-86.8730089338157
-84.2380273638714
-83.6269718567673
-85.36840615459
-87.9467025807382
-89.6631029310958
-90.2942423212819
-90.6945616398289
-91.039295577149
-90.2020111458521
-87.2074183305012
-82.8466491078044
-79.2010356198059
-77.5064213200177
-76.9904502183869
-76.1060305079334
-74.5158269225542
-73.2720177089898
-73.0733433918128
-73.0427461971805
-71.759167047379
-69.2283503058964
-67.1387206300702
-66.9349123837471
-68.1062756117666
-68.8522908274499
-68.2329682412528
-67.0347140482896
-66.3333802636312
-65.7897323513509
-64.0309410167578
-60.6421037518674
-57.0767913564144
-55.1566451467382
-54.9964862688244
-54.9851233781269
-53.8095500032814
-51.8989519891047
-50.507433205236
-49.8067566238153
-48.6340723114145
-46.2569196074436
-43.7379278638538
-42.935041801893
-44.2917709972576
-46.2229391148556
-46.8713742212858
-45.9637348075865
-44.4505516133198
-42.6131670536228
-39.3526853213194
-33.7261642726025
-26.6723226312191
-20.4823336486263
-16.5010118615002
-13.9172425859541
-11.1297148940933
-7.83205505910684
-5.07938004538187
-3.35979731323459
-1.41409311158816
2.44431269109782
8.17669946422109
13.9564266786222
18.433835669424
22.4436895831235
27.9052533209739
35.317979618122
43.1206316608332
49.7314412788459
55.5114442602778
61.9584543810344
69.141360618663
74.8424960492727
76.7472371745462
75.0095071617129
71.9178789932119
69.0747203278167
65.6937749717571
60.1135622672593
52.3775505629195
44.3543170319007
37.2050914314831
29.6308750267933
19.3800068376796
6.16313263212999
-7.83316293227088
-20.5335668633339
-32.2492344526936
-44.6187522146597
-57.6666457128834
-69.0513975049591
-76.7262777695749
-81.572782968517
-86.3408675488474
-91.9794604274368
-96.0451441330994
-95.4718176555878
-90.4551604108978
-84.6261778926823
-81.1832580052721
-79.5871277294645
-76.6287941413075
-70.311353386916
-61.8396872816197
-53.7192685060841
-46.6802390461827
-39.0418461375604
-28.9070984611065
-16.919905762242
-7.87284129632523
-10.716067678316
-35.921754243665
-89.0659591072424
-163.390930623711
-238.906414824756
-292.926943456247
-315.204476926796
-311.992531462075
-291.404552509167
-243.486348573264
-139.36101562031
42.9344728961589
289.569023792213
553.005231285792
790.293651679416
1000.80619845756
1219.11139032204
1461.67946255674
1679.14470128284
1770.14218326872
1656.050227657
1352.16315292548
966.935728202111
625.450051577272
383.832575032248
208.122961099807
28.7562887444432
-186.323667718318
-405.81110106071
-570.195444356835
-645.601001708734
-646.652154298848
-617.326572256081
-597.233503595788
-603.550269924522
-633.993171551356
-676.649707217815
-715.580520723145
-734.267908858729
-722.215227284403
-681.66502637792
-626.400570306123
-571.770917991732
-525.37389435693
-487.26480912283
-457.226962364713
-438.653732049164
-433.824931138752
-436.99439300575
-435.123133466217
-417.175938327962
-382.684249678805
-340.931151348162
-302.352872375778
-271.311657781402
-246.27478957512
-224.656015355129
-205.746201698792
-189.455885677379
-174.275931324435
-157.901798862063
-139.52788460998
-120.454162313632
-102.205266112742
-84.8247158913533
-67.5652466671482
-50.7189421156704
-35.7585617561498
-23.4001801380363
-12.2108347719141
0.17217703757872
14.538805091247
29.3619475776909
42.6441309759464
53.9816196521572
64.3945568255899
74.4692573534214
83.4424948886674
90.4167353144435
95.9880927084575
102.037332567031
109.862465044021
118.955156152561
127.829187545973
135.698099761558
142.895966437963
149.766646350287
155.761084708298
160.055129454706
162.840186324622
165.484057638549
169.232431649039
174.013238536838
178.740217605241
182.589708202969
185.602727535653
188.025680355646
189.522041204456
189.469722080642
187.981306278903
186.221656298286
185.468829179536
185.988986238705
187.030520264429
187.820246361016
188.256027188394
188.538819535418
188.453008781416
187.41888276195
185.310852637661
182.923915178898
181.368235828859
181.037872515972
181.338299214701
181.399621907154
180.829744919904
179.663190389971
177.803671600134
174.885989058608
170.811805335702
166.212231626867
162.118708942884
159.128774981354
156.996257228123
155.037990305108
152.774475436531
150.06767870535
146.797407801466
142.725061816849
137.837718818609
132.694533274187
128.197869357511
124.926744154034
122.738069359881
121.014550196422
119.170452671211
116.824868509215
113.621264810335
109.18367276634
103.451914212483
97.0013899996561
90.8378645401935
85.7610666449753
81.9271845889621
79.0028300382399
76.6069123043745
74.4840763845997
72.3290683901277
69.7013720180647
66.3243619780706
62.467431692331
58.8911059209062
56.3129423422623
54.915576675832
54.3495534889638
54.0973151124326
53.7232891025434
52.8267925278607
50.9775603826362
47.9055258686061
43.7826967347032
39.2092694053693
34.8304210400429
30.94831098055
27.4761893336547
24.1534254113701
20.686742493086
16.7140521818784
11.8281602023485
5.83509715177452
-0.966693638584125
-7.850699258277
-14.0883715661255
-19.3380727436647
-23.6565204418662
-27.2496361250413
-30.3355841578923
-33.2326561456247
-36.3985273353287
-40.1878698900434
-44.5160951859316
-48.8329648038112
-52.4974363654267
-55.1915797433114
-56.9987545368971
-58.196754558388
-59.1077111339303
-60.1429523552048
-61.8128891402423
-64.4852785700659
-68.0646136677607
-71.9760187936159
-75.5367445070187
-78.3554820536341
-80.3961407965108
-81.7789819505521
-82.6786193544127
-83.439542443927
-84.622481877834
-86.7196845374135
-89.7374675160113
-93.1144265624781
-96.1148719926472
-98.2994410825925
-99.6200218190884
-100.180551329381
-100.089920809536
-99.6063274808074
-99.2702465733167
-99.6652592460976
-100.945420429754
-102.654219430365
-104.078879911245
-104.766137919849
-104.669774726017
-103.903296949531
-102.55497489959
-100.843070486293
-99.3136569637347
-98.6339786059563
-99.0593153328059
-100.156669945205
-101.139454409555
-101.45596142687
-100.999135204738
-99.8283130160152
-97.9172839287388
-95.3318428459239
-92.5536915122584
-90.3641766417813
-89.2417866652887
-88.9178967890321
-88.629689727662
-87.7923541179071
-86.3298508235223
-84.3856060568126
-81.9418806645585
-78.9346519861608
-75.6900967575076
-72.9755669297512
-71.4135909409135
-70.8778029359124
-70.6018987104614
-69.8895937034127
-68.594799268526
-66.8873303915008
-64.7676941597865
-62.0780176415518
-58.9991015369339
-56.2639468957055
-54.6230053561449
-54.1021205809159
-53.9532392397969
-53.381309854747
-52.1772385607796
-50.5516077617579
-48.5345942715576
-45.8567184719974
-42.5104642172095
-39.1772507031911
-36.7902644401969
-35.634196773293
-35.0654991631572
-34.2180123391636
-32.8357793784305
-31.248590234511
-29.6522607657209
-27.7574542143126
-25.3206141177979
-22.8025411284369
-21.1399395493328
-20.7653116735035
-21.0633195709777
-20.9714209371382
-19.9994544168335
-18.4328252514689
-16.5824909999002
-14.2002922045953
-10.908950173393
-7.05190644893503
-3.70201658657481
-1.62993400091894
-0.450335178713566
0.972231779816525
3.34794843107726
6.46699672008382
9.9073890711927
13.8726585540299
18.9527951777647
25.1156681213715
31.3586903362266
36.6317414936524
40.935776360077
45.2002586415181
50.0999763497858
55.3384787732654
60.2646532167882
64.8724623011947
69.7191173195866
74.8151497236096
79.0464562638
81.0803943660619
80.7162976401978
78.9431672195408
76.5936526178818
73.3304691499655
68.2749470837638
61.3910201986257
53.7007202194966
45.9768480428412
37.6705234082015
27.6051884839635
15.6233353695733
3.04243882568915
-8.68211601491021
-19.3014839704611
-29.3648836383833
-38.764044083311
-46.4590586976015
-51.973935241
-56.5979302744775
-62.3359754715818
-69.6612623813334
-77.0126724843324
-82.8849797427699
-87.7724660829673
-93.0550037621054
-97.8511899150956
-97.9591314852311
-88.9258071204299
-70.2824144348132
-46.375776705183
-23.1911431096764
-5.04685308954305
5.67578519268028
7.18679226873462
-1.44411530304478
-18.7307049970337
-41.6208269574113
-69.6013787929028
-106.843667485911
-157.253444300967
-215.998675924425
-268.050795180986
-298.200017324998
-302.346003471569
-285.015901284804
-242.985111900982
-154.672043794268
6.257805960967
241.422284060783
514.647718969603
776.582455414736
1007.36974664747
1230.71465986807
1475.80858273475
1719.80670867521
1873.47349244422
1837.44705279444
1585.66611614244
1198.30304644842
808.701306161776
508.815071435723
296.100688993655
103.710129471309
-122.264548516436
-372.41493945199
-589.49800525089
-723.199729411934
-768.084090270781
-756.829395680092
-728.148208260352
-705.097799807878
-696.539371641798
-706.367485696606
-733.452146204791
-765.029542976631
-778.529173247977
-756.477565757458
-701.141245193701
-633.376208246122
-576.404959020538
-540.396440493791
-520.944178881766
-508.863604603257
-498.77015702866
-489.053549672786
-477.286760449668
-458.868564813032
-430.491219186392
-393.461281998662
-352.845615434767
-314.015572474413
-280.528262444756
-254.279991488895
-235.704271086849
-222.858136086719
-211.256923842964
-196.266883361427
-176.446087832521
-154.267781562638
-133.267456599112
-114.741958751408
-97.4702807886775
-80.1171259320191
-62.9368833565127
-46.8410165406288
-31.600703260642
-15.9383095003605
0.582855336305343
16.5857319470933
30.3495275128068
41.9014411924469
52.972136566148
64.8276329175281
76.7824497575277
87.2983051314648
96.1752195288485
104.931530550102
114.87404219551
125.384196922613
134.636092003114
141.785508439328
147.814504837558
154.049440901405
160.40133114026
165.634073637589
169.209612820398
172.186913486401
175.95804725684
180.488302996643
184.368028911335
186.592419382644
187.755924532446
189.179634197746
191.209605598268
192.932891069187
193.601108424157
193.78753986778
194.711771962851
196.634264596524
198.451696888717
199.024771147752
198.506375479541
197.988909079833
198.023213925989
197.992170249582
197.104641321353
195.595831360245
194.482060357177
194.18804347015
193.884762131567
192.436607719144
189.736134374205
186.717418575839
184.094354188095
181.515904714445
178.211460139582
174.190355161735
170.345044117856
167.304305029138
164.567305419739
161.085609937369
156.554905546197
151.7618381286
147.587336831857
144.003923791824
140.340761108726
136.368360995163
132.69078680242
129.911679308576
127.71159279257
125.101111496205
121.552378937026
117.557168353227
113.930304927303
110.816373318687
107.686171759018
104.234536304226
100.887516175268
98.1978078500678
95.9537748436654
93.2521279138802
89.5133166508213
85.1560645262893
81.081519536243
77.6667440765224
74.5708787408432
71.5298518687021
68.9812657595321
67.6053092812168
67.3555697111268
67.2882175652528
66.4868865125015
64.9541154945819
63.3795740779819
62.1419426506971
60.8507421513384
58.963575442884
56.5774517180412
54.293945021773
52.3284507662081
50.0613839816749
46.6548228740246
41.9633998949308
36.6019185160098
31.1496039944434
25.5660443491594
19.5353511962226
13.1749422203066
7.07988289145698
1.62151575917292
-3.53285262799518
-8.99099876762321
-14.8332800963143
-20.4841486376913
-25.4145925838615
-29.7399736508141
-33.9483132053171
-38.18349262186
-42.1006866691239
-45.505922643058
-48.8834635397442
-53.0185846339162
-58.1240750231587
-63.5722024199904
-68.5766760202821
-72.953510261422
-77.0252218879717
-80.8953527466766
-84.1497913416458
-86.4297253912126
-88.096943224013
-90.0320498251416
-92.7325109881688
-95.8182282987417
-98.5489425807691
-100.667372881371
-102.505389819194
-104.308487995823
-105.773956870757
-106.473801511278
-106.594362406418
-106.947607689495
-108.148979208097
-109.967190738015
-111.650326965452
-112.781838879682
-113.573828028138
-114.3019224997
-114.739363991834
-114.412169166553
-113.338447210242
-112.211296641381
-111.69851941089
-111.714149919837
-111.579906203168
-110.84701062346
-109.717336191595
-108.58445330324
-107.408514050393
-105.83037227823
-103.871514195138
-102.208545701786
-101.541081118817
-101.796304598685
-102.179196695528
-102.003026594547
-101.242786585349
-100.168316876103
-98.6708336589315
-96.2941960322202
-92.9761411503058
-89.4608724085938
-86.7075168977045
-84.9441992741365
-83.5335012584813
-81.7986522377969
-79.7369832350774
-77.7424658706731
-75.8124274394226
-73.4062057654147
-70.2126855102983
-66.7896897751011
-64.1277515571367
-62.5917713244927
-61.5520881545951
-60.1609943054295
-58.2664900938335
-56.3181685045139
-54.4925007987466
-52.3097226195055
-49.3231129268079
-45.9557163958175
-43.2803503276457
-41.9051944288958
-41.3386918661846
-40.6293905374944
-39.4442004107687
-38.2181108814097
-37.2824694681473
-36.2494334981038
-34.5520444310024
-32.4165108006725
-30.8770813933382
-30.6760835245558
-31.4016077797386
-31.9629371095341
-31.7835751097359
-31.1826156510114
-30.539745733084
-29.4932176821702
-27.3621372393963
-24.2650444365421
-21.3521222641895
-19.6670302648094
-18.9981024044082
-18.1846017388329
-16.4950884296811
-14.3109489188622
-12.2927899251017
-10.2543918568989
-7.3732519592612
-3.53658241152556
0.0156326088467882
1.78141805225346
1.58240784633359
0.67402982133958
0.257247854429497
0.311378077427037
0.199391633670523
0.108758897661666
1.25515201935164
4.44707114405705
8.89143642506583
12.9295389453684
15.8912565106553
18.7294301708233
22.626924983178
27.4010978877338
31.7853536868715
35.1655463816601
38.3915348625454
42.5113706155222
47.1054318549831
50.5466410276993
52.0249264763295
52.7848249910652
54.9363200468977
59.2916061088298
64.9079094492599
70.7423023771937
77.0452732677133
84.5359237756171
92.477577353344
98.3886649495002
100.051374918572
97.4204336265973
92.0826749884346
85.0787131768099
75.9912996925687
64.4146702156172
51.6215508603403
39.9052144686681
30.2389508537244
21.3370165097369
11.5239019485926
1.11307277667765
-7.80125949738274
-13.9314742328618
-18.437381987448
-23.5211260200795
-29.8772201014102
-36.3610205507175
-42.1886423241011
-48.5079326545338
-57.0033801898143
-67.2577891274661
-76.3789795275853
-81.4140125383164
-81.3641929288795
-76.3505761109245
-65.7389796186511
-48.7825273698203
-27.7095709950557
-8.88287921678549
0.993343070151397
0.519237687864845
-5.20310408588028
-9.73719013934101
-11.6863187189864
-15.9303918988753
-29.3396428675847
-56.0384006830029
-95.9068860642602
-144.997002774416
-195.56844498769
-237.19275343399
-261.31533240078
-265.973383825291
-252.935581485215
-216.320031830709
-135.195047365
15.4158008670345
239.311782601457
505.400952487924
766.858974145452
1000.54356116379
1224.86856640329
1468.46207986951
1713.78259816365
1876.2100367754
1853.67077074443
1611.66538406121
1224.6060474645
828.061158279327
520.064486786562
299.733698418466
95.7544617419616
-148.767106075158
-418.294851309977
-643.242672361563
-766.837674478941
-791.536518984391
-766.877335240874
-742.38508106706
-735.898855592959
-739.847927392373
-745.213414424464
-752.302592938049
-762.215570282429
-767.299317006425
-755.487063792684
-722.436240632441
-675.734869387282
-627.093071002358
-583.434069259872
-546.738961557998
-519.110413325145
-503.067748127227
-495.681334517943
-485.905425431995
-461.885354523654
-421.966502145939
-376.869316619551
-339.812528775724
-315.089939852836
-296.933677819151
-278.186170384351
-257.68303196019
-238.614281664692
-221.977703562835
-204.392504166467
-182.585914449132
-157.898522550569
-134.733800890206
-115.321202470007
-97.8313530842884
-79.9426627216451
-62.549905108269
-48.4078914744562
-37.6609482129632
-26.5838590411943
-11.5999135763483
6.4666333748311
23.4032669471017
36.6065920022347
47.7145385301006
59.7390733880281
72.7194144302253
83.6447936704807
90.6195428656933
95.6798734012209
102.5442176276
112.244488807019
122.249077111242
130.010639649279
136.152695228496
143.209973873124
151.831721350816
159.645623446235
164.325303113949
166.773596344719
170.174999251669
176.104314482501
182.696240883283
187.127611196809
189.065633763471
190.641043334183
193.211067619117
195.3778194042
194.935469651051
192.125957342284
189.822634150451
190.300129954553
192.706359451296
194.393242212156
194.240265294042
193.647226325578
194.105628669936
194.797415087086
193.526825570645
189.759735576764
185.688359334428
183.815473393623
184.111179607053
184.327431087714
182.923721811304
180.74240278072
179.378502011662
178.62204214382
176.519686220347
172.025654591959
166.695029677107
163.08271909192
161.824933461295
161.096305578266
159.027816235698
155.869203063971
153.160206731598
151.212647249085
148.415729183171
143.371521711501
137.024510153829
131.881815790345
129.212438929177
127.754259131431
125.487698221077
122.080414977849
118.859261410442
116.533074286483
113.867422370594
109.180928508122
102.710302302843
96.6676172657528
92.8040277498635
90.5434366643793
87.9917232020646
84.3977086165683
80.8542813899819
78.4704334383511
76.6162342950498
73.6801919225173
69.3540950949036
65.3600622781991
63.5492569595729
63.7540458574139
64.1025119748829
63.297589272922
61.8691151911179
60.8816011628509
60.0067308039875
57.6804753390182
53.2096388623739
48.0011756862915
44.1619881698993
42.1530752857417
40.440731041566
37.5075097478628
33.5681008713579
29.8334896896766
26.4726686634497
22.135006470356
15.7628110962215
8.29873837961454
1.94033144217169
-2.22868396800261
-5.27662758423011
-8.89743327971113
-13.375783312217
-17.6477038420685
-21.2006982062537
-25.1134131671358
-30.7346574106343
-37.7206531618291
-44.091668684368
-48.3668276618264
-51.1182020834606
-54.0329793427841
-57.7914649269562
-61.5236314009717
-64.4219121985735
-67.1987565009545
-71.3182042096991
-76.9596762428416
-82.4462842699308
-86.0132288330866
-87.7398694608973
-89.2422331531581
-91.6151895242478
-94.3192487636489
-96.3546880982631
-97.9919568648544
-100.616106958931
-104.815997472397
-109.266428124853
-111.985852080028
-112.463233473545
-112.006454973595
-111.968948371228
-112.218589349911
-111.777403364593
-110.610655341843
-110.01868047976
-110.999814108788
-112.739095626174
-113.3064343942
-111.785222251336
-109.173523292613
-106.988493673523
-105.465179203987
-103.677194065472
-101.277449271196
-99.3780011014784
-99.2601492907645
-100.565233130565
-101.41014617229
-100.407065762764
-98.0771487956717
-95.9224047776242
-94.4491128631552
-92.7376166235702
-90.0319046480122
-87.1076879877095
-85.4766943137289
-85.4040674833443
-85.375539750331
-83.8196061232783
-80.9501577093739
-78.4142977114865
-77.2581949443201
-76.8562121028621
-76.1041429312281
-75.1570582163313
-75.2928324097928
-77.0196523584086
-78.9509952453055
-79.0447383655227
-76.7407139530953
-73.3510254342678
-70.3057307093868
-67.5793094050451
-64.268132105304
-60.3754801768907
-57.2647256629866
-56.0622330514616
-56.0907256595606
-55.4603412641813
-53.1573826978638
-50.021417643062
-47.4552300159701
-45.6433548552573
-43.6053411896124
-40.8914690792585
-38.5148298594976
-37.7520629899922
-38.346487326813
-38.5341129967697
-36.9723754824539
-34.1590065474667
-31.5819370352232
-29.7879024361858
-27.9138959341348
-25.2152877326731
-22.4313298683612
-21.0408434159736
-21.3069128308783
-21.7046859301447
-20.5858686392643
-18.01951212948
-15.5015763339573
-13.9868161311129
-12.8406385482278
-11.0230783357764
-8.81887157530727
-7.69631683979983
-8.38921671741746
-9.72166504220072
-9.79889175854242
-8.11765795092028
-5.94211791604704
-4.54268153672079
-3.64794270375658
-2.09929758449912
0.273607378262361
2.17026487002788
2.46726305541446
1.8423901591875
2.16860906984222
4.36484252115634
7.42155369294284
9.79704544091279
11.3019460939396
13.0120638199726
15.4240835681627
17.4351359280156
17.6285749758491
16.2285536865121
15.09985585914
15.673758839755
17.4012439944092
18.6710884016208
18.9302136218533
19.2150714246595
20.4616452845032
21.9476211396017
22.0620887532053
20.4795356880957
18.8655667888117
19.0858506644616
21.1422429002237
23.4371816204961
24.9450631871594
26.4096488288304
29.0296913699426
32.4673179118309
34.9454128865694
35.4311751725462
35.0794544881625
35.9906049061632
38.811769871075
42.221775156861
44.8854135597814
47.256566995998
50.8644093061821
56.0859202841352
61.430377349002
65.353513383649
68.2345966123123
71.8827946758295
77.1694507563431
82.8501293515309
87.0748324973953
89.5521607782415
91.5135677279552
93.6011620191876
94.6053545826333
92.8494066862084
88.4365703100307
83.3297482396145
79.0437253233856
74.9024184842325
69.1112064988678
61.2004724203498
52.6021375897007
44.633287245832
36.651121135159
26.9373996277163
15.2039097491365
3.37795926034656
-6.43839667598533
-14.1860684329748
-21.3641127928957
-28.6140973896149
-34.7688116890068
-38.7462624371052
-41.671513730252
-46.0996437412187
-53.0653301176586
-60.7786189348501
-66.7892178650327
-70.8123293392265
-74.3663589030788
-77.5573008811789
-77.3362800013739
-69.9218187817098
-54.7602713145058
-35.3708157257944
-16.3962008126769
-0.817119206901033
9.6375927871873
12.8110301224207
6.76612407513084
-7.93191219894975
-28.8155879697993
-56.0799568975499
-95.0602180728893
-150.516160147233
-216.653783182997
-275.203183520018
-307.394015181361
-308.630619381779
-287.727288996282
-248.216477212694
-172.52515521036
-31.7180785060471
183.809380573422
445.50963709214
705.880555275138
940.951344258679
1169.57042362597
1420.86889956983
1676.91201090796
1852.586403641
1845.74073357154
1620.63477020339
1247.86224237536
859.038195915154
553.299514520317
337.31760502126
147.120785313987
-76.632196340796
-332.302339012315
-564.991789569535
-719.205790168541
-781.694796012898
-781.060088737619
-757.387771860483
-737.071378107067
-730.304923406604
-740.078446019369
-764.903608831559
-793.95827989399
-807.358122622447
-788.145725680083
-736.173434050109
-669.236071026209
-609.664045526105
-569.446112442733
-546.866574905377
-534.254500994029
-526.042904553819
-519.492806229955
-510.894378424623
-494.554416840455
-466.545994311623
-428.392782995443
-386.151807610175
-346.198158364623
-312.32015526661
-285.935500649838
-267.059552116292
-253.817851080472
-241.835415431924
-226.086672216951
-204.586740692023
-180.035414120843
-157.081356997082
-137.82831533368
-120.401175919913
-101.885505835447
-81.9275866657898
-62.8223367690953
-46.4077267124586
-31.8587093888498
-17.0102576885002
-1.2763112787602
13.612631826301
25.8551870946971
35.8261082601489
45.526914754515
56.1233998618676
66.7959593535425
76.2523898266361
84.7637832703413
94.0043154249255
104.917056914851
116.388454044499
126.431597063532
134.358115756073
141.234085710645
148.195701196741
154.913534466671
160.172009184071
163.704035981713
166.801059669415
170.851355611649
175.661567589894
179.694080286824
181.903308137511
182.863297924438
183.860178547225
185.234820357753
186.133150404285
185.909393134001
185.270489996912
185.620490246914
187.418706816211
189.635548052505
190.974005327654
191.295815591941
191.506719809837
192.179688637375
192.771193933137
192.418600214806
191.198932845219
190.142083672748
189.948139710552
190.062451387025
189.300513637422
187.218825062064
184.500747646546
181.940623333931
179.418440431887
176.210144010764
172.176922559222
168.203102241411
165.239971346656
163.15814282652
160.895427267322
157.735060435411
154.106098678903
150.929820527606
148.410144788966
145.849228176323
142.693722758194
139.392333084167
136.890040939055
135.373787113365
133.885689762702
131.329939636395
127.629177762077
123.617555489376
119.88757500404
116.114628075491
111.695013780411
106.783348000697
102.297893603742
98.8372557008072
95.9043114682869
92.4606257357248
88.1271770613369
83.5317285263417
79.4283329362613
75.7938599773859
72.079039787914
68.2190942613339
64.9801433936144
63.0958219830961
62.2788360567174
61.4172621117899
59.7634572003376
57.6436511113902
55.8331941299818
54.4589151622675
52.870720110031
50.6166932757644
48.1780522706201
46.4177883741408
45.3933004210171
44.0625552829754
41.3106889539799
37.0535377786415
32.0936035882628
27.0070164054894
21.542636190866
15.2730340278128
8.55150694438566
2.41859840149234
-2.50285462096625
-6.72464722075924
-11.2881525812739
-16.5888941786317
-22.0876509460977
-27.1836551242583
-32.0236186943375
-37.1660798237888
-42.5957122279616
-47.4823615897353
-51.100636894606
-53.7597126813799
-56.5233893945123
-60.044384119969
-63.9751701271704
-67.6515973184941
-71.0803551137559
-74.8909545052581
-79.3249814444276
-83.6567573329941
-86.9030798147945
-88.9706318690827
-90.7637044773523
-93.08617874234
-95.723748273806
-97.8502548229268
-99.1741410271389
-100.291622105061
-101.790617321532
-103.332566305462
-103.996126930502
-103.500350572778
-102.723054293196
-102.79644668463
-103.889762255455
-105.191088126436
-106.043413248061
-106.708123063854
-107.76434892082
-108.996152076964
-109.332948539004
-108.031656426949
-105.620575647222
-103.372086399248
-101.940111294409
-100.858346165376
-99.4602557991082
-97.9366462530622
-97.1070244282445
-97.2212989767951
-97.4278765338332
-96.6914727557812
-95.0289422873393
-93.4756395934401
-92.8145661621443
-92.6859355853401
-92.1751649614835
-91.042262392116
-89.9480261565112
-89.4020432739636
-88.8808787370875
-87.35454541513
-84.5869781306356
-81.518672543998
-79.207696312636
-77.6724492438348
-76.0901766742152
-74.0177132393637
-71.9783225330934
-70.6446662498736
-69.756333909486
-68.2926627034656
-65.7518119902503
-62.8762067613924
-60.8380925178662
-59.8964198745373
-59.2255915723709
-58.0762343057978
-56.6872766050884
-55.7350860567633
-55.0979573095391
-53.6769769093817
-50.6353250652737
-46.499904088124
-42.6706535048441
-39.9182756092689
-37.7599795545765
-35.446996127967
-33.1820328919005
-31.9020760535987
-31.9006399420323
-32.1622357661181
-31.3952630584501
-29.5087608451416
-27.6388769752432
-26.6761241804187
-26.1820595021599
-25.0663178915333
-23.0855370287739
-21.1565142649955
-20.0627865856676
-19.290092905525
-17.5924484631913
-14.6140529355323
-11.4636513192152
-9.4623591456112
-8.65097724428822
-7.94712997118006
-6.67965756620403
-5.43968518009263
-5.12962606293966
-5.51595446474805
-5.28216343007466
-3.60026319143538
-1.19707116290424
0.497826501984569
1.0478867943511
1.38073537567554
2.41662133264797
3.82523002182676
4.57950081208716
4.54488518899719
4.91627934186935
6.81649486416626
9.83606071292838
12.4421572537195
13.7713292953786
14.5096814651235
15.7629224637937
17.4667829065152
18.4836324548586
18.2642914407812
17.8201950833684
18.6106363055557
20.7127298775191
22.6567108215276
23.1851774121949
22.6899384701555
22.5013324741243
23.0258011205481
23.2362375170904
22.2059852500607
20.6229577004586
20.1880410548275
21.5810715044177
23.6144636846721
24.6969289301739
24.7277970242351
24.9874680514465
26.2351059758513
27.5897321691361
27.7155392207923
26.7350038256617
26.268853061906
27.4534157388083
29.4959638803091
30.6811373980092
30.5385754760153
30.3447765767109
31.3279859811169
32.9969549652335
33.8617898694549
33.613905119444
33.8196314183503
36.0877091505582
40.0357812411529
43.7361494519554
46.1150975096363
48.1996051365592
51.592154012138
56.2058922781438
60.2922073259666
62.7678333202761
64.7595759910777
68.2485963334968
73.5075104131028
78.6640915968973
81.9764612579546
83.8467617063416
85.9427453046308
88.6281467043987
90.1627038185868
88.788198306873
84.9417913503442
80.6042566136443
76.5832629962185
71.3405979621452
62.998370594585
51.9365056117522
40.5329916128585
30.3343030158777
20.3788651175624
8.92393549578649
-3.69256472068379
-14.9080168477315
-22.8304140233204
-28.4633237448045
-34.3832981130225
-41.6343835135459
-48.8975649711051
-54.870488650814
-60.448062007955
-67.6094756040128
-76.4899379416771
-84.6857855126196
-89.7759888757481
-91.4828640666295
-90.3068903613362
-84.6420215753814
-71.2076275242666
-49.6139567774719
-25.762756431023
-8.92414977303788
-4.48744358025335
-9.93896233224704
-18.3393405788838
-25.2245310861129
-31.6924107930481
-41.94805207423
-59.9941434825674
-89.0608815658318
-131.344560109457
-184.566457444356
-238.347570703927
-277.544213320549
-292.599255808225
-285.559261357565
-261.425082013646
-211.685490870123
-111.035444699464
61.9951847125985
298.384980522318
557.730941602796
801.473006301878
1027.97887580083
1266.57154456531
1527.1990227711
1755.32072100903
1847.64763894173
1728.05533526231
1417.83004946741
1030.64235452736
690.47535402901
444.523648625201
247.925525737496
27.9206717593217
-238.222941104453
-502.868673687908
-694.886360180673
-780.870154640873
-784.411358892212
-756.507565955595
-735.230921563268
-731.141770127259
-739.456030645486
-754.830844576498
-772.659461896396
-783.627885337702
-775.639009637756
-743.781341842807
-695.942923946588
-646.333540556941
-604.154942439636
-569.949130521434
-541.672841180226
-520.605886267802
-508.887705207639
-502.634366750872
-491.043311987965
-464.56096366839
-423.691867650239
-378.744706621855
-340.942252654441
-314.340864770933
-295.753928685923
-280.347090845829
-265.569528893197
-250.307952224753
-232.722311532954
-210.776990075529
-184.617087911376
-157.048616649719
-131.162765528906
-108.179473923879
-88.0929870965048
-71.5598327787905
-59.6865567240956
-51.5771766360373
-43.247686215984
-30.3742068680648
-12.4090483371112
6.71064912001864
22.402864172988
33.6790116517216
43.2213656476814
53.702060239668
64.9447346225472
74.98869129382
83.1151694655244
90.7829457375674
99.5178772574229
108.792794884204
116.719087302832
122.53542756287
127.579714749729
133.542097280887
140.364266738739
146.495652284903
151.046520673086
154.948140677317
159.649075800139
165.143391733267
169.935242919304
172.943615736147
174.837478888596
177.113645512642
180.198603761388
183.053291298237
184.707717103914
185.630815086428
187.134075076389
189.634718359499
192.076001140458
193.243281030492
193.238506834902
193.218449581112
193.79735969519
194.221328665054
193.355204986431
191.149741534609
188.681506895103
186.763939396565
184.974610071937
182.350053677793
178.807470544084
175.436050966348
173.297878501292
172.287431180475
171.460153982866
170.311634026297
169.311376345441
169.045775562119
169.161360764153
168.527228685886
166.421536770145
163.234581502449
159.84413969002
156.530292802767
152.823126844916
148.397494915474
143.767213005321
139.841661333784
136.921029788685
134.423467405792
131.663689871235
128.654191420341
125.922286609412
123.643156190939
121.250939609009
118.023321789741
113.865093362975
109.298966724785
104.734973940002
100.00565632922
94.7530572447448
89.116449034431
83.7986531538301
79.4265674595854
76.0291523700796
73.2582563256261
70.9860870097117
69.4554742076846
68.8073100659739
68.664220957234
68.372032233923
67.6159796693848
66.6252605733221
65.7188651971672
64.8028603916217
63.4726546930021
61.5584542382122
59.3621528272951
57.2446700731571
55.0888186397808
52.3452810672816
48.6279511411589
44.1224738221358
39.3136617406551
34.4029052649807
29.1599918246418
23.3704270228172
17.2680916434099
11.3745887949932
5.94148521571162
0.701791302375078
-4.76303790534447
-10.5133230968271
-16.2301133948346
-21.6711860512552
-26.9901890993209
-32.5076306002594
-38.2446191417668
-43.8328689299679
-48.9208524471206
-53.556620382184
-58.0634248468643
-62.5756889310534
-66.8287330904918
-70.4615511314449
-73.4399703786551
-76.0695965925885
-78.6022995998662
-80.9514439843053
-82.8750467334479
-84.3805215329626
-85.8275403933955
-87.5956307381384
-89.7282558246302
-91.9768833719384
-94.1549680426584
-96.3400013813491
-98.690630208535
-101.154849504743
-103.472609974511
-105.474276231661
-107.282414619699
-109.149387491819
-111.134621685405
-113.02572009177
-114.582386047098
-115.764338230132
-116.642137578361
-117.129352507003
-116.931395846977
-115.831845347942
-113.981110468024
-111.815843795091
-109.686953195039
-107.639763676782
-105.594328204966
-103.657761435111
-102.127974765326
-101.153189231496
-100.481017353157
-99.6507883568246
-98.4339048799805
-97.0020144929195
-95.6282340466197
-94.3045143749777
-92.756841583018
-90.8273312644108
-88.7180804523065
-86.7663162318033
-85.0279548834706
-83.2079579862641
-81.0440553171037
-78.6681858508672
-76.4860074844544
-74.7200952866025
-73.1879792967452
-71.5834877826083
-69.8834008790775
-68.3444142608683
-67.0956609215973
-65.8724230190405
-64.2685555263702
-62.2130418820138
-60.0683438960315
-58.2158463536403
-56.6444054467323
-55.0502338160252
-53.2935138890034
-51.5970075112366
-50.2180032304703
-49.0312200861615
-47.5990481127865
-45.679139651217
-43.5358487219121
-41.6520067293291
-40.1985456696999
-38.9259297412078
-37.5876686715226
-36.3106973241134
-35.4045199438446
-34.8572634706987
-34.2065836762087
-33.0015084137477
-31.2918864566386
-29.5233873390953
-27.9744226466056
-26.4621706660513
-24.6855886259588
-22.7270850978405
-21.0200021791084
-19.8037191695813
-18.7925571910975
-17.5287365980546
-15.9859574335853
-14.6319951430924
-13.8467632247731
-13.4413367217705
-12.9042770747069
-12.0461334912145
-11.1771920584196
-10.5691638162322
-9.92639624794118
-8.62161358366677
-6.45324769322219
-3.95464248581101
-1.81999883571074
-0.150000206384327
1.52847402852717
3.51300079776359
5.45257876904712
6.80160770513102
7.61364411104939
8.59290993830425
10.2605091187816
12.2688260348553
13.7569086748843
14.3217899008813
14.3861100455103
14.524892433856
14.6719873862382
14.2797564262476
13.2337286446315
12.290102774639
12.3892663585606
13.6650883134874
15.3951170429534
16.9382472049784
18.4377718827073
20.3976378637264
22.7426925064013
24.6651784883082
25.5116720996565
25.5566734451535
25.6235380975385
26.0277005708317
26.2299493255476
25.6627865825878
24.632531690455
24.083045267682
24.5180821034052
25.5177615530326
26.5060210354923
27.7345560295329
30.111176090489
34.0209936331366
38.6742616881893
42.8864999010493
46.3291495764866
49.6502256056774
53.3446983143664
56.9209609952152
59.5265455133847
61.227137402264
63.1951218662896
66.4599057064464
70.7907377273951
75.1495818881544
79.0860860896395
83.1846552377395
87.9451892502803
92.6286714567047
95.7191874093536
96.4998536783221
95.6684698601632
94.1175294682581
91.4702755038286
86.3856872294848
78.3339011998836
68.5090445652744
58.5775450396028
48.8164652481056
38.0955108829818
25.7855627518393
13.0894207720801
1.96694865357327
-7.01922429892055
-15.1416004617461
-23.6776343067932
-32.2812825310108
-39.738331446913
-45.9988995204541
-52.5468934066299
-60.4109153283432
-68.4858098655305
-74.5961483691522
-77.9526064797363
-79.4737832247298
-79.2303887529029
-74.5975969645195
-62.4750210129908
-43.7228219747165
-24.3433649817197
-11.1838637863902
-6.56933627875844
-7.86488546983321
-12.0726742851126
-19.5240664273681
-32.4282173948797
-51.2553355571603
-74.7427374671761
-103.469389089384
-140.514013905374
-185.764141345052
-230.336272985198
-260.408810801587
-268.793117836171
-260.068114866382
-239.356303422173
-195.162101494624
-99.27046072969
68.4850223861125
293.485555530521
530.486613760666
742.242522572568
934.720712400356
1145.81948212503
1389.72652929178
1611.33563321597
1705.41199014173
1594.93583740434
1300.25582215795
932.129753840169
610.771012976903
382.439311387078
205.745245088826
12.3060515993242
-220.800996243918
-452.041716079807
-617.565555038943
-686.467631477543
-679.223247999637
-642.966663435286
-615.943933027414
-612.190878868729
-628.582217024141
-656.309874735282
-684.633030260748
-700.902713985632
-694.921623384206
-665.965232809466
-623.778657675676
-580.930378393133
-544.424858795545
-515.045348208607
-492.849630956685
-479.89794347643
-476.035843664562
-473.830547714532
-461.009211374251
-429.900240127934
-384.445905266992
-337.322605721863
-300.117729637459
-276.137187948056
-261.353654246568
-250.135026025616
-239.037970120778
-226.415815092736
-210.911382964214
-191.75584821536
-169.927263027065
-147.698067643613
-126.687995356716
-106.97658844773
-88.4025347676045
-71.9612781616998
-58.9366030960117
-48.659870407036
-38.1033327336119
-24.4783511997878
-8.07804499095829
8.03917468357086
21.2496204164879
31.7518155374897
41.5733541742566
51.7938037037873
61.5076589503635
69.5086993147174
76.1637108338529
82.9603600776247
90.4768736642208
97.5942087232678
103.012510555926
107.030511977208
111.23774905038
116.56596123476
122.272452548134
127.118348565042
131.091517581002
135.380149579327
140.695222119239
146.224859657868
150.612695629916
153.648260316429
156.449980415616
159.953702178606
163.736179160789
166.684836542181
168.536610444604
170.190371551308
172.393242433641
174.597199164736
175.54972167501
174.863998264928
173.511840769051
172.608277618953
172.094594650865
171.018952631561
168.976910566394
166.759424159903
165.345685004491
164.592978672525
163.37946154692
161.039774171163
158.242724249198
156.202056639662
155.272494861259
154.722991149712
153.88020620104
153.051409394555
152.997612083111
153.693073869947
154.052131482319
153.0148682956
150.60627276714
147.655730606964
144.634128686866
141.167456077753
136.805237064583
131.92488724176
127.50273027922
124.031750356372
121.014563060213
117.689648972891
114.018917523714
110.649626511952
107.949882961359
105.432181076432
102.322901436424
98.4913301019724
94.4941904270895
90.7043848529318
86.7244745123073
81.8914606017948
76.2103206882499
70.4834199140195
65.475567621332
61.2152208015239
57.3038571327423
53.7279568109203
51.0096852250035
49.4655688767694
48.5870689010261
47.4236076195217
45.5153180492978
43.186308779349
40.8615267126963
38.3654753556246
35.1591227837844
31.1784527911136
27.0992864959546
23.6075956099161
20.600225406204
17.369240960496
13.5428832795796
9.56121068712932
6.08013920411349
3.11066129608756
0.0368359837331695
-3.52538118698381
-7.18991645881108
-10.3145659045724
-12.8902766254505
-15.6184564451679
-19.0571428435171
-22.9445277702834
-26.5679059540822
-29.6639125296923
-32.6513035643021
-35.9125369314281
-39.1246418276111
-41.5763004184781
-43.0818099151243
-44.2849788137331
-45.9329860888228
-48.0518266423648
-50.0782726395419
-51.7360675576015
-53.4687366990208
-55.8484708132196
-58.7571186160128
-61.4495854272502
-63.4445485915967
-65.0890916109451
-67.0670781784865
-69.5024921501177
-71.8232580074755
-73.5317553692175
-74.8375695080211
-76.3166029696721
-78.0699399977993
-79.5162615877344
-80.0973584946675
-79.9615174984338
-79.7314460066663
-79.688477414596
-79.4675744537004
-78.6504236860239
-77.4329559324125
-76.4568580155979
-76.0358937763549
-75.828975650475
-75.4033709921228
-74.91679713393
-74.9729706541982
-75.8182992727874
-76.951784458332
-77.6852755828718
-77.9194917088277
-78.1026548939685
-78.4335701399343
-78.4029555454056
-77.3373436578606
-75.2652257442498
-72.9562877697837
-71.0436135036045
-69.3442328987541
-67.2440114882038
-64.6199541077704
-62.0700093746928
-60.1423377502249
-58.5905845955963
-56.6623696936276
-54.0719469987922
-51.4009450802001
-49.4112192806067
-48.1670021502859
-47.0910608030403
-45.8333486443406
-44.7661866868378
-44.4392185485006
-44.7274948345205
-44.8236800149785
-44.1118439673344
-42.7999147926664
-41.5164965934349
-40.4460092065276
-39.161447830381
-37.3521270150602
-35.4348016762415
-34.1965337982237
-33.9210257605728
-34.1439698108099
-34.3407104277258
-34.6078330190352
-35.4266416361522
-36.8485492259632
-38.2282029604772
-38.8881988991217
-38.8322570663069
-38.5504500765751
-38.1910250526037
-37.2458310680911
-35.2121427016864
-32.3559295959484
-29.5238000869771
-27.2076896774734
-25.0857330716303
-22.6512337865512
-20.0829818724839
-18.1589624166567
-17.281452490238
-16.9012495455461
-16.1521518965913
-14.9200824021259
-13.967359945473
-13.9427998427404
-14.5629780887678
-15.0254892751971
-15.0891193814386
-15.3700370160372
-16.4392060517076
-17.9053276055547
-18.7110387658833
-18.2874515299423
-17.0894984667957
-15.8565708595375
-14.6184917218774
-12.7723313464409
-10.0923305554679
-7.2652803154015
-5.17422696155778
-3.84749233825939
-2.47223712779355
-0.474254686456668
1.75532637715716
3.43783160459603
4.49063372173304
5.6298873909869
7.32661156895765
9.02699293163926
9.74429995850708
9.30585376658032
8.6199074868325
8.58041578647617
9.02517887605981
9.10718236626163
8.56823525287221
8.19221059901225
8.79996429291517
10.1147721040707
11.0470444254932
11.0831087037596
10.9706339272769
11.7836182339774
13.58193700102
15.4276889554772
16.7256505208941
18.0831942498708
20.5109206693818
24.0095230827012
27.4507877564646
29.9718150897797
32.0743669536298
34.9683659330583
39.0032646146629
43.246477070321
46.7539035245361
49.8231635330398
53.53687514981
58.1982045181417
62.7760534793873
66.1520859820225
68.5306713292501
71.1023123455984
74.3601760337338
77.2965888103492
78.5671383436848
78.0741553689073
76.8257406487272
75.2368704760604
72.1977855449446
66.2914189977796
57.6626309913577
48.065873332839
38.9415349663645
29.977622398994
20.0087590440513
9.02039767384666
-1.45066942552396
-10.0857410710507
-17.3590107373223
-24.7887235929692
-32.8712173611148
-40.5104765693648
-46.7209351017532
-52.2178399771086
-58.588216870294
-66.0796113664452
-73.0882132654625
-78.1726804495264
-81.7675569921284
-84.8701339274663
-86.1231710600246
-81.4751652334567
-67.861426654619
-47.1750104916433
-25.8686383974755
-10.3817730989201
-3.25365237417429
-3.44340021131922
-9.09401143434826
-18.9093519288069
-31.8196651695213
-47.8414069806458
-70.4005838574833
-105.510742277538
-154.834617358887
-208.464343781935
-247.841332174417
-260.009887939199
-249.092056455706
-229.181362766495
-202.076040464242
-144.256510388149
-23.0563048365383
169.206664813446
399.544780881472
619.798037501702
811.735708250466
1002.46174683192
1225.84499550498
1463.60394595179
1629.42772806925
1623.61148190631
1415.25394676612
1075.91261795407
730.08133920331
465.100233459906
279.722655005281
111.446591346537
-90.9568549781403
-318.952497403665
-517.242407237872
-635.209580874941
-665.242963946247
-639.952586027285
-602.554341425191
-581.912328361315
-587.311206007397
-614.812713683179
-652.475833551768
-683.11584023942
-690.516620625559
-668.872146819216
-626.810412491646
-580.342005626141
-540.84271809447
-509.773526747933
-483.903174281342
-462.955210107482
-450.042483421424
-445.162237418495
-440.833570922251
-426.267717459308
-396.224036737222
-355.36750035161
-314.1357976739
-280.93118081837
-257.912003158216
-242.448223745388
-230.671793085563
-219.422442787629
-206.463273923895
-190.661262937733
-172.368153481534
-152.853884840901
-132.845787814937
-112.005972834629
-90.3374987894212
-69.7392637650007
-53.1672746987358
-41.7005323826011
-32.8432400599603
-22.4583400290134
-8.56568136589696
7.09604539647853
21.3454299696389
32.9056961340908
43.0921892823259
53.5435176709887
64.1355814348378
73.5275030796732
81.2065619604015
88.1455999438057
95.310622897963
102.21481311556
107.580633233889
111.258313058029
114.811325291302
119.905810202718
126.5080809182
133.130933626997
138.71645989364
143.702366618814
149.003122720605
154.404717619691
158.580430451023
160.728292005259
161.669152126394
162.949896327834
165.089497016492
167.178623762099
168.248677555622
168.564590571943
169.197253535184
170.543531542375
171.809743046194
172.136369953888
171.84541041874
172.133748796553
173.580808745624
175.376606427687
176.222349007619
175.709594067985
174.450721866498
172.939668808401
170.769602854685
167.27924841528
162.739778589842
158.444859860634
155.494659357327
153.764543172913
152.298566858103
150.535171805284
148.772736616658
147.37791353884
145.926326694852
143.51326231561
139.86233220205
135.756754638898
132.179586416085
129.225458681831
126.132101246233
122.323419134171
118.084763544393
114.047510196223
110.26137805587
106.149802003325
101.420659745592
96.6924583810675
92.9404847685637
90.4089825660301
88.3412355314696
85.8324847843164
82.6968850459479
79.2988266264553
75.7096827558397
71.4265614802736
66.0860983858739
60.2169207529658
54.959633063845
51.0065751209122
48.0355532792943
45.2903136799992
42.5123023691075
40.0413947677299
38.0554602001884
36.0685967903332
33.4399019283265
30.2591491982597
27.4156279051819
25.675352593388
24.8668628674221
24.146995449115
22.9577462273217
21.458584888269
19.9707556569112
18.2814368581374
15.803751532984
12.4056371095439
8.78736711501362
5.83984504578538
3.72878837542662
1.80673842664188
-0.59894820292142
-3.55337628929826
-6.78196165163444
-10.3506142542138
-14.7367380078886
-20.1309358649577
-25.9018776886896
-31.010549658225
-34.9464624347808
-38.067135246249
-40.9680259507171
-43.7271927600213
-45.976578074789
-47.6254090770848
-49.1909101676742
-51.2237414724134
-53.5487058352761
-55.3454040916112
-56.0473475863351
-55.9863666136518
-56.0142950121622
-56.6053171772541
-57.548683227814
-58.5273877245537
-59.7272469438796
-61.6263827026852
-64.2415706874288
-66.86107681611
-68.6851717650854
-69.6235394636592
-70.2887221754385
-71.2382681778489
-72.4320305869988
-73.5198333998684
-74.45968689524
-75.5675029011102
-76.9201480307764
-77.95765448751
-77.9121555727948
-76.60686932046
-74.6499141700262
-72.7905583078515
-71.2482378608067
-69.8108846050348
-68.4605141410125
-67.5974618644188
-67.5074202771044
-67.7855171876499
-67.5658365851322
-66.3905303043161
-64.6976738692993
-63.3393218610815
-62.7268356631519
-62.6234224091275
-62.7319403291992
-63.2022149408702
-64.3354311154485
-65.8790148530652
-66.9089713988828
-66.5798849166993
-64.9026542597826
-62.6386265794884
-60.4761925356119
-58.5021445426164
-56.5274224380057
-54.6952291057771
-53.4710599239842
-52.9964306442723
-52.6956213301493
-51.7455237557846
-49.9062103612555
-47.7187429496869
-45.85589564707
-44.4545126825749
-43.2209636402602
-42.0566057866245
-41.2824966816387
-41.1241460744434
-41.1635036241725
-40.5724770226245
-38.9423943614306
-36.7192242229169
-34.7126485036651
-33.2920804774046
-32.2367963521242
-31.3218355148633
-30.7651997562885
-30.8894281921721
-31.4526134693371
-31.610260243425
-30.6847965405685
-28.8529459314916
-26.9157381403858
-25.4451663444626
-24.3533540743386
-23.3376549707117
-22.5036244735261
-22.2692336555473
-22.66199546434
-22.992518990507
-22.4476212144034
-20.9451938053903
-19.2056913722109
-17.9534535380507
-17.2383179620777
-16.6696463835248
-16.1472206078002
-16.0438150134938
-16.5695552510554
-17.1983191483574
-17.0200009827404
-15.6857212295613
-13.7957441524187
-12.2381798916434
-11.294377593005
-10.5913149388306
-9.85724766981305
-9.39630872068678
-9.60967015223736
-10.2134555771694
-10.2769991225537
-9.16673238716223
-7.26739385155815
-5.57024000603295
-4.62457919496368
-4.13402904269384
-3.61899220369838
-3.18067450713501
-3.30494024572426
-3.96629169709782
-4.28649080349172
-3.32925418498465
-1.12050864291289
1.37235605611662
3.28903187211659
4.66241459711296
6.03178315917395
7.50853594781584
8.59973231750202
9.03200560345979
9.42792485241961
10.8275502482738
13.5600624263712
16.8633626500659
19.7242457984091
21.8652980000953
23.669329586993
25.2812169845345
26.2239943668636
26.1320302094828
25.6150222828357
25.9852009185082
28.0525423361598
31.4825063254981
35.5423106335133
40.2434893352565
46.3306976357578
54.085005562384
62.5441481334912
70.2766332398818
76.7962596318017
82.7593465677407
88.5982834192108
93.329598403755
95.172617933875
93.3354312901885
88.7721125473734
82.9635572220847
76.2866419625609
68.0576792877596
58.1329286568088
47.8607663385792
38.9766758607087
31.7438457600468
24.7274733519578
16.5525897278483
7.43263102083262
-1.45492030054936
-9.83565986401129
-18.8599055686614
-29.4485397382979
-40.5965038168664
-50.002509827042
-56.4423760246929
-60.9399885123099
-65.1843839199697
-69.1416472493488
-70.9342877928968
-69.266696406277
-65.4398887818292
-62.4166741745202
-61.9465179731421
-63.0044337947611
-63.0855786819115
-60.5882410091897
-55.6911947990469
-49.338181452954
-41.9775909577562
-33.3000962667272
-22.836133413002
-11.205888631409
-2.25452128334118
-4.84958692157866
-30.8009221046509
-86.8988491426751
-165.831903254095
-245.762202979591
-302.815794571134
-326.872905557898
-323.911636152658
-299.739367309097
-241.568308946845
-121.014051651989
78.3903784493689
335.874034794487
601.548904980949
836.846020608684
1047.52897606173
1269.32296826319
1512.41962941477
1719.37940399763
1787.21606375888
1644.90725206753
1319.04918469174
924.398592293904
583.217384618677
343.230087361887
163.893660054899
-24.2873472961238
-247.677787525461
-468.762525802461
-626.124557821413
-689.58765239142
-680.532482860643
-648.384739113191
-633.554265107179
-649.116064387864
-686.699567591679
-730.345271312535
-764.351284807767
-775.716270739254
-757.66849486349
-713.987121099124
-657.833227751779
-603.512866034001
-558.445103379576
-522.959537360434
-496.306506500595
-480.219489592958
-475.457243103549
-476.493528196968
-472.375327612589
-454.250435034866
-421.807624290817
-382.063700638049
-342.669989388995
-307.277238247214
-276.576888321316
-251.334969271606
-232.405322273647
-218.156984356398
-203.991688079726
-185.895476828251
-164.166904595201
-142.616763088084
-124.00550608802
-107.20893250382
-89.4083639830954
-70.2677650477995
-52.674869598115
-39.1413507987133
-28.5088600041366
-17.1477240029088
-3.10723155196143
11.9474380729847
25.2202265814993
36.3297370065197
47.459457487442
60.1883741332814
73.2538546097706
84.0769890760463
91.9487920951862
98.7633291389454
106.500522217915
114.82289447582
121.811665175596
126.683887415608
130.850729116628
136.010093129242
141.895274770238
146.673950998464
149.445945606207
151.549975349269
154.991466649446
160.051376334821
165.123163577453
168.861220336707
171.76241071922
175.170549509937
179.142141578208
182.079876325459
182.66436728401
181.576941750804
180.778267831567
181.274581925047
182.205050830688
182.296261786792
181.662613861065
181.584598949667
182.637043459923
183.71658586367
183.304362465586
181.346620547401
179.326152120003
178.450392776384
178.288251849081
177.534512726494
175.791453349763
174.000397845586
173.016922468325
172.293536903314
170.467792979491
167.116264138169
163.38646982441
160.674835704578
159.042215588621
157.352345398275
154.845342076216
152.026643756357
149.734800662584
147.703254137185
144.607613912047
139.619733818039
133.482966170791
127.714624330311
122.947070363036
118.494533107078
113.601862109883
108.653872310902
104.736189262926
102.151688657644
99.8863974536765
96.7743360659895
92.8816419842521
89.334586459104
86.8252573979146
84.71516180846
81.8466369814546
77.9574583374714
73.8640440966298
70.2409500861627
66.6658638976807
62.2185808715623
56.8542551299415
51.7395636436239
48.0781794471767
45.8911620860005
44.2404730627648
42.5040773633918
41.0052758633548
40.2370580180866
39.8155565052773
38.6417471396745
36.1229872852429
32.8773012303339
29.9943707849445
27.7879455141796
25.6013693880333
22.8245015710298
19.7152618986482
16.9402063741235
14.4959670720188
11.5167532205053
7.29820856827958
2.23441988508187
-2.56413182335413
-6.51232370830415
-10.0931599700452
-14.0659494070343
-18.4294592843324
-22.5019221278883
-25.966844708037
-29.4422519164896
-33.7588754848126
-38.8465065193518
-43.6724870530657
-47.3376238860973
-49.9624819243945
-52.3005287975174
-54.6715996434672
-56.6446936170366
-57.8464803410617
-58.7501069950153
-60.3212718587525
-62.9238279590329
-65.892683383908
-68.3379411543913
-70.159451258614
-72.0022476155691
-74.2837231834405
-76.6222417874652
-78.4244628195851
-79.8177366925586
-81.6309575045005
-84.378349801933
-87.5397905694703
-90.0868657754456
-91.6110203011256
-92.643877237462
-93.8163532517132
-94.9981410914217
-95.544680138836
-95.2913852543306
-94.9363105474903
-95.2524037900898
-96.1159959017419
-96.602359764818
-96.0369621196277
-94.6805182346951
-93.2329033176323
-91.8793710812485
-90.155073797683
-87.7726678938767
-85.2601174923009
-83.5072922913826
-82.7763980112651
-82.4581354228241
-81.889360360186
-81.1651337960371
-80.9025972462836
-81.3072300217586
-81.8064417291184
-81.7416120064598
-81.1795006150942
-80.727109621669
-80.5630896751744
-79.9772599875248
-78.086763913418
-74.8620919311126
-71.1645238538806
-67.7581764159563
-64.5780125850096
-61.1786002944907
-57.7141962568434
-55.0773457128087
-53.9217854792006
-53.794572983898
-53.527805671741
-52.4547539781127
-50.9629957902951
-49.7496616100381
-48.8023532925486
-47.4441121856736
-45.3513737936183
-43.154514152316
-41.765896208662
-41.255591968946
-40.7185347251191
-39.3229225889549
-37.2222821646034
-35.2099097563003
-33.6300410071608
-31.9972392392622
-29.8005312767844
-27.3779601294874
-25.6417801203532
-24.9587332168136
-24.6363619656282
-23.7122080716678
-22.0598848614372
-20.4174222892357
-19.350791724431
-18.5464528478221
-17.365965130269
-15.8976046317643
-15.0486958026977
-15.4718923109073
-16.6826986449085
-17.5341290570607
-17.4821739137924
-17.0520249966202
-16.9495383996118
-17.0191694972804
-16.4330335324186
-14.8575379002219
-13.0295213102055
-11.92355686835
-11.5456357048642
-10.9167845329238
-9.29473033165723
-7.08091493091611
-5.26729332106405
-4.17348998864639
-3.13568234631069
-1.53714363592035
0.218310548407922
1.13363202073665
0.940051342588845
0.58491043098559
1.19705430680637
2.81357223975877
4.4771995416553
5.54124489130279
6.45244251941686
7.9837081519134
9.95673495936406
11.2091637373762
10.9477010062272
9.77544732245508
9.03876475022147
9.28971912206524
9.81479565667902
9.80663174838699
9.61700830639921
10.4221195697124
12.7216153942478
15.6565828623423
18.0931141748928
20.0971370062534
22.8608976027047
27.1188822537019
32.0681427446199
36.1934886222476
38.9535000265672
41.1777007464452
43.7146874958
46.166980873165
47.4420555267222
47.4504169591738
47.7153833380559
50.000380501096
54.5961780624631
60.3458469640474
66.2441571394039
72.4520833264247
79.4219765966847
86.3975260236131
91.4319327824798
93.0721044613047
91.6120109512061
88.3196148421746
83.6717629035136
76.9230898784837
67.5447263456377
56.5385032504038
45.7454683888801
35.94181550645
26.2222937572338
15.5689113890196
4.61209796996047
-4.76937053648348
-11.6189869042724
-17.130204533438
-23.3729822739321
-31.1307157896779
-39.5265462280959
-47.7174321177232
-56.2561436562181
-66.2741916112765
-77.585504300249
-88.147065360023
-95.3365388194199
-97.1350464147498
-91.956689553788
-78.5123126938145
-57.5113941264091
-33.9168613248955
-16.0412275200332
-10.3129173475796
-15.9918051102363
-25.6168540452365
-31.5729010507968
-32.5446201451738
-33.7519289181483
-41.8298328508738
-60.5594538287342
-90.94642262334
-132.540463982533
-181.836432230885
-229.755906272695
-264.255154737829
-278.239409066874
-273.428235995807
-252.023168674059
-202.854253413487
-100.351161421179
75.1205312922399
312.601927724028
570.754494721636
810.532936083393
1030.16143357754
1261.05839123818
1519.08793787574
1756.58390080876
1870.92720372584
1775.69273596172
1475.59851414866
1074.17652118236
701.509094113547
423.886197866757
213.90848540284
1.57685960989076
-247.693297100662
-500.776232726099
-692.058896234934
-783.343094189156
-790.516151192725
-760.643972086172
-731.860841044207
-715.776857716903
-709.45383526697
-712.890134765279
-730.069744442301
-757.179305077372
-777.391837788763
-771.502995924566
-733.531816080082
-674.908481947301
-614.318088947998
-564.87005500299
-529.932424363352
-507.220956433768
-493.076715026509
-482.68076367578
-469.493083596338
-447.912231123522
-417.327636046364
-382.46326549952
-348.989427180021
-319.218521891876
-292.413305910629
-268.265454439208
-248.344892142919
-233.527906526871
-221.122755108605
-206.065142386181
-185.368968538301
-160.763900108097
-136.540082025925
-115.281382093347
-96.3013143510314
-77.8752063598964
-59.8244582588025
-43.2498880251966
-28.3676914210643
-13.7860429929128
1.72014016387391
17.4365628368558
31.4450303054269
42.9614350401551
53.2150750633856
63.7621368560114
74.5129803753189
84.0633225220387
91.8095943763386
98.9719313581442
107.138511281062
116.250897759337
124.687989633739
131.340932711698
136.979210771432
143.17698354534
150.269921892433
157.025763313523
162.394412539644
166.957607729807
172.130910081401
178.167915966035
183.612928489798
186.962311689865
188.422320858827
189.544681201198
191.280474860742
192.991994831961
193.627736536244
193.404817306829
193.713605147063
195.342810660263
197.357604358687
198.127027189088
197.212360133181
195.738401866433
194.8599877092
194.371470140472
193.227723122662
191.18295112773
189.29980153825
188.614811566301
188.709523964086
188.085481625729
185.899486342003
182.86241262207
180.213496985318
178.167943968616
175.848616923809
172.699189376887
169.420276570533
167.133514711254
165.854139221569
164.29786745948
161.32580453005
157.209125981779
153.143935858854
149.71507791939
146.319130198875
142.227186164274
137.785861153871
134.095804896954
131.55551335347
129.195937126923
125.729496272458
121.012790281392
116.089226895851
111.820550116197
107.913249849583
103.562339042679
98.7726987317041
94.5335783397428
91.565613672187
89.2827044834747
86.3741106570682
82.3197220077141
77.9400970508304
74.3284145214752
71.5777422122599
68.9161471103378
65.9700677340954
63.3981861850437
62.0053590832103
61.4953416237986
60.5438865588712
58.1783945350659
54.7564762829808
51.3533728017824
48.4085260905344
45.3799532712068
41.7672690447981
38.0440667974996
35.1830731390334
33.3566418311262
31.5340206725749
28.5665023338879
24.4278644897117
20.0749558989047
16.1692025642867
12.3316941192932
7.8426778133807
2.77340642851573
-2.0109408878357
-6.01004523283881
-9.86792511617304
-14.6937153766467
-20.7380075294862
-27.0826580634921
-32.698347278384
-37.4877487263704
-42.022752073039
-46.4453786554867
-50.0929279879717
-52.3991210034034
-53.8701474000929
-55.7738514170187
-58.84041517624
-62.5739541648964
-66.0024315874149
-68.8570068225218
-71.6726540472588
-74.7743689619392
-77.5988636524465
-79.3365763276991
-80.083537305658
-80.951652473888
-82.9007874656342
-85.7173221320451
-88.3933026859862
-90.3739219529054
-92.067415387989
-94.0360915937838
-96.0407338127352
-97.2795322132351
-97.5356008536503
-97.6871303423189
-98.8228132846426
-101.020886141084
-103.308819606243
-104.813762979492
-105.611667554253
-106.243593971843
-106.662031066079
-106.116452070835
-104.19763700635
-101.649685088807
-99.7841511793242
-99.1323216694193
-98.9918250907127
-98.4041040759198
-97.2836015970568
-96.2752308291926
-95.6260797028344
-94.6673182175832
-92.6799206796456
-90.0380842027117
-88.073402567411
-87.7116191654801
-88.5264411641569
-89.3498543985307
-89.615563063498
-89.7301140160832
-90.0931485239401
-90.1725766994577
-88.94595098884
-86.181080519621
-82.870801095946
-80.1914725522978
-78.2544451893309
-76.1878354456044
-73.3775298168987
-70.24130758742
-67.5872158262512
-65.4939287458483
-63.255040069032
-60.4724388610601
-57.8127888236659
-56.3483239645036
-56.2626243813474
-56.5625930707803
-56.1578210517657
-54.923963651627
-53.4426507686474
-51.8877983512021
-49.6446754475758
-46.2243240628937
-42.2383736968868
-39.0369034985538
-37.3384362643301
-36.533812504985
-35.5218625899966
-33.9875009514767
-32.5072094931623
-31.4497180195823
-30.2399714803907
-28.0511265963986
-25.0404721963168
-22.4402998699831
-21.2584494443266
-21.1688658432482
-20.9738880104894
-20.0258765096647
-18.7977841965572
-17.952084659198
-17.2447359576635
-15.7945649863376
-13.3909816698946
-11.0654646914237
-10.0570902615448
-10.4025496761346
-10.9165587915052
-10.5689439955034
-9.49564619144597
-8.41502338128991
-7.34799154620923
-5.44822296755343
-2.22961233066129
1.45641085304191
4.10056884634901
5.13120676701826
5.44316091988556
6.20825821067874
7.50875361325998
8.52124481632268
8.90741132113374
9.46694851365996
11.1044426154802
13.4554611425147
15.0606702038521
14.9980400406787
13.9499498077764
13.3551602445256
13.7382107354825
14.3400287999417
14.4364575228228
14.5037960091726
15.6133707633013
17.8314729127233
19.8000732453856
20.1865304221731
19.2314323938427
18.4338148916119
18.7857291468114
19.8171227006623
20.6078605015764
21.3137189107133
23.0864688949692
26.4435339789842
30.2829139122886
32.9682549226433
34.1886301407559
35.2171679113575
37.2342579400303
39.8992685228012
42.0166219941684
43.3549039171135
45.12242008428
48.3884426984233
52.5445187564958
55.9655475777819
58.1583557634133
60.6204586321105
65.1799879356421
71.8350190534236
78.8129773155133
84.72344424338
89.9482111150012
95.4139546272224
100.392126911627
102.384581898971
99.526834565407
92.6121111326755
84.1790046108691
75.7781261216099
66.8212557066626
56.3237663906469
45.0697913685891
35.2008639583485
27.6789147420198
20.9880327561344
12.9281200208255
3.31170740484447
-5.90107114390248
-13.2352249512657
-19.6922635806626
-27.4717039835114
-37.043309508988
-46.3971348335748
-53.5156409128723
-58.8791061418181
-64.6493036824868
-71.4023976801539
-76.5293365285269
-76.5037305565218
-70.5090816790805
-61.2954469368808
-52.497693206918
-45.6784978414825
-40.2195876658634
-35.5154428666542
-32.51085097799
-33.0010548769773
-37.8142868597569
-45.6326665446972
-53.0425982652264
-55.9391901705595
-52.7036336912771
-48.1309903236642
-54.0564802072939
-82.8661957129589
-136.710661500783
-202.483179884306
-260.014896175681
-297.285207205861
-315.850722114597
-317.547797627798
-285.606294396684
-185.077999180237
9.48000152567323
283.340869418467
583.275389486741
857.70702201313
1098.07967610064
1335.11406727563
1586.35692097052
1806.09868808948
1895.51438120283
1775.37352281158
1458.42115231004
1051.74400909947
682.316047212913
410.69579909344
207.305301403469
4.76358165583142
-229.418471009312
-466.161135488013
-648.784517855716
-745.284153129493
-769.100983934834
-758.636895460829
-745.281020808761
-740.673197636536
-745.176335288007
-758.201759049837
-777.461288555155
-793.541265822592
-792.334985236273
-765.757694478077
-718.967879382177
-665.838907613967
-618.071834040528
-579.539825542713
-549.561200349296
-528.024909815337
-514.998172636666
-506.492023601132
-493.816052758244
-469.241087964155
-432.277660445045
-389.743956476138
-349.968072842412
-317.574783153042
-293.197693739368
-275.894571112232
-263.823358551484
-252.956106002307
-237.586039458785
-214.236376976748
-185.221513865965
-157.169950106972
-135.236339957648
-118.936926966245
-103.87596680213
-86.9539393459981
-69.0335013779372
-52.6256567740829
-38.188844037485
-23.7233128620307
-7.68041785507862
8.92913525665931
23.8880926041683
36.556452932055
48.3711694883977
60.5976087848711
72.5123376256753
82.4618177942277
90.3052465424609
97.9121775032609
106.99424554669
117.062021537895
126.104125976916
133.040147317504
138.79168305357
144.746505883262
150.80711314951
155.63717231637
158.710287690801
161.363206955018
165.386558657281
170.928092458918
176.372117508277
180.292279094147
182.955760726017
185.558896248407
188.376216998232
190.346387882773
190.618155056432
189.947665865158
190.032771255746
191.581469014084
193.561170596788
194.540445618216
194.366803486032
194.086305081232
194.361215266493
194.558068858785
193.698142340245
191.952792523288
190.643652409187
190.680326169089
191.416627726177
191.368052238423
189.854454409068
187.516569942531
185.190319644011
182.738761948273
179.390765947439
175.067110405055
170.851405213061
167.898428838241
166.132823780333
164.374086606564
161.697393420419
158.310742316871
154.948680902644
151.735215300092
148.080174768737
143.704685043204
139.342293427456
136.082331907828
134.126602671782
132.524639971275
130.20528239144
126.988544742558
123.367480201579
119.505115695952
114.889888279207
109.141615092612
102.858301941755
97.2831314816186
93.1036919132683
89.8523910062446
86.6347598598962
83.2370746585659
80.2305762195961
78.0346910509873
76.2494834494789
74.1689909436687
71.793548107399
69.971651747611
69.4167943533413
69.8040331584227
70.063866857018
69.4853996976483
68.2640328307807
66.9046727257201
65.3665826587067
63.0981142521403
59.8727652587676
56.2611733619998
53.0576081855572
50.359132508365
47.4564265956195
43.6562341072267
38.9911285307819
33.9810193800775
28.870474834722
23.4053672473771
17.4233341855579
11.4004654058456
6.13375608650978
1.88966212433601
-1.91418865806325
-6.07969327280177
-10.8273230315146
-15.781216414807
-20.6557141378921
-25.6700939838227
-31.1346110998241
-36.7984622540435
-41.9029181765844
-45.970095582983
-49.3737730954565
-52.9731398997481
-57.2476916000135
-61.9643114977554
-66.691731604728
-71.4011596945623
-76.3438349585001
-81.406364647276
-85.8709535129429
-88.9983451731511
-90.7737575029962
-91.9120651315327
-93.1229364165877
-94.5262329813502
-95.8595626794732
-97.088298871005
-98.55553962138
-100.477429711229
-102.492716907658
-103.926809807054
-104.50180452693
-104.62971632468
-104.93467103639
-105.599654959379
-106.31077789405
-106.779193790538
-107.103068683181
-107.502243199669
-107.827751234116
-107.563587402757
-106.391692822545
-104.635420143273
-103.018195485724
-102.014884457329
-101.55313171483
-101.344024028188
-101.327296522281
-101.630204005406
-102.140342957221
-102.337901222824
-101.702808426693
-100.244028228644
-98.5012318029092
-97.0060364683432
-95.8421626823637
-94.7812278694159
-93.7232966837632
-92.8145663800391
-92.0961236899708
-91.2045965945827
-89.6085215996907
-87.1625762659599
-84.3121082769077
-81.681376994311
-79.5285783879191
-77.6923215188603
-76.0128762947412
-74.6188954283552
-73.6874067318953
-73.0177772959717
-72.043125081693
-70.3524903050731
-68.1176094202451
-65.8955694474178
-64.0335717221273
-62.3808919766298
-60.6087307116853
-58.6717966137589
-56.7977251361567
-55.0419946494223
-53.0432139867122
-50.3708195088838
-47.0770718381309
-43.7581168692522
-41.01057322793
-38.9134549907858
-37.1231574189242
-35.3933530192859
-33.8153567993641
-32.479303105116
-31.0536793137337
-28.9246369974355
-25.8180369264047
-22.1637346247586
-18.727544166632
-15.9238540295059
-13.6102274794045
-11.5510081017948
-9.89533580322706
-9.02239199551444
-8.95658147977196
-9.15042412856161
-8.98838830391642
-8.43252700152351
-8.01065990661473
-8.14664599280965
-8.64824105137835
-8.96043180687779
-8.82187814665411
-8.46995304991066
-8.15441685680355
-7.64002572997998
-6.40210220167637
-4.3049408769981
-1.88929298292601
0.136996426726341
1.59848883448797
2.88937423553978
4.34717655074712
5.80849957790082
6.92576015962555
7.78809341286757
8.95479459269071
10.7765793073013
12.859488880816
14.4086188539803
15.0792716065621
15.2926178896575
15.642687641281
16.1881715720713
16.5601660209447
16.7210484451047
17.3103238493977
19.0237149865674
21.7618102694175
24.655269330504
26.9868124261534
28.8720778341242
30.8650644459654
33.0590928987626
34.9205898284347
36.1086408053603
37.1720672008765
39.1103338044651
42.278338915056
46.05020042235
49.7274024082521
53.529938256098
58.3305634019063
64.4107682733724
70.8554023334635
76.4404174165449
80.9083644640814
84.938461698164
88.7790750172497
91.3269250012729
90.9796006191121
87.3240860345773
81.559125759055
75.0863053092581
68.0444092176937
59.6534462075378
49.8734638380764
40.1086140080149
31.8840876077825
25.118369723388
18.2657773139485
10.2411966399082
1.67598811759183
-6.14526293068884
-13.2687639753837
-21.2581851501006
-31.1469282324669
-41.7452507810958
-50.6378128027843
-56.7934133249423
-61.4820509175262
-66.1956673238492
-70.1323165909598
-70.5790116318001
-66.0287011344038
-58.371525481873
-51.4367371143666
-47.4608033317848
-45.4518042588466
-43.062436564542
-39.5120198021893
-36.2195052940751
-34.7826040965388
-34.8251739298098
-33.9098053274866
-29.4701081455342
-21.5417948747567
-15.1723466288372
-20.8410791007971
-50.4685673394787
-108.939492813583
-186.789021276297
-262.357163352444
-314.743151266261
-336.52875243143
-331.897433763978
-299.715504896649
-220.301096024576
-65.6717797160777
171.060329089956
457.379851099872
739.775326734695
986.945536326133
1213.21567194375
1450.44085439982
1689.85885742265
1855.01086313586
1845.04540068763
1618.63142873941
1241.18015573313
845.458637947577
536.001803791799
321.906863802612
135.449615213992
-87.50927762908
-343.822727118184
-570.78652730176
-707.548475046933
-746.207023950389
-729.432235891202
-708.723909998348
-709.332488600043
-728.705183508338
-755.764554895113
-783.372012413586
-804.990745648689
-809.306876748754
-785.8445527122
-736.151189908793
-675.49265034408
-621.211639646322
-580.290008096079
-549.112798587437
-523.229603513403
-503.724522997776
-492.930069109437
-486.65486621619
-474.330862518227
-447.999456921986
-409.801907254085
-369.501904840232
-335.379365084951
-308.672799789899
-286.133532038378
-265.45554304227
-246.578136827141
-228.876931285215
-209.809381452522
-187.637014235871
-164.317805917421
-143.908134734662
-127.864763541025
-113.148493918118
-95.7471437219441
-75.3548680539652
-55.4613485521365
-38.9334311409916
-24.7506174001914
-9.81025942767702
6.8557008003834
22.9606020018054
36.140546908805
47.038306375518
58.2690779451173
70.8083326434831
82.6617240122424
91.5255759832701
97.8665081418794
104.394898131712
112.712067848804
121.545601220757
128.757086556772
134.313402663406
140.264267476496
147.847237263796
155.649127284773
161.294655162745
164.443275439946
167.179907990402
171.347329685298
176.346144660387
180.208574833066
182.389381009079
184.513748056671
188.120052787861
192.450549015548
195.263224090422
195.629133973295
195.071272196185
195.600953233296
197.259369941625
198.339853156342
197.874804755211
197.011047878404
197.44480978098
199.028757219847
199.766212085802
198.24736784057
195.364437635506
193.100493789002
192.017723831692
190.71850421896
187.894585596471
184.172151338944
181.289744276451
179.722625754606
177.935923819952
174.295459198605
169.161257083401
164.453439751022
161.290497194678
158.778688955487
155.450330439977
151.348784484695
147.963463990161
146.127837770409
144.717214026297
141.924279981783
137.478879251495
132.932351225762
129.669256727147
127.261866298703
124.265637097743
120.298454811584
116.579785242656
114.207941494369
112.502077930941
109.67690705658
105.03471894667
99.8372594179054
95.7318998815272
92.7897725452953
89.6782352726447
85.6497081152639
81.6493611568714
79.0543115663317
77.7319156008677
76.0372201347988
72.8295141649278
68.92690118823
66.133905661028
65.1161206356757
64.8377535674142
64.1693068047585
63.4309935627069
63.7978428489826
65.3918582162391
66.660223506227
65.9495297488488
63.2883513641975
60.1132954378873
57.3599006346516
54.4292988109495
50.302661113723
45.196265166564
40.4617316500728
36.8267667566157
33.3356427214151
28.4624419633095
22.0039426831966
15.3130439463129
9.59592881241956
4.51053097795088
-1.14066896405656
-7.62279086045756
-13.8181439951341
-18.7329455861864
-22.9426661805173
-28.0018478243204
-34.5188190642903
-41.3652506889213
-47.0198668811842
-51.28071611681
-55.160568088455
-59.2263084687543
-62.692299715801
-64.5217165034477
-65.0575560320154
-65.9469199038104
-68.3574398129437
-71.7508833682313
-74.7669436601903
-77.0175033427121
-79.4378902598692
-82.8016189623693
-86.4635046827361
-89.0819259054507
-90.402062221529
-91.7137580077756
-94.304271945135
-97.8689797385662
-100.924397370392
-102.66433473958
-103.837120003603
-105.549349257739
-107.654029171754
-108.913667289481
-108.741517428384
-108.187958139721
-108.797486106621
-110.762089597997
-112.740992083933
-113.55241369725
-113.521127818804
-113.771527174027
-114.500063267951
-114.599649460148
-113.173648378529
-110.91627793052
-109.464598657749
-109.492648452207
-109.994573861735
-109.661526350551
-108.525779602502
-107.732282982807
-107.809144238526
-107.806910364427
-106.504335886766
-104.090360556081
-102.043950558759
-101.289289695806
-101.001110314273
-99.6197199867862
-96.7581586227191
-93.5336700434243
-90.9532707808198
-88.5564860192017
-85.1575532132756
-80.7052093072961
-76.7365990205819
-74.7122986675996
-74.3172422299141
-73.9018947498968
-72.47735005794
-70.6862270503213
-69.5630948897029
-68.829585467538
-67.0663041467905
-63.5795425678277
-59.4816089169987
-56.4880734493935
-54.9237802738461
-53.4826851786053
-51.007160925168
-47.937437679891
-45.5688476174497
-44.181893724985
-42.5957229551664
-39.7758231883258
-36.3568647816238
-34.0097390804217
-33.4160136109624
-33.465672506922
-32.7037368450344
-31.1121011101773
-29.9085235442277
-29.7019400783962
-29.5284570124456
-28.0985427293077
-25.6003329279155
-23.6111236565741
-23.1527133321042
-23.404837237425
-22.7596875976627
-20.8344489368428
-18.813865527501
-17.7289431374148
-17.0274745169639
-15.3908408542336
-12.7163280816241
-10.5611855366911
-10.3369092842596
-11.5416846679169
-12.3308118152436
-11.6861094445464
-10.3596290139715
-9.41449558577673
-8.39966182126327
-5.69599678162496
-0.656319664677994
5.30565997073617
10.2160463020183
13.7596545387065
17.351797098195
21.995177842946
26.7797868851755
30.0401089865005
31.6401851038994
33.3077302151372
36.4962220822992
40.5756098422801
43.7989703932692
45.8406966941607
48.5485513929599
53.812252957195
61.2307172387759
68.5802242639764
74.4565535574468
79.6198299644372
85.2848046631818
90.665924086026
93.1475006752326
91.0437711795509
85.4731515959074
78.9408382017691
72.454522127063
64.8584169990756
55.1110274680896
44.3449724214702
34.8681918634754
27.3811405471689
20.1347972056143
11.2427760791436
1.16674736497256
-7.90742345668528
-15.0170314946203
-21.8033915952916
-30.4392375388636
-40.7564942516738
-50.3348958505686
-57.4701068581054
-63.1449543866687
-69.3644817386899
-75.9175007588154
-79.7170791700732
-77.6874783669546
-69.8389915106826
-59.1337119567434
-48.7357544781575
-40.0029128853186
-32.9593151058387
-27.7452141953396
-25.0160608770606
-25.3927205423086
-29.1402293979538
-35.9359333072988
-43.9175355101526
-49.2791588067913
-49.1864001393469
-47.3262882714652
-55.6695222915563
-86.7552580911595
-140.941254692781
-202.096233753445
-249.506766804995
-275.468619575132
-287.678737174513
-289.578583663934
-258.97385258825
-153.846001292579
51.7741912992306
335.606185112883
636.631451384483
904.063738496258
1137.86209929059
1374.48140037287
1626.26974145044
1836.2586894728
1902.21825841424
1756.63439192507
1429.72345351633
1034.0279364684
682.662890378871
415.267379817038
194.624092515712
-33.1149442154489
-278.279752183294
-501.20391356668
-654.309316622627
-724.102108278696
-735.415244179278
-724.415469800599
-713.756743574534
-710.20660685081
-715.626550240296
-731.806839662154
-754.78341017722
-770.990747737504
-764.899675818579
-731.773248537881
-681.638875596612
-630.449257345835
-588.421843241521
-556.820133513317
-533.175296185461
-516.072783103082
-504.005257748437
-492.079295087117
-473.021714933772
-442.520481713151
-402.825798725649
-360.636702864429
-322.151959306958
-290.613346117718
-267.262400902873
-252.127551058066
-242.598316499546
-232.555975037547
-215.464880647397
-189.721476528706
-160.466267875253
-135.066272481477
-116.56146508547
-101.883359593956
-86.2815686229678
-68.5065523298563
-51.0578687378238
-36.1132584664295
-22.6630388220503
-8.17362905542579
7.869386563664
23.2686757285342
35.9645149315704
46.5356462301336
57.1732864310255
68.6838666315759
79.5240653456063
88.0246772770067
94.7622431518418
101.964094250311
110.788385627702
120.030624126842
127.836276902728
134.083843114135
140.363298950883
147.721078665299
155.217652870352
161.154503641425
165.280045008408
169.064509551228
173.736835994397
178.693160724142
182.325921156018
184.127785681753
185.319597035651
187.257509647036
189.768907861576
191.569912489411
192.125745251484
192.449193814936
193.792045027584
195.97264532407
197.530926987885
197.486861723626
196.414104526352
195.498803667847
194.904180967419
193.610899350429
190.896847428967
187.451903690505
184.632568277197
182.826700318828
181.058443721427
178.324600116821
174.902692814091
171.950024341463
169.971793778708
168.190043091235
165.618921286854
162.399827335569
159.630848557003
157.920928619052
156.566706589739
154.419442720389
151.303014059378
148.15449845277
145.75222128393
143.72329738957
141.106980559378
137.683301083626
134.289539349939
131.708908309318
129.604025056081
126.901550128959
123.126156396596
118.950789941201
115.274991305014
112.067344227165
108.486934378324
104.092932589874
99.5207964559839
95.7188332089546
92.7408961966755
89.6779004799382
85.8247699900013
81.5768560180502
77.91795431401
75.19677857659
72.7862359094953
70.0330970983308
67.217203374466
65.2552865475725
64.5499850128525
64.4952329879248
64.2652470691563
63.828333046669
63.8589330571748
64.6957494777078
65.7440262269023
66.1063905663692
65.5881979690358
64.740861745159
63.9080558511709
62.581112171965
59.9602190072986
55.9979010033783
51.527925226319
47.2681280016944
42.9759412278355
37.8545842061501
31.6745675411131
25.1333446847558
18.9770360559209
13.0490655045911
6.54962441575199
-0.790978549413162
-8.14361982515486
-14.3869990096115
-19.2978993351376
-23.6431486183463
-28.1103470482517
-32.4962707573682
-36.1945843863643
-39.2952066377102
-42.7931589407614
-47.5675158577864
-53.406844777667
-59.3146982832324
-64.687029015527
-69.8554271431842
-75.3542728917667
-80.9458680959479
-85.729100528227
-89.2012206085544
-91.8690324738323
-94.591328151288
-97.5019830947221
-99.9153037060445
-101.327290308056
-102.1938430993
-103.468766338733
-105.513972690297
-107.80344998171
-109.774688218013
-111.65748046785
-114.147260080272
-117.337998218536
-120.33871367612
-122.126838827905
-122.581151694154
-122.405600527898
-122.10538302934
-121.395471601321
-119.807685696762
-117.63926435944
-115.911553108699
-115.316615671765
-115.489775919208
-115.548273387724
-115.193912010435
-114.955195305542
-115.294951928547
-115.808966835189
-115.604217130103
-114.358569442015
-112.642621343683
-111.063455028749
-109.372470525779
-106.750290242267
-102.926569219316
-98.6700158094254
-94.9974627930148
-92.1339003974212
-89.5698285186265
-87.079659239423
-85.2616254908897
-84.7968845539014
-85.3780008674816
-85.7758320844685
-85.057926364228
-83.4427671102407
-81.7226237968839
-80.0602926346404
-77.7858369704149
-74.468232676624
-70.7862922355006
-67.9297348539135
-66.2108403943796
-64.6879357035848
-62.3494142255577
-59.3702038784705
-56.8233816564124
-55.2357427538974
-53.9057024236666
-51.9090480074231
-49.4658775024397
-47.8061254084971
-47.6178993552307
-48.0688333953415
-47.714307689819
-46.1688483580318
-44.3977076897553
-43.2619332449023
-42.232375832167
-39.9747676149703
-36.0450515503529
-31.4479241202084
-27.2882948064292
-23.2770061930771
-18.0963610203062
-11.2163210069554
-3.82286041676298
2.36820161941023
6.90821468663421
10.7458501333586
14.6219956622803
17.9481068022601
19.7228710148369
20.2899567286825
21.546316389246
25.1881951012321
31.1424488096581
38.0871087602871
45.2327804846454
52.9414048264118
61.4193352327533
69.399240102395
74.7939495032935
76.6307499919938
75.7564844893727
73.3616994371599
69.2840442848174
62.3794311663447
52.4571423288389
