Value(μV)
73.8166427612305
67.9990539550781
56.8407211303711
45.9685020446777
34.1425819396973
22.6027698516846
14.9731435775757
14.4009208679199
20.409252166748
25.6546211242676
22.6027698516846
17.357400894165
10.3953666687012
-3.5287024974823
-17.4527721405029
-25.3685111999512
-28.9925842285156
-36.0499877929688
-40.7231369018555
-36.9083213806152
-36.1453590393066
-37.099063873291
-42.630542755127
-58.652759552002
-73.3397903442383
-83.925895690918
-90.3157119750977
-90.5064544677734
-90.0296020507813
-86.6916351318359
-84.8796005249023
-85.9286727905273
-87.8360824584961
-99.7573776245117
-108.817558288574
-108.912925720215
-114.921257019043
-115.302742004395
-105.479598999023
-100.711082458496
-99.948112487793
-100.424964904785
-104.62126159668
-109.485153198242
-113.013854980469
-116.542556762695
-121.406440734863
-126.07958984375
-127.033294677734
-123.599960327148
-119.59440612793
-118.259223937988
-117.019409179688
-113.299964904785
-112.441627502441
-114.730522155762
-116.542556762695
-119.68977355957
-120.548110961914
-118.068481445313
-118.259223937988
-117.877738952637
-114.062927246094
-112.346260070801
-115.302742004395
-116.924034118652
-114.34903717041
-112.346260070801
-112.823112487793
-110.915702819824
-110.248115539551
-110.152740478516
-104.812004089355
-100.615707397461
-98.7083053588867
-95.3703384399414
-89.8388595581055
-85.2610855102539
-85.4518280029297
-85.7379379272461
-79.9203414916992
-74.1027526855469
-75.247200012207
-75.4379425048828
-72.2907180786133
-72.1953506469727
-72.0046081542969
-69.1434936523438
-65.4240493774414
-62.9444236755371
-64.3749771118164
-66.1870193481445
-65.6147918701172
-59.5110931396484
-50.9277610778809
-49.1157264709473
-49.1157264709473
-44.3472061157227
-40.6277656555176
-39.864803314209
-39.4833221435547
-41.3907279968262
-41.0092468261719
-36.6222114562988
-38.6249885559082
-40.3416519165039
-32.4259147644043
-26.5129547119141
-28.4203605651855
-28.5157318115234
-25.3685111999512
-25.177770614624
-20.8861045837402
-6.48518323898315
6.1037015914917
10.5861072540283
17.357400894165
23.6518440246582
20.9814739227295
17.738883972168
15.8314762115479
17.1666603088379
24.1286964416504
30.8999900817871
43.5842437744141
61.7999801635742
70.9555358886719
75.6286773681641
85.2610855102539
88.8851547241211
87.1684875488281
84.2120132446289
72.0999755859375
57.7944259643555
44.1564674377441
30.70924949646
22.8888816833496
17.5481433868408
15.0685138702393
9.537034034729
-2.67036962509155
-12.4935140609741
-26.6083240509033
-58.3666496276855
-78.2990493774414
-66.854606628418
-62.9444236755371
-69.4296035766602
-67.9990539550781
-70.5740509033203
-75.7240524291992
-76.8684921264648
-75.247200012207
-73.7212753295898
-76.7731246948242
-76.9638671875
-73.2444229125977
-67.903678894043
-58.0805358886719
-53.3120193481445
-51.3092422485352
-41.6768379211426
-30.6138782501221
-23.0796222686768
-18.1203651428223
-21.5536975860596
-28.4203605651855
-38.0527648925781
-75.9147872924805
-144.295318603516
-215.250854492188
-260.361022949219
-264.366577148438
-263.985107421875
-282.200836181641
-260.265655517578
-162.034210205078
14.7824029922485
282.391571044922
561.349792480469
790.6201171875
1033.62377929688
1291.98193359375
1536.22546386719
1754.14660644531
1887.76049804688
1849.13549804688
1524.78100585938
1057.56164550781
721.667358398438
491.252624511719
266.369354248047
54.3610954284668
-186.258270263672
-455.870239257813
-647.087768554688
-729.869201660156
-734.446960449219
-681.89794921875
-634.022033691406
-621.71923828125
-631.637756347656
-667.210876464844
-716.135864257813
-749.324768066406
-758.003479003906
-735.496032714844
-680.085876464844
-608.558166503906
-537.984069824219
-479.617431640625
-444.998016357422
-442.32763671875
-459.685028076172
-475.039672851563
-477.233184814453
-457.777618408203
-416.291534423828
-360.309143066406
-297.269348144531
-243.480484008789
-210.959197998047
-199.419387817383
-204.474014282227
-213.057342529297
-215.82307434082
-209.814743041992
-187.402725219727
-147.44255065918
-102.141632080078
-63.3259048461914
-38.0527648925781
-29.9462871551514
-30.5185089111328
-32.3305435180664
-31.6629524230957
-24.1286964416504
-7.72499752044678
17.1666603088379
43.1073951721191
65.6147918701172
85.4518280029297
95.084228515625
93.8444137573242
96.0379333496094
100.138854980469
101.760154724121
109.866630554199
123.790702819824
137.905517578125
147.633285522461
154.213836669922
159.077728271484
162.892547607422
168.996246337891
171.380493164063
175.386047363281
184.064758300781
186.830490112305
186.353637695313
184.636978149414
185.87678527832
188.833267211914
183.587905883789
184.255493164063
191.694381713867
193.697158813477
197.607345581055
200.468460083008
198.561050415039
194.650863647461
184.541610717773
175.1953125
176.625869750977
181.489761352539
188.356414794922
194.36474609375
195.699935913086
195.509201049805
188.737899780273
176.053649902344
165.372161865234
155.358276367188
154.404586791992
160.985137939453
165.372161865234
171.761978149414
175.862899780273
171.189758300781
161.366607666016
146.679580688477
133.518478393555
127.986999511719
125.030517578125
123.599960327148
129.036071777344
140.385147094727
148.968475341797
144.199951171875
131.611068725586
120.643478393555
106.814781188965
95.3703384399414
96.2286758422852
99.948112487793
101.855522155762
108.054595947266
111.964782714844
109.199035644531
104.239784240723
93.8444137573242
78.1083068847656
66.6638641357422
58.652759552002
53.121280670166
59.3203506469727
70.4786834716797
79.1573791503906
84.5934906005859
81.5416412353516
72.3860855102539
62.4675712585449
53.121280670166
46.4453544616699
43.3935050964355
49.2110939025879
63.1351661682129
74.9610900878906
76.8684921264648
72.1953506469727
64.9472045898438
51.1185035705566
35.0962867736816
26.4175834655762
21.839807510376
20.9814739227295
25.177770614624
28.5157318115234
27.943510055542
21.3629570007324
12.302773475647
2.8611102104187
-11.635181427002
-27.943510055542
-37.6712837219238
-37.0036926269531
-33.1888771057129
-30.70924949646
-28.5157318115234
-32.9027671813965
-42.8212814331055
-56.6499824523926
-70.0018310546875
-78.7759017944336
-85.1657104492188
-87.9314498901367
-85.8333053588867
-79.6342315673828
-74.9610900878906
-78.6805267333984
-81.16015625
-85.3564529418945
-97.3731155395508
-106.528671264648
-114.062927246094
-115.779594421387
-109.771263122559
-107.482376098633
-106.624038696289
-106.242561340332
-111.297187805176
-112.25089263916
-112.25089263916
-119.785148620605
-123.218475341797
-121.120330810547
-117.973114013672
-114.539779663086
-112.823112487793
-109.96199798584
-107.100891113281
-108.054595947266
-109.00830078125
-110.057373046875
-114.062927246094
-114.158294677734
-109.96199798584
-109.96199798584
-110.438850402832
-106.624038696289
-105.098114013672
-105.956443786621
-106.242561340332
-105.384223937988
-102.52311706543
-99.8527450561523
-98.4221878051758
-98.1360778808594
-97.849967956543
-98.9944152832031
-103.381446838379
-103.190704345703
-95.3703384399414
-93.9397811889648
-97.7546005249023
-94.2258987426758
-90.220344543457
-88.7897872924805
-84.6888580322266
-78.2990493774414
-75.6286773681641
-74.3888626098633
-70.5740509033203
-68.8573837280273
-69.4296035766602
-65.9009017944336
-61.7999801635742
-63.3259048461914
-62.3722038269043
-55.6009063720703
-55.219425201416
-58.1759071350098
-57.6990547180176
-54.0749816894531
-51.0231323242188
-50.355541229248
-46.0638732910156
-43.5842437744141
-44.9194297790527
-45.4916534423828
-46.0638732910156
-40.6277656555176
-36.7175827026367
-38.7203598022461
-33.2842483520508
-23.5564746856689
-19.5509204864502
-20.409252166748
-21.9351787567139
-26.7990646362305
-34.810173034668
-36.431468963623
-31.4722118377686
-24.9870281219482
-15.35462474823
-4.57777643203735
0.762962698936462
3.33796191215515
5.91296100616455
10.2999963760376
17.1666603088379
19.7416610717773
15.4499950408936
12.4935140609741
15.9268465042114
26.4175834655762
39.7694320678711
46.2546157836914
49.5925750732422
57.6990547180176
62.2768325805664
64.2796096801758
69.1434936523438
76.0101623535156
88.2175674438477
98.5175628662109
94.5120086669922
78.7759017944336
64.5657196044922
54.4564628601074
39.9601707458496
27.3712882995605
27.657398223877
27.3712882995605
20.1231422424316
17.9296245574951
10.8722190856934
-13.8286991119385
-39.5786895751953
-51.7860946655273
-56.6499824523926
-63.3259048461914
-70.9555358886719
-73.7212753295898
-75.7240524291992
-77.7268295288086
-72.4814605712891
-65.9962768554688
-61.7999801635742
-56.3638725280762
-52.2629470825195
-55.1240577697754
-60.8462753295898
-57.5083160400391
-48.734245300293
-38.3388748168945
-25.9407329559326
-16.7851791381836
-11.9212923049927
-14.7824029922485
-20.6953639984131
-24.3194370269775
-44.7286911010742
-93.9397811889648
-164.704574584961
-236.232330322266
-271.614715576172
-264.461944580078
-260.456390380859
-270.947143554688
-242.622146606445
-145.725875854492
38.2435073852539
306.424896240234
565.832214355469
788.712707519531
1037.34313964844
1297.03662109375
1549.57727050781
1764.92346191406
1879.17712402344
1813.27624511719
1461.93188476563
993.568176269531
674.840515136719
459.017456054688
246.913803100586
39.1018409729004
-199.324005126953
-457.110046386719
-639.648864746094
-714.705322265625
-714.514587402344
-676.461791992188
-640.030334472656
-622.291442871094
-633.163696289063
-669.595153808594
-714.419189453125
-751.232177734375
-758.194213867188
-730.536804199219
-676.557189941406
-607.604431152344
-537.793334960938
-481.524841308594
-451.864685058594
-448.240600585938
-462.164672851563
-478.759094238281
-479.903564453125
-456.156341552734
-410.760040283203
-353.156372070313
-293.168426513672
-245.292510986328
-217.348999023438
-208.861038208008
-214.487899780273
-221.449935913086
-221.736038208008
-211.62678527832
-181.299011230469
-141.052734375
-106.051818847656
-72.2907180786133
-44.0610961914063
-32.1398048400879
-33.3796195983887
-37.4805450439453
-37.9573936462402
-34.9055442810059
-20.8861045837402
7.0574049949646
33.761100769043
57.2222023010254
77.0592346191406
84.0212707519531
87.1684875488281
88.8851547241211
87.6453399658203
90.6971969604492
99.6620025634766
114.25366973877
130.943481445313
144.104583740234
151.63883972168
154.213836669922
155.549026489258
157.361053466797
159.268463134766
164.036987304688
174.718460083008
183.492538452148
185.495315551758
186.735122680664
188.642532348633
184.827713012695
179.677719116211
180.440689086914
186.258270263672
195.032348632813
196.55827331543
191.503646850586
191.026794433594
189.214752197266
186.353637695313
186.162902832031
182.634201049805
182.061981201172
188.451797485352
193.792526245117
192.934204101563
186.258270263672
179.963836669922
176.530502319336
171.571243286133
163.369384765625
156.598098754883
157.837905883789
165.372161865234
171.952728271484
173.09716796875
168.424026489258
158.028656005859
146.393478393555
136.474960327148
125.888847351074
124.649032592773
128.654586791992
127.986999511719
138.096252441406
149.445327758789
144.581436157227
138.573104858398
130.752731323242
115.684219360352
104.907371520996
99.2805252075195
99.1851501464844
104.525894165039
109.00830078125
113.586074829102
111.869407653809
101.664779663086
91.8416366577148
76.8684921264648
58.9388694763184
53.5027618408203
60.274055480957
67.7129440307617
75.6286773681641
83.4490509033203
85.1657104492188
81.3508987426758
74.0073852539063
64.5657196044922
56.0777587890625
51.9768333435059
50.6416511535645
52.2629470825195
62.2768325805664
71.4323883056641
73.8166427612305
73.2444229125977
66.1870193481445
54.8379440307617
44.0610961914063
31.2814712524414
23.4611034393311
26.1314735412598
26.4175834655762
26.1314735412598
29.3740653991699
26.8944358825684
16.30832862854
-1.9074068069458
-18.5972156524658
-25.0823993682861
-32.04443359375
-37.0036926269531
-33.3796195983887
-30.0416564941406
-28.9925842285156
-32.4259147644043
-38.8157272338867
-44.6333198547363
-57.1268348693848
-68.9527587890625
-74.7703475952148
-79.4434967041016
-77.9175643920898
-79.1573791503906
-83.4490509033203
-79.2527542114258
-83.1629333496094
-96.9916381835938
-104.62126159668
-110.534225463867
-114.730522155762
-111.678665161133
-111.774040222168
-112.823112487793
-104.62126159668
-97.4684906005859
-104.144409179688
-110.724967956543
-110.629592895508
-116.924034118652
-122.93236541748
-121.69255065918
-122.074035644531
-121.597183227539
-115.779594421387
-109.00830078125
-106.624038696289
-109.00830078125
-110.534225463867
-112.537002563477
-115.588851928711
-114.921257019043
-114.539779663086
-113.586074829102
-110.343482971191
-108.626815795898
-109.675888061523
-110.724967956543
-109.485153198242
-106.624038696289
-102.427742004395
-102.809226989746
-107.387001037598
-103.476821899414
-97.6592254638672
-94.9888610839844
-90.8879318237305
-89.7434921264648
-89.7434921264648
-85.6425628662109
-81.3508987426758
-81.7323837280273
-82.2092361450195
-79.06201171875
-80.0157165527344
-79.9203414916992
-77.8221969604492
-79.729606628418
-78.6805267333984
-75.9147872924805
-70.0018310546875
-61.7046089172363
-61.99072265625
-64.9472045898438
-63.8981285095215
-62.3722038269043
-61.8953514099121
-63.2305335998535
-59.7972030639648
-52.3583183288574
-47.3036880493164
-45.2055397033691
-46.3499870300293
-46.3499870300293
-48.1620216369629
-50.0694274902344
-45.300910949707
-43.2981338500977
-44.5379486083984
-39.864803314209
-34.7148017883301
-31.1861019134521
-24.891658782959
-20.5046234130859
-22.5074005126953
-25.177770614624
-24.5101776123047
-22.8888816833496
-21.4583263397217
-18.5018463134766
-12.0166625976563
-6.29444265365601
-6.00833129882813
-4.57777643203735
4.38703584671021
11.1583299636841
11.635181427002
20.8861045837402
33.2842483520508
32.6166572570801
29.4694347381592
33.2842483520508
36.3360977172852
37.4805450439453
42.2490615844727
49.4018363952637
57.8897972106934
61.5138702392578
62.8490524291992
69.8110885620117
75.247200012207
81.9231185913086
96.0379333496094
99.4712677001953
83.2583084106445
65.6147918701172
55.4101676940918
40.8185043334961
26.0361022949219
23.6518440246582
29.4694347381592
31.0907306671143
28.2296199798584
22.4120292663574
7.72499752044678
-13.6379585266113
-38.0527648925781
-51.3092422485352
-48.734245300293
-52.453685760498
-60.9416465759277
-60.274055480957
-59.5110931396484
-64.4703521728516
-67.3314590454102
-70.0971984863281
-72.0046081542969
-69.0481262207031
-65.0425720214844
-61.0370178222656
-57.7944259643555
-49.4972076416016
-35.382396697998
-26.226842880249
-20.409252166748
-12.3981437683105
-6.77129411697388
-10.1092557907104
-19.4555492401123
-26.5129547119141
-49.6879463195801
-107.86385345459
-184.160125732422
-246.246215820313
-267.609161376953
-263.794372558594
-274.952697753906
-280.102691650391
-224.120300292969
-91.8416366577148
127.510147094727
403.035064697266
645.6572265625
866.248779296875
1116.40515136719
1374.95422363281
1619.29296875
1800.68737792969
1867.5419921875
1712.18371582031
1286.83203125
857.283996582031
594.443298339844
380.718383789063
172.143463134766
-33.1888771057129
-287.732330322266
-529.877624511719
-673.791442871094
-726.626647949219
-710.127563476563
-667.592407226563
-636.883117675781
-625.534057617188
-645.6572265625
-688.764587402344
-731.109008789063
-759.720153808594
-762.390502929688
-726.340515136719
-659.676635742188
-581.663696289063
-508.896118164063
-461.973937988281
-447.477630615234
-456.442443847656
-472.083190917969
-481.715576171875
-477.137817382813
-447.096160888672
-396.263763427734
-338.850830078125
-281.914733886719
-236.804550170898
-216.013824462891
-213.820297241211
-219.733261108398
-226.59992980957
-222.880477905273
-203.520309448242
-171.761978149414
-132.087921142578
-92.6045989990234
-59.6064605712891
-37.9573936462402
-33.2842483520508
-35.382396697998
-33.4749908447266
-30.0416564941406
-20.6953639984131
-2.09814739227295
20.1231422424316
42.0583190917969
62.7536849975586
78.9666442871094
86.7870101928711
88.1221923828125
87.3592300415039
85.1657104492188
87.8360824584961
97.849967956543
113.776817321777
130.848098754883
137.619400024414
140.766616821289
148.968475341797
153.641616821289
152.592544555664
152.211059570313
156.216613769531
163.941619873047
172.143463134766
174.813827514648
176.339752197266
181.394393920898
182.634201049805
182.443466186523
187.307342529297
192.743453979492
194.841598510742
195.509201049805
193.983276367188
188.547164916992
182.920318603516
179.677719116211
172.048095703125
170.522171020508
182.157348632813
189.596237182617
193.124938964844
199.228637695313
197.511978149414
188.165679931641
175.862899780273
161.748092651367
156.884216308594
159.936065673828
159.936065673828
163.083282470703
171.285125732422
174.623092651367
170.426803588867
159.554580688477
144.772171020508
132.278656005859
124.458290100098
124.362922668457
130.180511474609
135.711990356445
138.668472290039
139.526809692383
137.810134887695
128.845321655273
114.635147094727
104.62126159668
97.9453353881836
97.4684906005859
105.670333862305
112.918479919434
119.975891113281
123.409217834473
114.34903717041
104.144409179688
95.8471908569336
76.1055297851563
58.5573883056641
56.3638725280762
57.6990547180176
64.4703521728516
77.345344543457
85.5471954345703
88.0268249511719
85.0703430175781
75.7240524291992
63.039794921875
52.6444282531738
48.066650390625
52.1675758361816
60.0833129882813
69.0481262207031
79.1573791503906
80.778678894043
74.198127746582
64.4703521728516
50.1647987365723
36.2407302856445
27.4666576385498
21.9351787567139
22.0305480957031
24.6055469512939
22.6027698516846
23.6518440246582
24.1286964416504
13.3518476486206
-1.14444410800934
-16.7851791381836
-29.3740653991699
-32.4259147644043
-31.7583236694336
-30.4231376647949
-27.2759170532227
-25.8453617095947
-27.5620288848877
-34.6194343566895
-45.6823921203613
-56.3638725280762
-67.1407165527344
-75.8194198608398
-79.3481216430664
-79.06201171875
-79.1573791503906
-79.4434967041016
-80.5879364013672
-85.6425628662109
-91.3647842407227
-98.1360778808594
-109.294410705566
-114.921257019043
-106.814781188965
-101.283302307129
-105.002746582031
-106.528671264648
-107.86385345459
-109.199035644531
-110.343482971191
-117.973114013672
-122.455513000488
-122.550888061523
-125.316627502441
-125.984222412109
-124.362922668457
-120.262001037598
-115.111999511719
-116.828666687012
-120.73885345459
-122.455513000488
-125.888847351074
-126.556442260742
-122.264778137207
-121.787925720215
-123.123107910156
-117.973114013672
-110.915702819824
-106.051818847656
-104.239784240723
-105.002746582031
-102.809226989746
-102.713859558105
-103.476821899414
-98.4221878051758
-96.13330078125
-97.2777481079102
-93.4629364013672
-91.1740417480469
-92.2231216430664
-89.3620071411133
-86.5962677001953
-85.0703430175781
-81.0647888183594
-81.7323837280273
-83.4490509033203
-77.6314544677734
-73.3397903442383
-73.9120101928711
-72.0046081542969
-67.9990539550781
-65.4240493774414
-64.8518295288086
-62.6583137512207
-59.6064605712891
-61.0370178222656
-60.1786842346191
-55.887020111084
-59.701831817627
-63.6120147705078
-57.3175735473633
-50.2601699829102
-48.734245300293
-46.6360969543457
-40.913875579834
-41.1046180725098
-46.5407257080078
-45.4916534423828
-41.8675804138184
-41.0092468261719
-39.864803314209
-39.6740608215332
-37.5759124755859
-31.7583236694336
-26.1314735412598
-22.7935104370117
-22.2212886810303
-23.5564746856689
-25.8453617095947
-22.6981410980225
-15.8314762115479
-10.6814785003662
-3.62407302856445
-0.0953703373670578
-1.9074068069458
-4.67314672470093
-8.67870044708252
-9.537034034729
-7.6296272277832
-6.96203470230103
-2.28888821601868
10.1092557907104
25.2731399536133
37.3851737976074
43.679615020752
43.1073951721191
37.1944313049316
28.0388793945313
22.2212886810303
26.7036952972412
36.2407302856445
44.3472061157227
57.2222023010254
71.0509033203125
78.1083068847656
80.5879364013672
84.0212707519531
94.5120086669922
103.095336914063
100.234230041504
87.9314498901367
71.9092330932617
60.4647941589355
51.1185035705566
43.8703575134277
42.0583190917969
39.197208404541
32.2351760864258
19.7416610717773
1.81203651428223
-13.6379585266113
-26.226842880249
-41.0092468261719
-47.7805404663086
-41.8675804138184
-41.2953567504883
-51.2138710021973
-61.0370178222656
-66.7592391967773
-69.4296035766602
-70.4786834716797
-69.8110885620117
-63.4212760925293
-53.4073905944824
-46.3499870300293
-41.5814666748047
-38.7203598022461
-39.4833221435547
-38.148136138916
-32.04443359375
-28.5157318115234
-22.5074005126953
-12.0166625976563
-9.44166374206543
-13.1611070632935
-20.0277709960938
-54.8379440307617
-123.504592895508
-204.092529296875
-267.227691650391
-276.192504882813
-267.990661621094
-285.538787841797
-271.042510986328
-190.263824462891
-41.6768379211426
197.893447875977
465.121154785156
688.955322265625
918.130249023438
1163.70886230469
1409.28747558594
1647.61804199219
1809.27075195313
1832.25500488281
1596.02258300781
1141.77368164063
766.205322265625
533.120178222656
321.111938476563
115.302742004395
-108.054595947266
-369.083221435547
-575.941467285156
-678.178466796875
-709.555297851563
-681.993286132813
-635.643310546875
-614.375732421875
-618.190551757813
-650.139587402344
-700.876647949219
-741.50439453125
-757.335876464844
-744.174743652344
-695.822021484375
-621.147033691406
-544.087768554688
-483.432250976563
-450.052642822266
-441.278564453125
-445.474853515625
-458.826690673828
-467.219299316406
-452.913757324219
-420.678558349609
-377.285064697266
-320.348968505859
-266.178619384766
-230.79621887207
-216.395294189453
-215.060119628906
-217.444381713867
-225.074005126953
-220.496231079102
-191.789749145508
-156.598098754883
-121.215698242188
-82.9721984863281
-55.7916488647461
-46.6360969543457
-42.9166526794434
-39.6740608215332
-38.9110984802246
-29.3740653991699
-6.58055353164673
15.9268465042114
32.8073959350586
51.0231323242188
69.3342361450195
79.3481216430664
81.5416412353516
81.16015625
82.1138610839844
84.8796005249023
91.0786743164063
104.144409179688
116.256446838379
128.463851928711
142.387924194336
147.633285522461
151.352722167969
158.1240234375
155.167541503906
151.066619873047
156.598098754883
160.22216796875
162.129577636719
168.80549621582
174.718460083008
180.154571533203
183.206420898438
185.590682983398
188.451797485352
190.549942016602
196.55827331543
199.037902832031
191.408279418945
182.824935913086
178.247161865234
179.963836669922
184.064758300781
185.018463134766
190.549942016602
196.939758300781
194.55549621582
189.977722167969
184.255493164063
171.952728271484
165.944396972656
167.088836669922
159.554580688477
154.786056518555
162.224945068359
170.140686035156
175.481430053711
171.571243286133
158.791610717773
144.295318603516
128.559219360352
120.452735900879
117.686996459961
117.400886535645
122.550888061523
128.082366943359
130.848098754883
133.613845825195
135.425888061523
129.703659057617
116.065704345703
102.809226989746
99.1851501464844
99.8527450561523
97.182373046875
98.0407104492188
105.288856506348
108.817558288574
102.809226989746
93.367561340332
80.8740463256836
65.2333145141602
53.5027618408203
47.1129493713379
50.832389831543
61.7999801635742
73.5305328369141
82.0184936523438
79.06201171875
70.6694183349609
58.9388694763184
45.9685020446777
41.4860992431641
39.2925796508789
42.0583190917969
52.7397994995117
59.0342407226563
61.0370178222656
57.8897972106934
50.6416511535645
46.9222068786621
37.6712837219238
25.9407329559326
25.5592517852783
28.7064723968506
32.1398048400879
32.2351760864258
24.6055469512939
13.6379585266113
-3.43333220481873
-19.2648086547852
-24.3194370269775
-31.6629524230957
-39.6740608215332
-35.5731353759766
-31.2814712524414
-29.0879535675049
-28.4203605651855
-38.8157272338867
-50.0694274902344
-58.7481307983398
-64.9472045898438
-69.8110885620117
-74.2934951782227
-70.4786834716797
-67.7129440307617
-70.0018310546875
-69.6203460693359
-70.6694183349609
-75.4379425048828
-80.778678894043
-90.5064544677734
-103.667556762695
-109.866630554199
-109.580520629883
-109.103668212891
-105.002746582031
-97.4684906005859
-94.1305236816406
-95.4657135009766
-101.187927246094
-115.970336914063
-126.07958984375
-121.024963378906
-114.921257019043
-113.20458984375
-103.953666687012
-93.367561340332
-93.367561340332
-97.3731155395508
-96.5147857666016
-97.4684906005859
-108.722190856934
-114.730522155762
-109.389778137207
-109.866630554199
-112.918479919434
-112.537002563477
-109.199035644531
-98.9944152832031
-93.8444137573242
-96.7055282592773
-95.1795959472656
-98.1360778808594
-103.572189331055
-94.8934860229492
-88.9805297851563
-91.5555267333984
-87.5499725341797
-85.5471954345703
-88.2175674438477
-87.3592300415039
-83.5444183349609
-75.9147872924805
-72.6721954345703
-72.8629379272461
-66.0916442871094
-62.4675712585449
-64.1842422485352
-59.701831817627
-58.1759071350098
-59.7972030639648
-58.9388694763184
-61.8953514099121
-63.9934997558594
-61.0370178222656
-64.5657196044922
-70.8601608276367
-70.3833084106445
-71.9092330932617
-74.7703475952148
-69.9064559936523
-59.1296119689941
-46.8268356323242
-32.9981384277344
-25.2731399536133
-28.9925842285156
-29.278694152832
-27.4666576385498
-31.6629524230957
-34.9055442810059
-34.2379531860352
-28.3249912261963
-19.7416610717773
-14.0194396972656
-10.204626083374
-10.6814785003662
-9.72777462005615
-2.00277709960938
0.9537034034729
-1.71666610240936
1.33518481254578
7.72499752044678
16.4036979675293
26.1314735412598
35.2870254516602
46.0638732910156
50.4509086608887
56.3638725280762
65.805534362793
70.6694183349609
73.6259002685547
73.3397903442383
76.2009048461914
67.6175689697266
50.5462799072266
47.1129493713379
41.0092468261719
35.1916542053223
35.9546165466309
23.3657341003418
8.58333015441895
3.43333220481873
-3.8148136138916
-23.3657341003418
-50.5462799072266
-63.8027572631836
-64.756462097168
-73.0536804199219
-88.4083023071289
-100.138854980469
-103.190704345703
-98.2314529418945
-87.8360824584961
-79.8249740600586
-79.3481216430664
-78.012939453125
-81.6370086669922
-90.1249694824219
-89.6481170654297
-87.0731201171875
-81.7323837280273
-65.9009017944336
-44.1564674377441
-26.8944358825684
-20.5046234130859
-16.4036979675293
-17.4527721405029
-36.1453590393066
-81.16015625
-152.974029541016
-224.883255004883
-260.742523193359
-253.780471801758
-233.275848388672
-228.507339477539
-232.79899597168
-190.16845703125
-49.0203552246094
169.473098754883
407.231353759766
626.583129882813
829.721984863281
1032.28857421875
1256.12280273438
1495.025390625
1690.72534179688
1732.40222167969
1484.63012695313
1073.67932128906
739.6923828125
485.625762939453
279.816589355469
100.711082458496
-100.234230041504
-309.476745605469
-486.388732910156
-596.732238769531
-630.39794921875
-598.0673828125
-537.697998046875
-502.22021484375
-510.135955810547
-547.234985351563
-599.307189941406
-652.428466796875
-678.559997558594
-671.216430664063
-637.455322265625
-576.322937011719
-502.792419433594
-439.943389892578
-400.555419921875
-386.822113037109
-393.402648925781
-406.945251464844
-410.664672851563
-403.893402099609
-382.911926269531
-335.322113037109
-275.238800048828
-225.932342529297
-193.792526245117
-180.917541503906
-182.920318603516
-188.451797485352
-190.16845703125
-187.116607666016
-171.857345581055
-135.330505371094
-96.0379333496094
-68.5712738037109
-42.7259140014648
-25.177770614624
-21.839807510376
-19.4555492401123
-20.9814739227295
-23.5564746856689
-12.7796258926392
8.0111083984375
32.04443359375
53.4073905944824
71.7184982299805
89.7434921264648
91.9370040893555
81.9231185913086
80.111083984375
84.3073806762695
91.6508941650391
103.381446838379
115.111999511719
126.842552185059
138.477737426758
145.535140991211
149.54069519043
151.924957275391
150.112915039063
153.73698425293
164.704574584961
167.851791381836
168.328643798828
176.435134887695
180.536056518555
178.437911987305
176.625869750977
178.628646850586
183.015686035156
180.726791381836
177.48420715332
182.157348632813
187.211975097656
186.353637695313
178.819381713867
170.903656005859
175.767532348633
184.636978149414
178.914764404297
171.380493164063
176.053649902344
179.010131835938
173.860122680664
171.189758300781
166.898101806641
155.453659057617
146.870330810547
145.058288574219
149.063842773438
157.933288574219
168.042541503906
173.001800537109
164.51383972168
151.352722167969
143.627731323242
129.608291625977
113.681442260742
111.869407653809
117.210144042969
121.69255065918
124.839775085449
124.267555236816
115.302742004395
101.569412231445
96.9916381835938
96.13330078125
90.220344543457
87.4546051025391
87.2638626098633
89.7434921264648
98.9944152832031
103.476821899414
102.52311706543
97.9453353881836
78.8712692260742
60.4647941589355
56.7453536987305
48.6388740539551
41.1046180725098
48.734245300293
58.4620170593262
62.3722038269043
61.6092376708984
59.5110931396484
53.9796104431152
36.0499877929688
18.1203651428223
20.3138828277588
30.1370277404785
28.7064723968506
29.7555465698242
39.6740608215332
37.7666549682617
26.7036952972412
23.3657341003418
14.7824029922485
-0.9537034034729
-4.1962947845459
-0.190740674734116
1.81203651428223
4.86388731002808
0.47685170173645
-6.29444265365601
-7.82036781311035
-19.5509204864502
-38.2435073852539
-43.2027626037598
-46.2546157836914
-49.4018363952637
-42.630542755127
-40.0555419921875
-38.9110984802246
-39.864803314209
-50.1647987365723
-60.8462753295898
-70.0018310546875
-71.6231231689453
-68.5712738037109
-72.6721954345703
-77.7268295288086
-75.9147872924805
-76.7731246948242
-83.8305282592773
-85.7379379272461
-86.5962677001953
-91.3647842407227
-95.4657135009766
-101.187927246094
-99.2805252075195
-92.1277465820313
-93.5583038330078
-93.4629364013672
-90.9833068847656
-93.8444137573242
-102.046264648438
-107.673110961914
-105.76570892334
-106.337928771973
-103.476821899414
-96.9916381835938
-92.986083984375
-83.7351608276367
-77.9175643920898
-81.827751159668
-80.9694213867188
-79.4434967041016
-82.9721984863281
-89.3620071411133
-100.52033996582
-103.858299255371
-96.13330078125
-94.2258987426758
-88.5990447998047
-77.2499771118164
-74.5796051025391
-70.6694183349609
-68.1897964477539
-77.2499771118164
-82.0184936523438
-78.2990493774414
-76.5823822021484
-74.0073852539063
-68.2851638793945
-67.2360916137695
-68.7620162963867
-68.4759063720703
-62.4675712585449
-54.5518341064453
-56.5546112060547
-51.7860946655273
-45.1101722717285
-52.453685760498
-54.4564628601074
-58.4620170593262
-69.4296035766602
-69.7157211303711
-68.0944213867188
-64.0888671875
-53.5981292724609
-51.0231323242188
-56.4592399597168
-55.6962776184082
-45.4916534423828
-38.2435073852539
-37.5759124755859
-47.3036880493164
-58.0805358886719
-53.8842430114746
-44.1564674377441
-34.3333206176758
-21.5536975860596
-15.0685138702393
-17.8342533111572
-23.1749935150146
-23.5564746856689
-13.0657367706299
-3.147221326828
-2.47962880134583
-2.28888821601868
-3.71944332122803
-1.81203651428223
10.8722190856934
16.4990692138672
16.022216796875
27.2759170532227
38.8157272338867
47.1129493713379
60.7509078979492
74.6749725341797
82.1138610839844
83.6397857666016
81.2555313110352
73.2444229125977
57.6990547180176
42.0583190917969
38.6249885559082
39.7694320678711
34.5240631103516
27.3712882995605
19.360179901123
8.0111083984375
-7.43888664245605
-40.4370231628418
-79.5388641357422
-90.4110794067383
-81.9231185913086
-85.9286727905273
-97.9453353881836
-100.329597473145
-100.615707397461
-106.528671264648
-109.294410705566
-101.855522155762
-92.4138565063477
-93.8444137573242
-92.5092315673828
-80.0157165527344
-78.394416809082
-82.6860809326172
-72.4814605712891
-59.3203506469727
-48.066650390625
-42.0583190917969
-47.6851692199707
-45.4916534423828
-37.9573936462402
-54.4564628601074
-97.849967956543
-154.595321655273
-213.915664672852
-250.537887573242
-253.112884521484
-243.289733886719
-244.052703857422
-249.774917602539
-186.162902832031
-16.5944385528564
204.092529296875
439.371154785156
664.921997070313
860.908081054688
1055.3681640625
1286.259765625
1521.25231933594
1685.57543945313
1669.45776367188
1383.06066894531
982.695983886719
658.055358886719
418.9619140625
242.240661621094
62.4675712585449
-154.881439208984
-368.606353759766
-537.793334960938
-631.828491210938
-648.422912597656
-601.500732421875
-539.796142578125
-514.332214355469
-520.340576171875
-550.859069824219
-602.168334960938
-647.373840332031
-666.638671875
-657.387756347656
-620.288696289063
-558.870178222656
-488.200775146484
-424.111907958984
-380.909149169922
-368.129516601563
-377.475799560547
-400.364685058594
-423.444305419922
-414.670227050781
-375.377655029297
-324.259155273438
-263.222137451172
-213.438827514648
-185.97216796875
-171.189758300781
-172.238830566406
-181.203643798828
-183.301788330078
-178.628646850586
-165.086059570313
-138.85920715332
-102.332374572754
-63.6120147705078
-31.3768424987793
-11.4444408416748
-7.34351634979248
-11.635181427002
-16.8805503845215
-18.5018463134766
-6.6759238243103
17.5481433868408
40.3416519165039
56.3638725280762
67.5222015380859
80.3018264770508
96.3240432739258
98.4221878051758
95.3703384399414
101.092559814453
99.4712677001953
100.901817321777
119.880516052246
139.622177124023
151.73420715332
160.031433105469
160.985137939453
154.976806640625
154.595321655273
157.265686035156
159.173095703125
165.086059570313
171.666610717773
181.299011230469
183.77864074707
172.334197998047
166.135131835938
170.617538452148
180.059204101563
189.214752197266
190.549942016602
186.639755249023
183.969390869141
185.113830566406
184.636978149414
178.342529296875
172.906433105469
171.857345581055
175.672164916992
180.726791381836
182.634201049805
181.394393920898
176.435134887695
168.328643798828
161.748092651367
158.219390869141
150.971252441406
147.156433105469
158.1240234375
166.325866699219
165.753646850586
163.369384765625
152.401809692383
141.815689086914
133.327728271484
121.501815795898
118.354591369629
119.308296203613
119.880516052246
127.796257019043
135.044403076172
132.46940612793
121.787925720215
107.100891113281
95.3703384399414
87.0731201171875
80.0157165527344
78.2990493774414
83.5444183349609
90.9833068847656
96.6101531982422
95.1795959472656
83.4490509033203
74.6749725341797
64.8518295288086
50.5462799072266
45.3962821960449
45.6823921203613
52.453685760498
63.7073860168457
67.4268264770508
69.3342361450195
73.6259002685547
67.9990539550781
50.4509086608887
33.2842483520508
22.4120292663574
18.6925868988037
25.9407329559326
36.431468963623
41.8675804138184
47.017578125
47.1129493713379
35.9546165466309
22.2212886810303
10.7768487930298
1.9074068069458
-6.1037015914917
-11.0629596710205
-8.48795986175537
-3.5287024974823
2.28888821601868
0.572222054004669
-11.1583299636841
-20.5046234130859
-30.1370277404785
-41.4860992431641
-45.4916534423828
-47.6851692199707
-50.7370223999023
-49.5925750732422
-50.1647987365723
-48.5435028076172
-45.7777633666992
-54.5518341064453
-65.2333145141602
-74.5796051025391
-84.0212707519531
-83.1629333496094
-81.4462738037109
-81.5416412353516
-73.3397903442383
-64.5657196044922
-61.7999801635742
-65.6147918701172
-77.9175643920898
-87.8360824584961
-87.6453399658203
-87.8360824584961
-91.9370040893555
-91.4601593017578
-86.1194152832031
-84.2120132446289
-84.5934906005859
-85.9286727905273
-93.4629364013672
-101.474044799805
-102.809226989746
-105.384223937988
-110.438850402832
-106.719413757324
-91.7462692260742
-78.5851593017578
-78.7759017944336
-82.5907135009766
-81.3508987426758
-82.7814559936523
-84.1166381835938
-85.8333053588867
-92.6999740600586
-93.9397811889648
-91.5555267333984
-90.6971969604492
-85.4518280029297
-78.7759017944336
-77.0592346191406
-81.3508987426758
-84.5934906005859
-80.8740463256836
-79.2527542114258
-78.4897918701172
-69.0481262207031
-59.8925743103027
-60.7509078979492
-64.5657196044922
-66.1870193481445
-70.6694183349609
-74.8657150268555
-71.9092330932617
-65.9009017944336
-63.039794921875
-67.4268264770508
-72.1953506469727
-69.4296035766602
-63.8027572631836
-59.4157218933105
-52.1675758361816
-47.3990592956543
-50.1647987365723
-50.4509086608887
-48.9249839782715
-51.404613494873
-52.453685760498
-52.6444282531738
-51.404613494873
-44.7286911010742
-42.630542755127
-45.8731346130371
-42.7259140014648
-40.7231369018555
-43.2981338500977
-42.630542755127
-41.7722091674805
-38.9110984802246
-37.6712837219238
-35.9546165466309
-25.177770614624
-16.2129573822021
-12.6842555999756
-11.2537002563477
-8.96481227874756
0
3.8148136138916
-0.47685170173645
-0.286111027002335
5.62685012817383
15.5453653335571
25.177770614624
22.6981410980225
21.2675857543945
34.0472106933594
43.7749862670898
47.017578125
52.453685760498
57.6990547180176
65.5194244384766
73.2444229125977
74.7703475952148
77.1546020507813
83.7351608276367
81.16015625
69.7157211303711
59.1296119689941
46.1592445373535
31.4722118377686
21.7444381713867
19.8370304107666
20.5046234130859
18.4064750671387
12.3981437683105
-2.00277709960938
-28.4203605651855
-53.5981292724609
-66.854606628418
-77.5360870361328
-89.7434921264648
-94.416633605957
-93.6536712646484
-92.2231216430664
-88.6944122314453
-83.0675659179688
-80.2064590454102
-80.3018264770508
-80.778678894043
-81.827751159668
-78.9666442871094
-68.3805313110352
-59.4157218933105
-58.1759071350098
-46.5407257080078
-27.3712882995605
-26.0361022949219
-30.2323970794678
-26.8944358825684
-30.6138782501221
-52.8351669311523
-103.572189331055
-174.336975097656
-236.518447875977
-264.271209716797
-256.260101318359
-253.303619384766
-271.805480957031
-252.922134399414
-154.976806640625
17.9296245574951
265.129547119141
523.869262695313
739.501586914063
965.338562011719
1209.009765625
1449.24768066406
1675.75219726563
1810.79663085938
1735.64477539063
1395.93566894531
961.9052734375
630.493286132813
400.269317626953
207.716598510742
16.4990692138672
-199.705490112305
-427.640594482422
-599.402587890625
-682.565551757813
-687.429382324219
-641.842407226563
-595.206298828125
-574.510925292969
-586.336853027344
-626.20166015625
-679.609069824219
-726.149780273438
-739.215515136719
-717.375671386719
-666.447937011719
-594.824829101563
-522.629455566406
-463.59521484375
-430.597076416016
-428.594299316406
-440.134124755859
-449.575775146484
-454.344299316406
-443.758178710938
-404.942474365234
-345.240631103516
-281.056396484375
-232.89436340332
-206.858261108398
-196.65364074707
-203.329559326172
-210.863815307617
-205.999938964844
-193.124938964844
-167.851791381836
-133.423110961914
-98.5175628662109
-64.6610870361328
-41.4860992431641
-32.6166572570801
-27.8481388092041
-22.5074005126953
-19.1694374084473
-16.2129573822021
-4.29166507720947
20.2185115814209
43.7749862670898
61.0370178222656
76.3916397094727
85.2610855102539
89.4573822021484
89.5527496337891
86.2147903442383
90.8879318237305
103.953666687012
117.305519104004
132.087921142578
143.246246337891
142.483291625977
144.295318603516
154.881439208984
160.41291809082
163.178649902344
167.756423950195
168.042541503906
173.669387817383
183.015686035156
179.963836669922
178.437911987305
183.77864074707
184.446243286133
184.446243286133
186.925872802734
192.648086547852
195.986053466797
194.746231079102
192.743453979492
186.544387817383
178.437911987305
175.1953125
176.625869750977
180.536056518555
184.160125732422
191.026794433594
199.610122680664
198.65641784668
188.356414794922
176.053649902344
169.377716064453
168.519393920898
162.987915039063
158.791610717773
166.993469238281
174.146240234375
175.576797485352
176.721237182617
171.094390869141
155.072174072266
142.864776611328
137.142547607422
132.56477355957
133.423110961914
136.951812744141
139.622177124023
137.905517578125
135.044403076172
134.949035644531
126.07958984375
110.915702819824
100.615707397461
96.7055282592773
96.8962631225586
99.5666351318359
103.095336914063
103.858299255371
104.144409179688
100.043487548828
87.0731201171875
73.6259002685547
62.7536849975586
52.6444282531738
48.3527641296387
53.3120193481445
64.9472045898438
71.5277557373047
72.5768280029297
70.7647933959961
60.0833129882813
49.8786888122559
47.1129493713379
42.5351715087891
36.5268402099609
38.8157272338867
45.5870208740234
48.4481315612793
49.4972076416016
46.3499870300293
33.2842483520508
17.4527721405029
8.0111083984375
4.1962947845459
1.23981440067291
-1.14444410800934
0.0953703373670578
-2.38425850868225
-7.6296272277832
-6.77129411697388
-10.1092557907104
-20.6953639984131
-28.5157318115234
-39.197208404541
-53.121280670166
-57.1268348693848
-53.3120193481445
-46.8268356323242
-43.5842437744141
-45.6823921203613
-43.2981338500977
-50.2601699829102
-64.8518295288086
-65.7101669311523
-70.3833084106445
-77.6314544677734
-71.9092330932617
-67.6175689697266
-67.8083114624023
-71.5277557373047
-75.4379425048828
-73.9120101928711
-81.4462738037109
-93.5583038330078
-93.8444137573242
-91.0786743164063
-92.318489074707
-93.0814514160156
-92.8907089233398
-92.0323791503906
-92.6045989990234
-95.1795959472656
-99.6620025634766
-103.76293182373
-104.335151672363
-105.479598999023
-105.288856506348
-101.664779663086
-102.141632080078
-103.381446838379
-99.4712677001953
-97.182373046875
-97.3731155395508
-99.2805252075195
-103.858299255371
-104.144409179688
-104.430519104004
-106.242561340332
-100.424964904785
-97.7546005249023
-100.043487548828
-97.182373046875
-94.416633605957
-94.7981185913086
-93.5583038330078
-91.6508941650391
-90.6971969604492
-87.3592300415039
-83.4490509033203
-84.5934906005859
-84.3073806762695
-81.827751159668
-84.1166381835938
-84.1166381835938
-82.2092361450195
-79.8249740600586
-70.9555358886719
-66.7592391967773
-70.7647933959961
-68.9527587890625
-63.1351661682129
-61.4184989929199
-60.9416465759277
-59.4157218933105
-59.4157218933105
-58.4620170593262
-53.0259094238281
-53.4073905944824
-59.0342407226563
-58.3666496276855
-54.2657241821289
-50.7370223999023
-49.0203552246094
-46.0638732910156
-41.1999855041504
-37.6712837219238
-33.3796195983887
-31.0907306671143
-30.1370277404785
-30.4231376647949
-35.5731353759766
-34.2379531860352
-29.0879535675049
-28.8972129821777
-26.5129547119141
-24.1286964416504
-21.2675857543945
-18.5972156524658
-20.3138828277588
-21.7444381713867
-22.9842510223389
-19.5509204864502
-13.256477355957
-10.1092557907104
-6.19907188415527
-2.28888821601868
-4.38703584671021
-9.06018257141113
-11.1583299636841
-7.53425693511963
3.43333220481873
13.6379585266113
18.5018463134766
25.2731399536133
35.9546165466309
39.2925796508789
32.7120246887207
29.5648059844971
29.8509159088135
28.8972129821777
32.7120246887207
39.197208404541
51.2138710021973
70.7647933959961
82.1138610839844
81.827751159668
86.4055252075195
96.13330078125
98.899040222168
94.7981185913086
84.0212707519531
66.0916442871094
52.0722045898438
43.3935050964355
36.3360977172852
36.6222114562988
39.864803314209
36.7175827026367
30.0416564941406
20.409252166748
3.8148136138916
-17.738883972168
-39.6740608215332
-53.6935005187988
-55.6962776184082
-58.0805358886719
-63.8027572631836
-66.7592391967773
-70.5740509033203
-74.198127746582
-76.5823822021484
-79.1573791503906
-77.9175643920898
-76.6777496337891
-75.0564575195313
-68.2851638793945
-59.1296119689941
-51.9768333435059
-48.4481315612793
-41.3907279968262
-33.5703582763672
-32.7120246887207
-26.3222141265869
-22.0305480957031
-28.8018417358398
-36.0499877929688
-59.4157218933105
-116.828666687012
-198.179565429688
-261.314727783203
-270.374908447266
-269.802703857422
-296.601745605469
-287.064727783203
-201.231414794922
-37.3851737976074
219.256408691406
507.179473876953
755.333068847656
997.764465332031
1252.97546386719
1498.36340332031
1730.3994140625
1897.86975097656
1908.07434082031
1652.10034179688
1181.73388671875
769.447875976563
510.898895263672
293.645263671875
73.0536804199219
-157.074951171875
-411.046173095703
-625.91552734375
-738.834045410156
-764.297912597656
-732.348815917969
-685.426635742188
-659.199768066406
-664.445129394531
-697.252563476563
-738.357177734375
-771.927551269531
-790.429382324219
-781.083068847656
-730.250671386719
-656.529418945313
-587.195190429688
-525.204467773438
-483.432250976563
-474.467437744141
-482.573913574219
-493.54150390625
-500.980407714844
-491.729461669922
-457.968383789063
-403.130432128906
-341.521179199219
-287.160095214844
-246.818435668945
-226.4091796875
-222.689743041992
-231.177703857422
-238.807327270508
-229.365661621094
-208.384185791016
-178.533279418945
-135.425888061523
-90.6018218994141
-59.2249794006348
-44.0610961914063
-43.5842437744141
-47.017578125
-44.4425773620605
-37.4805450439453
-24.7009181976318
-0.381481349468231
26.4175834655762
49.4972076416016
71.9092330932617
84.2120132446289
88.0268249511719
91.0786743164063
87.4546051025391
90.0296020507813
105.002746582031
119.880516052246
134.186065673828
144.581436157227
151.829574584961
160.031433105469
163.750869750977
165.086059570313
166.70735168457
171.666610717773
179.677719116211
181.489761352539
182.729568481445
184.636978149414
185.495315551758
188.0703125
190.359191894531
190.16845703125
193.887893676758
202.280487060547
201.040679931641
194.55549621582
198.370300292969
200.277709960938
196.272155761719
194.078643798828
190.740676879883
190.836044311523
196.939758300781
200.84992980957
204.855484008789
204.950866699219
196.844375610352
190.549942016602
185.113830566406
177.770309448242
171.666610717773
170.80827331543
179.010131835938
184.827713012695
182.252716064453
177.865676879883
172.238830566406
164.51383972168
151.066619873047
133.518478393555
127.605514526367
134.090698242188
140.480514526367
146.298095703125
149.254577636719
146.965698242188
141.911071777344
128.559219360352
113.20458984375
103.858299255371
93.8444137573242
93.1768188476563
102.713859558105
108.436073303223
114.825889587402
121.215698242188
116.35181427002
98.7083053588867
80.778678894043
70.0971984863281
62.7536849975586
58.9388694763184
62.9444236755371
74.1027526855469
83.4490509033203
84.8796005249023
82.7814559936523
79.3481216430664
67.9990539550781
54.6472053527832
46.4453544616699
43.0120239257813
47.9712791442871
55.887020111084
65.9009017944336
74.2934951782227
68.5712738037109
58.2712783813477
51.0231323242188
37.0036926269531
20.8861045837402
12.9703664779663
12.0166625976563
16.4990692138672
20.3138828277588
19.7416610717773
17.5481433868408
8.10647869110107
-8.77407169342041
-22.125919342041
-31.3768424987793
-39.197208404541
-41.2953567504883
-36.9083213806152
-31.0907306671143
-30.8046188354492
-35.8592491149902
-41.4860992431641
-50.2601699829102
-62.6583137512207
-70.9555358886719
-78.4897918701172
-84.8796005249023
-82.0184936523438
-76.5823822021484
-75.9147872924805
-77.2499771118164
-81.4462738037109
-88.0268249511719
-94.03515625
-100.711082458496
-105.574966430664
-107.86385345459
-108.149963378906
-105.956443786621
-103.286079406738
-100.615707397461
-97.9453353881836
-99.5666351318359
-105.670333862305
-113.20458984375
-119.880516052246
-120.929588317871
-116.256446838379
-113.967559814453
-116.542556762695
-115.111999511719
-110.248115539551
-110.724967956543
-111.011077880859
-108.436073303223
-111.678665161133
-115.49348449707
-112.155517578125
-107.291633605957
-105.956443786621
-105.288856506348
-103.095336914063
-100.711082458496
-102.713859558105
-106.337928771973
-103.858299255371
-102.904594421387
-104.430519104004
-100.711082458496
-94.7981185913086
-92.986083984375
-92.6999740600586
-90.4110794067383
-89.1712646484375
-87.8360824584961
-82.6860809326172
-78.2036819458008
-79.2527542114258
-80.3971939086914
-75.6286773681641
-73.0536804199219
-71.9092330932617
-68.3805313110352
-67.5222015380859
-65.805534362793
-61.99072265625
-58.8434982299805
-55.219425201416
-52.7397994995117
-53.8842430114746
-49.8786888122559
-45.4916534423828
-52.1675758361816
-53.5981292724609
-45.0148010253906
-39.9601707458496
-37.3851737976074
-34.6194343566895
-37.099063873291
-39.0064697265625
-33.8564720153809
-32.2351760864258
-36.8129501342773
-39.2925796508789
-36.0499877929688
-30.4231376647949
-26.9898052215576
-26.3222141265869
-26.5129547119141
-28.7064723968506
-31.4722118377686
-32.6166572570801
-30.1370277404785
-26.1314735412598
-22.125919342041
-14.3055505752563
-11.9212923049927
-13.1611070632935
-10.3953666687012
-9.15555286407471
-11.7305517196655
-14.2101802825928
-12.7796258926392
-7.91573810577393
-1.52592539787292
3.71944332122803
4.10092449188232
4.57777643203735
8.20184898376465
7.0574049949646
4.1962947845459
3.62407302856445
-1.23981440067291
-5.24536848068237
0.190740674734116
11.0629596710205
20.0277709960938
28.3249912261963
38.6249885559082
46.9222068786621
48.4481315612793
45.0148010253906
37.3851737976074
30.2323970794678
30.6138782501221
36.0499877929688
45.5870208740234
55.9823913574219
63.4212760925293
76.1055297851563
83.925895690918
80.0157165527344
83.3536758422852
93.7490463256836
103.858299255371
109.199035644531
103.858299255371
93.2721939086914
82.2092361450195
67.903678894043
48.3527641296387
35.8592491149902
32.4259147644043
25.8453617095947
22.5074005126953
24.1286964416504
17.1666603088379
5.1499981880188
-5.43610954284668
-22.0305480957031
-38.148136138916
-38.6249885559082
-36.6222114562988
-49.4018363952637
-62.4675712585449
-65.137939453125
-64.6610870361328
-60.0833129882813
-54.0749816894531
-52.8351669311523
-51.5953521728516
-53.0259094238281
-55.887020111084
-53.3120193481445
-49.2110939025879
-43.679615020752
-33.0935096740723
-20.409252166748
-9.15555286407471
-0.47685170173645
2.1935179233551
-2.67036962509155
-16.1175880432129
-45.4916534423828
-105.670333862305
-194.174011230469
-262.840667724609
-268.562866210938
-259.693420410156
-283.917510986328
-270.279541015625
-179.773086547852
-16.30832862854
240.237884521484
520.817443847656
760.864562988281
1005.10803222656
1268.04406738281
1516.865234375
1737.93371582031
1894.72253417969
1905.880859375
1652.86340332031
1176.29772949219
754.951599121094
492.397064208984
274.857330322266
62.2768325805664
-163.464767456055
-423.253570556641
-641.365539550781
-751.804382324219
-775.265502929688
-750.850708007813
-716.04052734375
-693.342346191406
-695.440490722656
-726.435852050781
-766.491394042969
-797.677551269531
-810.743286132813
-797.963623046875
-753.807189941406
-682.374755859375
-607.127563476563
-546.090576171875
-504.413726806641
-491.443359375
-500.217437744141
-508.5146484375
-505.844268798828
-489.631317138672
-455.107269287109
-401.699859619141
-342.093414306641
-290.402679443359
-254.638809204102
-237.662887573242
-235.660110473633
-241.38232421875
-244.148071289063
-236.995300292969
-214.487899780273
-177.388824462891
-134.472183227539
-93.9397811889648
-67.1407165527344
-53.9796104431152
-49.4972076416016
-48.2573928833008
-47.3990592956543
-44.9194297790527
-31.2814712524414
-8.48795986175537
16.1175880432129
43.3935050964355
63.9934997558594
75.3425674438477
83.925895690918
86.7870101928711
84.4027481079102
87.5499725341797
96.7055282592773
105.384223937988
116.256446838379
131.897186279297
143.532363891602
151.924957275391
160.41291809082
159.459213256836
155.930511474609
163.655502319336
174.146240234375
179.58235168457
182.157348632813
186.353637695313
191.122161865234
191.599014282227
188.928649902344
189.691604614258
194.746231079102
196.749008178711
194.36474609375
192.648086547852
193.792526245117
197.511978149414
195.413833618164
190.263824462891
190.454574584961
188.165679931641
187.211975097656
193.887893676758
197.130493164063
195.032348632813
191.312896728516
182.824935913086
173.860122680664
169.759201049805
169.854568481445
171.761978149414
174.718460083008
179.010131835938
180.631423950195
178.533279418945
174.813827514648
166.325866699219
153.355499267578
142.483291625977
137.524032592773
137.714767456055
141.529586791992
147.919403076172
152.592544555664
150.875885009766
140.957366943359
129.799026489258
121.120330810547
114.34903717041
108.722190856934
103.953666687012
102.52311706543
106.528671264648
112.441627502441
116.542556762695
111.1064453125
95.3703384399414
85.2610855102539
80.3018264770508
68.4759063720703
61.6092376708984
64.9472045898438
70.7647933959961
77.9175643920898
80.8740463256836
80.3018264770508
77.4407196044922
66.6638641357422
56.2685012817383
51.404613494873
47.7805404663086
46.5407257080078
50.0694274902344
56.8407211303711
62.8490524291992
60.3694267272949
52.8351669311523
47.7805404663086
36.7175827026367
22.125919342041
14.9731435775757
13.5425882339478
14.4009208679199
15.9268465042114
19.2648086547852
17.0712909698486
10.0138854980469
3.05185079574585
-9.25092315673828
-22.5074005126953
-29.8509159088135
-33.2842483520508
-34.4286918640137
-30.2323970794678
-24.4148063659668
-25.8453617095947
-36.431468963623
-52.0722045898438
-62.4675712585449
-65.7101669311523
-67.4268264770508
-70.0971984863281
-74.2934951782227
-73.8166427612305
-70.5740509033203
-69.8110885620117
-73.3397903442383
-82.2092361450195
-89.6481170654297
-94.2258987426758
-102.046264648438
-105.479598999023
-104.62126159668
-106.147186279297
-103.76293182373
-100.043487548828
-102.237007141113
-107.673110961914
-111.392555236816
-112.346260070801
-115.874961853027
-116.924034118652
-115.111999511719
-116.828666687012
-112.537002563477
-104.049041748047
-104.907371520996
-107.95922088623
-107.577743530273
-109.485153198242
-110.629592895508
-107.387001037598
-102.141632080078
-99.6620025634766
-99.3758926391602
-98.4221878051758
-97.3731155395508
-97.9453353881836
-98.899040222168
-96.4194107055664
-96.7055282592773
-98.3268203735352
-91.269416809082
-84.9749755859375
-83.6397857666016
-84.1166381835938
-84.3073806762695
-81.3508987426758
-80.111083984375
-79.5388641357422
-78.012939453125
-77.1546020507813
-73.3397903442383
-74.2934951782227
-82.3999710083008
-83.3536758422852
-79.1573791503906
-78.2990493774414
-75.0564575195313
-70.9555358886719
-68.5712738037109
-63.6120147705078
-61.0370178222656
-60.9416465759277
-59.0342407226563
-57.7944259643555
-57.6990547180176
-55.6009063720703
-54.8379440307617
-52.8351669311523
-47.7805404663086
-45.2055397033691
-43.2981338500977
-38.9110984802246
-37.6712837219238
-40.0555419921875
-40.5323944091797
-37.7666549682617
-35.9546165466309
-34.9055442810059
-29.7555465698242
-24.7009181976318
-23.8425846099854
-25.177770614624
-26.8944358825684
-26.226842880249
-26.226842880249
-26.3222141265869
-22.6027698516846
-17.8342533111572
-14.0194396972656
-11.3490705490112
-8.67870044708252
-4.7685170173645
-5.43610954284668
-8.3925895690918
-11.0629596710205
-14.4962921142578
-13.0657367706299
-9.15555286407471
-7.91573810577393
-6.58055353164673
-1.33518481254578
2.09814739227295
-0.0953703373670578
0
3.71944332122803
2.5749990940094
1.62129580974579
1.62129580974579
0.572222054004669
8.20184898376465
16.5944385528564
19.7416610717773
21.5536975860596
16.9759197235107
10.6814785003662
10.1092557907104
12.0166625976563
12.3981437683105
14.4962921142578
20.5046234130859
23.9379558563232
23.0796222686768
22.8888816833496
21.4583263397217
20.0277709960938
18.4064750671387
18.0249938964844
22.2212886810303
23.4611034393311
22.7935104370117
25.4638805389404
25.3685111999512
23.9379558563232
27.1805477142334
29.0879535675049
27.4666576385498
29.4694347381592
34.4286918640137
42.3444290161133
51.8814659118652
56.7453536987305
62.5629425048828
68.1897964477539
60.0833129882813
52.2629470825195
53.5981292724609
51.3092422485352
54.5518341064453
67.903678894043
77.4407196044922
85.5471954345703
91.7462692260742
93.8444137573242
97.0870056152344
103.858299255371
107.482376098633
100.711082458496
91.8416366577148
81.7323837280273
67.5222015380859
55.7916488647461
48.3527641296387
43.3935050964355
37.8620262145996
36.6222114562988
37.0036926269531
22.9842510223389
4.48240613937378
-3.62407302856445
-13.0657367706299
-28.5157318115234
-34.6194343566895
-31.3768424987793
-35.6685066223145
-47.9712791442871
-57.8897972106934
-62.4675712585449
-65.4240493774414
-68.0944213867188
-65.6147918701172
-59.1296119689941
-55.219425201416
-52.6444282531738
-47.6851692199707
-44.0610961914063
-43.4888763427734
-40.7231369018555
-35.5731353759766
-29.7555465698242
-24.7962875366211
-20.3138828277588
-16.2129573822021
-16.4990692138672
-23.4611034393311
-49.3064651489258
-110.915702819824
-197.511978149414
-270.470275878906
-285.252685546875
-271.137878417969
-294.885101318359
-299.272125244141
-222.785110473633
-74.198127746582
162.3203125
438.894317626953
683.805358886719
925.37841796875
1191.36633300781
1450.86901855469
1687.76892089844
1866.58825683594
1905.880859375
1696.06616210938
1249.63757324219
817.609924316406
538.651672363281
326.071197509766
121.120330810547
-106.147186279297
-372.516540527344
-602.740539550781
-733.207153320313
-776.600646972656
-758.28955078125
-719.569213867188
-697.729431152344
-698.96923828125
-725.005310058594
-764.679382324219
-800.729370117188
-819.994201660156
-811.410827636719
-768.494201660156
-698.110900878906
-622.386840820313
-556.867431640625
-512.615600585938
-497.833160400391
-506.988739013672
-524.059997558594
-535.218322753906
-527.874816894531
-492.873901367188
-437.940612792969
-375.854522705078
-318.155456542969
-278.386016845703
-260.933258056641
-255.497146606445
-261.028625488281
-271.32861328125
-262.745300292969
-235.183258056641
-202.471237182617
-161.366607666016
-118.163848876953
-84.9749755859375
-63.5166473388672
-56.6499824523926
-59.701831817627
-61.99072265625
-55.1240577697754
-38.0527648925781
-19.5509204864502
3.71944332122803
30.995361328125
50.1647987365723
63.9934997558594
73.0536804199219
74.1027526855469
69.9064559936523
70.5740509033203
82.5907135009766
94.5120086669922
108.340705871582
129.894409179688
143.436996459961
148.491622924805
153.355499267578
155.644393920898
159.745315551758
162.987915039063
162.987915039063
167.756423950195
176.625869750977
180.345306396484
179.010131835938
180.345306396484
184.732345581055
186.735122680664
187.974945068359
188.261047363281
187.307342529297
188.737899780273
188.833267211914
187.116607666016
186.449020385742
184.732345581055
184.732345581055
190.931427001953
196.367523193359
201.231414794922
203.901779174805
200.086975097656
195.223083496094
184.446243286133
172.620315551758
172.620315551758
174.909210205078
174.336975097656
179.773086547852
186.925872802734
187.688827514648
183.015686035156
176.721237182617
165.467544555664
152.115692138672
142.674026489258
138.668472290039
140.766616821289
145.725875854492
151.829574584961
155.453659057617
155.262908935547
151.257354736328
141.720321655273
127.796257019043
116.35181427002
111.487930297852
111.297187805176
114.825889587402
119.785148620605
121.787925720215
123.313850402832
120.166625976563
108.340705871582
94.5120086669922
79.6342315673828
70.2879409790039
65.7101669311523
66.5684967041016
77.4407196044922
84.4027481079102
84.7842330932617
82.7814559936523
74.3888626098633
64.8518295288086
52.6444282531738
41.6768379211426
41.5814666748047
46.9222068786621
53.4073905944824
61.0370178222656
65.3286819458008
64.4703521728516
58.0805358886719
46.3499870300293
34.5240631103516
27.5620288848877
25.3685111999512
23.5564746856689
23.6518440246582
28.0388793945313
27.657398223877
20.0277709960938
13.8286991119385
5.62685012817383
-8.67870044708252
-21.9351787567139
-32.2351760864258
-37.1944313049316
-32.04443359375
-27.5620288848877
-29.4694347381592
-29.8509159088135
-35.0962867736816
-43.4888763427734
-50.1647987365723
-64.0888671875
-76.5823822021484
-76.9638671875
-73.0536804199219
-68.3805313110352
-65.805534362793
-67.8083114624023
-75.247200012207
-84.0212707519531
-86.7870101928711
-92.0323791503906
-100.997192382813
-103.286079406738
-104.716636657715
-103.667556762695
-97.2777481079102
-95.4657135009766
-94.2258987426758
-93.0814514160156
-98.1360778808594
-103.476821899414
-108.245338439941
-112.823112487793
-115.111999511719
-111.869407653809
-104.430519104004
-99.7573776245117
-100.711082458496
-104.049041748047
-107.86385345459
-108.436073303223
-103.953666687012
-102.332374572754
-103.190704345703
-99.7573776245117
-99.948112487793
-102.999969482422
-95.9425582885742
-88.5036773681641
-92.1277465820313
-94.9888610839844
-92.5092315673828
-91.1740417480469
-92.986083984375
-94.03515625
-92.1277465820313
-90.6018218994141
-89.3620071411133
-87.3592300415039
-86.5962677001953
-86.7870101928711
-84.1166381835938
-80.111083984375
-77.4407196044922
-73.6259002685547
-70.4786834716797
-70.2879409790039
-69.0481262207031
-68.2851638793945
-67.6175689697266
-64.6610870361328
-61.8953514099121
-60.6555366516113
-63.039794921875
-61.7999801635742
-57.6036834716797
-58.2712783813477
-57.4129447937012
-55.1240577697754
-51.9768333435059
-45.5870208740234
-45.3962821960449
-43.2027626037598
-35.0009155273438
-35.382396697998
-37.3851737976074
-35.8592491149902
-35.8592491149902
-33.9518394470215
-31.0907306671143
-29.4694347381592
-26.7036952972412
-24.6055469512939
-25.177770614624
-24.4148063659668
-23.9379558563232
-26.226842880249
-24.7009181976318
-22.5074005126953
-20.5046234130859
-14.687032699585
-12.588885307312
-11.0629596710205
-5.43610954284668
-4.7685170173645
-5.34073925018311
-6.86666440963745
-12.3981437683105
-11.635181427002
-7.53425693511963
-4.48240613937378
0.47685170173645
3.24259161949158
3.5287024974823
4.57777643203735
3.24259161949158
0
1.14444410800934
3.147221326828
2.1935179233551
2.00277709960938
4.1962947845459
10.7768487930298
19.1694374084473
21.839807510376
19.4555492401123
16.2129573822021
12.6842555999756
12.7796258926392
13.4472179412842
12.8749961853027
18.5018463134766
25.7499923706055
28.7064723968506
28.7064723968506
25.2731399536133
22.125919342041
21.2675857543945
19.7416610717773
18.1203651428223
17.0712909698486
17.2620315551758
21.9351787567139
28.2296199798584
29.7555465698242
31.0907306671143
30.4231376647949
24.9870281219482
22.9842510223389
21.0768451690674
20.2185115814209
25.3685111999512
29.4694347381592
30.995361328125
33.8564720153809
38.7203598022461
39.197208404541
29.9462871551514
24.4148063659668
24.9870281219482
24.7962875366211
31.3768424987793
39.5786895751953
46.0638732910156
52.7397994995117
57.5083160400391
62.0860900878906
56.4592399597168
47.017578125
47.9712791442871
51.2138710021973
51.9768333435059
58.1759071350098
71.0509033203125
82.6860809326172
89.4573822021484
91.1740417480469
91.5555267333984
94.03515625
98.3268203735352
97.0870056152344
88.7897872924805
80.9694213867188
72.7675704956055
60.4647941589355
47.017578125
39.9601707458496
39.2925796508789
38.0527648925781
32.9027671813965
18.0249938964844
-0.47685170173645
-10.4907369613647
-25.177770614624
-41.3907279968262
-43.2981338500977
-44.251838684082
-49.3064651489258
-56.2685012817383
-66.5684967041016
-72.5768280029297
-76.3916397094727
-79.2527542114258
-78.012939453125
-73.3397903442383
-65.2333145141602
-59.5110931396484
-57.7944259643555
-54.4564628601074
-51.0231323242188
-50.832389831543
-48.4481315612793
-41.0092468261719
-34.3333206176758
-26.8944358825684
-22.8888816833496
-26.8944358825684
-26.3222141265869
-36.9083213806152
-89.3620071411133
-166.802719116211
-244.338806152344
-284.489715576172
-274.952697753906
-288.304534912109
-312.528594970703
-266.369354248047
-154.499954223633
37.6712837219238
306.043426513672
559.537780761719
787.854370117188
1047.07092285156
1316.7783203125
1563.21520996094
1770.83642578125
1881.56140136719
1794.01147460938
1430.26904296875
966.1015625
644.798889160156
421.632263183594
207.811965942383
0
-248.725845336914
-511.089660644531
-689.432189941406
-769.257141113281
-777.935852050781
-743.221069335938
-704.405334472656
-683.042358398438
-695.917358398438
-738.738647460938
-782.513610839844
-813.508972167969
-821.520080566406
-793.290466308594
-733.207153320313
-657.006286621094
-584.047973632813
-529.686889648438
-499.8359375
-495.162811279297
-508.133178710938
-518.433166503906
-512.329467773438
-489.631317138672
-448.717437744141
-391.685974121094
-334.273040771484
-288.876770019531
-257.595275878906
-249.584182739258
-262.64990234375
-269.23046875
-260.647125244141
-242.908248901367
-210.100860595703
-164.418472290039
-120.262001037598
-83.7351608276367
-57.9851684570313
-47.3990592956543
-47.7805404663086
-53.6935005187988
-58.5573883056641
-50.9277610778809
-34.9055442810059
-12.2074031829834
18.0249938964844
41.4860992431641
59.3203506469727
74.2934951782227
76.296272277832
71.0509033203125
71.0509033203125
79.2527542114258
93.7490463256836
107.100891113281
114.635147094727
126.651809692383
139.622177124023
140.957366943359
140.099029541016
141.148101806641
143.246246337891
151.63883972168
159.554580688477
165.372161865234
171.094390869141
171.761978149414
173.383270263672
178.628646850586
180.822158813477
182.634201049805
185.87678527832
188.833267211914
190.740676879883
190.263824462891
188.928649902344
190.359191894531
191.789749145508
187.498092651367
186.258270263672
191.694381713867
195.699935913086
197.225860595703
199.133270263672
197.702713012695
186.353637695313
172.429580688477
167.470321655273
166.325866699219
166.039764404297
168.614761352539
172.524948120117
179.010131835938
181.203643798828
181.108276367188
181.871231079102
169.568466186523
150.494400024414
143.723098754883
146.011993408203
150.875885009766
155.644393920898
158.505508422852
159.363830566406
154.881439208984
143.341613769531
129.512924194336
120.262001037598
115.874961853027
113.872184753418
116.161071777344
120.071258544922
124.076812744141
127.033294677734
124.744407653809
117.210144042969
102.999969482422
84.3073806762695
70.0971984863281
67.3314590454102
68.8573837280273
72.6721954345703
80.2064590454102
83.4490509033203
85.7379379272461
84.1166381835938
71.1462707519531
60.7509078979492
60.9416465759277
57.3175735473633
53.0259094238281
59.1296119689941
64.3749771118164
65.3286819458008
67.903678894043
67.2360916137695
62.4675712585449
55.6962776184082
43.1073951721191
28.8018417358398
23.5564746856689
29.9462871551514
34.9055442810059
32.6166572570801
27.4666576385498
20.409252166748
11.2537002563477
1.04907369613647
-12.1120328903198
-24.4148063659668
-26.7990646362305
-26.226842880249
-29.0879535675049
-29.5648059844971
-27.657398223877
-31.1861019134521
-39.6740608215332
-48.734245300293
-63.4212760925293
-77.4407196044922
-79.729606628418
-79.5388641357422
-77.0592346191406
-69.2388687133789
-64.2796096801758
-67.4268264770508
-76.9638671875
-85.9286727905273
-92.0323791503906
-92.6999740600586
-96.4194107055664
-102.237007141113
-96.4194107055664
-91.9370040893555
-93.5583038330078
-95.3703384399414
-99.3758926391602
-100.711082458496
-105.76570892334
-112.632369995117
-113.872184753418
-118.354591369629
-122.550888061523
-122.169403076172
-118.354591369629
-110.438850402832
-108.817558288574
-110.820335388184
-108.817558288574
-111.774040222168
-115.49348449707
-108.149963378906
-106.624038696289
-110.915702819824
-105.479598999023
-99.5666351318359
-95.5610809326172
-92.0323791503906
-94.416633605957
-98.5175628662109
-100.424964904785
-99.948112487793
-97.182373046875
-90.9833068847656
-85.6425628662109
-83.3536758422852
-80.3018264770508
-79.9203414916992
-83.5444183349609
-81.9231185913086
-74.7703475952148
-73.1490478515625
-78.5851593017578
-76.2009048461914
-65.6147918701172
-63.039794921875
-69.2388687133789
-69.9064559936523
-63.6120147705078
-61.8953514099121
-61.323127746582
-55.9823913574219
-52.6444282531738
-50.832389831543
-51.0231323242188
-56.0777587890625
-55.9823913574219
-50.355541229248
-47.5897979736328
-44.1564674377441
-40.8185043334961
-40.3416519165039
-40.913875579834
-38.6249885559082
-33.1888771057129
-35.7638778686523
-42.1536903381348
-37.099063873291
-31.1861019134521
-33.2842483520508
-31.8536930084229
-26.4175834655762
-26.7990646362305
-26.1314735412598
-23.5564746856689
-23.2703628540039
-22.2212886810303
-21.3629570007324
-19.1694374084473
-16.1175880432129
-13.6379585266113
-15.7361059188843
-17.8342533111572
-10.0138854980469
-6.1037015914917
-11.0629596710205
-14.3055505752563
-14.4962921142578
-12.9703664779663
-9.63240432739258
-5.05462789535522
-1.9074068069458
1.23981440067291
5.05462789535522
3.62407302856445
2.38425850868225
5.24536848068237
-0.762962698936462
-3.43333220481873
7.24814605712891
14.2101802825928
20.409252166748
28.6111011505127
27.1805477142334
16.022216796875
7.72499752044678
3.5287024974823
0.190740674734116
3.62407302856445
10.2999963760376
15.8314762115479
20.5999927520752
21.9351787567139
23.4611034393311
25.7499923706055
24.7962875366211
21.1722145080566
17.9296245574951
19.5509204864502
22.9842510223389
26.7990646362305
30.70924949646
29.1833248138428
27.1805477142334
25.8453617095947
21.3629570007324
21.5536975860596
21.6490669250488
18.1203651428223
21.2675857543945
30.5185089111328
40.1509132385254
48.734245300293
59.7972030639648
65.137939453125
56.1731300354004
49.0203552246094
46.5407257080078
43.1073951721191
43.0120239257813
50.6416511535645
65.5194244384766
74.3888626098633
80.5879364013672
88.5990447998047
89.2666397094727
90.220344543457
96.7055282592773
101.760154724121
100.997192382813
99.2805252075195
99.5666351318359
92.6045989990234
78.2036819458008
63.6120147705078
54.8379440307617
56.2685012817383
53.121280670166
44.0610961914063
38.7203598022461
22.3166599273682
0.762962698936462
-9.06018257141113
-19.8370304107666
-31.6629524230957
-34.1425819396973
-39.7694320678711
-53.2166481018066
-59.3203506469727
-59.701831817627
-68.1897964477539
-75.9147872924805
-66.854606628418
-55.9823913574219
-53.5981292724609
-48.066650390625
-46.4453544616699
-51.8814659118652
-55.1240577697754
-49.783317565918
-41.4860992431641
-39.197208404541
-33.9518394470215
-26.0361022949219
-23.7472152709961
-25.8453617095947
-35.0009155273438
-57.8897972106934
-104.049041748047
-168.519393920898
-230.70085144043
-262.840667724609
-261.314727783203
-263.889739990234
-277.623046875
-250.156402587891
-141.624954223633
40.913875579834
286.111022949219
537.316467285156
745.70068359375
956.278381347656
1184.49963378906
1418.44311523438
1634.17077636719
1752.71606445313
1654.96154785156
1296.36901855469
877.216369628906
574.034057617188
356.303588867188
166.421249389648
-21.7444381713867
-231.559188842773
-452.532257080078
-610.084045410156
-677.034057617188
-679.132202148438
-628.967407226563
-576.418334960938
-563.638732910156
-589.6748046875
-642.891479492188
-694.296081542969
-725.482177734375
-737.30810546875
-720.046081542969
-665.303466796875
-588.053527832031
-517.956298828125
-473.036895751953
-453.962829589844
-458.254486083984
-471.797058105469
-481.238739013672
-481.334106445313
-460.829467773438
-417.435974121094
-357.352661132813
-292.405456542969
-247.295288085938
-225.836959838867
-217.253631591797
-222.975860595703
-234.420288085938
-238.330474853516
-226.313812255859
-197.416610717773
-159.459213256836
-120.071258544922
-86.4055252075195
-58.8434982299805
-44.1564674377441
-46.6360969543457
-52.1675758361816
-54.2657241821289
-47.3990592956543
-30.2323970794678
-8.0111083984375
20.9814739227295
46.1592445373535
60.0833129882813
71.3370132446289
74.0073852539063
64.8518295288086
63.6120147705078
71.8138656616211
79.2527542114258
90.220344543457
102.61848449707
110.248115539551
115.588851928711
123.790702819824
132.56477355957
131.706436157227
129.703659057617
132.183288574219
132.755508422852
138.85920715332
150.971252441406
158.600875854492
157.742538452148
158.410140991211
163.274017333984
164.990692138672
168.71012878418
175.1953125
178.914764404297
180.440689086914
174.527725219727
167.279571533203
167.565689086914
166.135131835938
163.941619873047
165.849014282227
171.094390869141
177.865676879883
178.819381713867
176.339752197266
167.661056518555
149.63606262207
143.055511474609
147.728652954102
148.586990356445
150.875885009766
159.268463134766
168.71012878418
164.036987304688
153.546249389648
155.739761352539
152.878662109375
142.101806640625
138.191619873047
135.139770507813
131.420333862305
135.711990356445
141.815689086914
142.387924194336
140.671249389648
131.229583740234
119.975891113281
111.011077880859
94.7981185913086
82.6860809326172
85.6425628662109
96.2286758422852
105.288856506348
110.724967956543
111.869407653809
100.711082458496
82.5907135009766
72.1953506469727
62.4675712585449
50.5462799072266
47.4944305419922
53.2166481018066
58.5573883056641
60.6555366516113
63.7073860168457
56.2685012817383
40.8185043334961
43.1073951721191
46.2546157836914
32.9981384277344
25.3685111999512
27.5620288848877
27.0851764678955
32.5212860107422
39.9601707458496
31.7583236694336
20.0277709960938
14.0194396972656
8.10647869110107
-5.43610954284668
-16.4036979675293
-8.0111083984375
0.286111027002335
0.9537034034729
1.04907369613647
-3.5287024974823
-12.2074031829834
-23.3657341003418
-28.2296199798584
-31.0907306671143
-41.4860992431641
-42.2490615844727
-33.0935096740723
-30.6138782501221
-30.70924949646
-31.6629524230957
-38.9110984802246
-48.1620216369629
-57.2222023010254
-67.1407165527344
-68.7620162963867
-57.8897972106934
-50.1647987365723
-47.6851692199707
-46.3499870300293
-53.4073905944824
-61.323127746582
-63.8981285095215
-77.6314544677734
-95.2749710083008
-91.9370040893555
-78.5851593017578
-69.9064559936523
-64.756462097168
-65.3286819458008
-67.8083114624023
-72.6721954345703
-82.876823425293
-88.6944122314453
-87.0731201171875
-88.6944122314453
-88.6944122314453
-78.2036819458008
-72.7675704956055
-77.0592346191406
-76.1055297851563
-69.9064559936523
-66.0916442871094
-67.903678894043
-74.3888626098633
-81.4462738037109
-84.8796005249023
-81.5416412353516
-82.876823425293
-85.1657104492188
-73.0536804199219
-66.6638641357422
-74.8657150268555
-73.9120101928711
-63.3259048461914
-61.5138702392578
-66.4731292724609
-67.4268264770508
-64.756462097168
-58.652759552002
-54.5518341064453
-55.5055389404297
-53.8842430114746
-55.4101676940918
-54.4564628601074
-45.4916534423828
-44.1564674377441
-43.8703575134277
-35.4777679443359
-35.5731353759766
-43.679615020752
-43.2981338500977
-43.0120239257813
-50.355541229248
-47.3036880493164
-33.5703582763672
-32.8073959350586
-46.2546157836914
-48.3527641296387
-32.2351760864258
-25.177770614624
-34.6194343566895
-35.7638778686523
-28.8972129821777
-31.2814712524414
-37.3851737976074
-42.1536903381348
-41.3907279968262
-34.1425819396973
-38.0527648925781
-43.8703575134277
-37.099063873291
-36.5268402099609
-37.0036926269531
-22.6981410980225
-14.687032699585
-20.5046234130859
-20.8861045837402
-17.0712909698486
-17.5481433868408
-18.6925868988037
-22.9842510223389
-24.7009181976318
-14.3055505752563
-7.15277528762817
-5.43610954284668
-3.05185079574585
-12.6842555999756
-22.3166599273682
-22.2212886810303
-28.8972129821777
-32.5212860107422
-21.6490669250488
-10.8722190856934
-10.3953666687012
-10.7768487930298
-3.33796191215515
0.190740674734116
-3.91018390655518
-6.19907188415527
-8.10647869110107
-10.2999963760376
-8.67870044708252
-3.33796191215515
4.10092449188232
5.53147983551025
5.24536848068237
11.2537002563477
10.9675893783569
11.3490705490112
17.2620315551758
10.8722190856934
-0.286111027002335
0.47685170173645
9.44166374206543
11.635181427002
7.24814605712891
10.1092557907104
16.6898097991943
14.687032699585
12.0166625976563
12.0166625976563
5.24536848068237
1.81203651428223
6.96203470230103
14.687032699585
23.5564746856689
23.4611034393311
26.9898052215576
37.2898025512695
40.913875579834
41.4860992431641
40.7231369018555
39.1018409729004
35.4777679443359
31.9490642547607
34.3333206176758
39.197208404541
53.0259094238281
69.2388687133789
73.1490478515625
76.6777496337891
77.5360870361328
69.7157211303711
75.3425674438477
88.3129348754883
85.7379379272461
85.1657104492188
83.2583084106445
73.8166427612305
70.4786834716797
50.355541229248
20.5999927520752
16.4990692138672
20.2185115814209
21.4583263397217
24.891658782959
16.30832862854
3.05185079574585
-5.43610954284668
-23.8425846099854
-42.630542755127
-51.3092422485352
-61.4184989929199
-64.1842422485352
-61.2277565002441
-67.5222015380859
-70.9555358886719
-68.4759063720703
-68.9527587890625
-65.4240493774414
-58.4620170593262
-58.9388694763184
-59.7972030639648
-53.4073905944824
-48.2573928833008
-47.6851692199707
-44.0610961914063
-38.8157272338867
-30.5185089111328
-20.2185115814209
-25.8453617095947
-29.0879535675049
-22.0305480957031
-53.3120193481445
-125.698104858398
-196.749008178711
-242.908248901367
-249.87028503418
-239.570297241211
-249.011962890625
-255.592514038086
-196.081420898438
-53.7888717651367
150.208282470703
394.356353759766
622.863708496094
817.133056640625
1020.84411621094
1253.07092285156
1489.49401855469
1664.11706542969
1685.00317382813
1457.73559570313
1058.70617675781
696.394226074219
434.411895751953
242.336029052734
73.2444229125977
-123.886070251465
-334.940643310547
-511.375762939453
-625.820190429688
-667.497009277344
-638.695190429688
-579.088684082031
-540.368347167969
-540.654479980469
-577.753540039063
-635.834045410156
-689.527526855469
-720.618286132813
-713.3701171875
-676.366455078125
-623.912780761719
-551.526672363281
-479.712799072266
-441.278564453125
-430.597076416016
-426.973022460938
-437.273010253906
-458.159118652344
-455.011901855469
-420.583190917969
-371.372100830078
-314.245269775391
-261.600830078125
-228.60270690918
-213.343444824219
-213.438827514648
-226.4091796875
-232.036041259766
-219.256408691406
-199.896224975586
-172.811050415039
-132.56477355957
-92.1277465820313
-60.3694267272949
-37.1944313049316
-28.4203605651855
-36.7175827026367
-49.0203552246094
-46.6360969543457
-31.9490642547607
-9.72777462005615
18.787956237793
39.7694320678711
56.1731300354004
72.1953506469727
75.5333099365234
77.8221969604492
81.3508987426758
78.8712692260742
82.4953460693359
89.5527496337891
97.9453353881836
113.395332336426
127.319404602051
133.041625976563
135.425888061523
137.333282470703
136.570327758789
136.093475341797
141.148101806641
147.728652954102
156.598098754883
168.519393920898
171.380493164063
165.467544555664
162.41569519043
164.132354736328
166.516616821289
166.70735168457
170.712905883789
178.056427001953
175.481430053711
170.9990234375
172.143463134766
170.045318603516
166.898101806641
167.565689086914
174.527725219727
181.58512878418
182.157348632813
180.631423950195
179.868453979492
170.617538452148
153.641616821289
147.34716796875
148.014770507813
144.772171020508
146.202728271484
154.786056518555
162.034210205078
164.323089599609
160.031433105469
145.630508422852
132.946258544922
128.654586791992
122.83699798584
116.828666687012
114.25366973877
119.117553710938
129.608291625977
133.423110961914
128.559219360352
116.733299255371
101.760154724121
88.4083023071289
77.5360870361328
73.2444229125977
74.4842376708984
78.8712692260742
87.4546051025391
92.986083984375
92.4138565063477
86.9777526855469
75.1518249511719
58.0805358886719
39.6740608215332
34.2379531860352
41.1046180725098
42.7259140014648
44.0610961914063
50.832389831543
52.8351669311523
45.1101722717285
33.2842483520508
28.2296199798584
20.2185115814209
9.15555286407471
12.302773475647
22.125919342041
30.3277683258057
34.4286918640137
32.4259147644043
26.7990646362305
20.6953639984131
12.7796258926392
-0.381481349468231
-6.86666440963745
-4.29166507720947
-6.58055353164673
-3.71944332122803
5.43610954284668
3.62407302856445
-1.52592539787292
-8.67870044708252
-20.7907333374023
-30.6138782501221
-39.7694320678711
-45.2055397033691
-41.8675804138184
-34.2379531860352
-32.2351760864258
-41.6768379211426
-46.9222068786621
-42.7259140014648
-51.5953521728516
-63.8981285095215
-61.7046089172363
-63.4212760925293
-64.6610870361328
-54.3610954284668
-50.0694274902344
-48.9249839782715
-47.4944305419922
-53.5981292724609
-58.9388694763184
-65.9009017944336
-76.0101623535156
-78.7759017944336
-75.5333099365234
-70.9555358886719
-65.2333145141602
-65.3286819458008
-72.3860855102539
-76.9638671875
-75.9147872924805
-76.2009048461914
-78.6805267333984
-76.4870147705078
-76.3916397094727
-78.4897918701172
-76.0101623535156
-71.1462707519531
-67.8083114624023
-67.9990539550781
-69.5249786376953
-65.805534362793
-61.8953514099121
-66.7592391967773
-70.1925735473633
-66.854606628418
-64.2796096801758
-57.4129447937012
-53.6935005187988
-64.4703521728516
-72.1953506469727
-69.1434936523438
-70.6694183349609
-72.4814605712891
-67.8083114624023
-60.7509078979492
-52.5490570068359
-53.5027618408203
-60.4647941589355
-57.9851684570313
-53.3120193481445
-56.1731300354004
-57.4129447937012
-51.0231323242188
-46.3499870300293
-49.1157264709473
-51.3092422485352
-51.0231323242188
-50.4509086608887
-44.3472061157227
-38.6249885559082
-41.962947845459
-43.9657249450684
-38.8157272338867
-33.9518394470215
-32.2351760864258
-37.099063873291
-40.3416519165039
-32.04443359375
-28.8018417358398
-35.2870254516602
-38.9110984802246
-38.148136138916
-32.6166572570801
-25.9407329559326
-23.6518440246582
-22.5074005126953
-23.0796222686768
-25.4638805389404
-28.6111011505127
-33.6657295227051
-29.4694347381592
-22.9842510223389
-26.226842880249
-20.1231422424316
-11.4444408416748
-16.022216796875
-18.787956237793
-17.2620315551758
-18.3111057281494
-20.409252166748
-25.0823993682861
-24.6055469512939
-12.9703664779663
-7.82036781311035
-12.3981437683105
-11.8259220123291
-12.8749961853027
-18.1203651428223
-18.0249938964844
-15.7361059188843
-13.256477355957
-8.3925895690918
-6.58055353164673
-7.0574049949646
-3.43333220481873
-2.76573991775513
-10.8722190856934
-13.0657367706299
-6.48518323898315
-5.1499981880188
-9.72777462005615
-9.82314491271973
-2.5749990940094
4.1962947845459
5.1499981880188
3.147221326828
2.67036962509155
-1.81203651428223
-8.86944198608398
-4.95925760269165
2.28888821601868
3.147221326828
7.91573810577393
19.1694374084473
21.5536975860596
17.1666603088379
16.4990692138672
16.30832862854
12.6842555999756
6.6759238243103
9.44166374206543
17.5481433868408
22.6027698516846
32.4259147644043
42.2490615844727
44.4425773620605
39.5786895751953
31.3768424987793
27.5620288848877
28.8972129821777
38.8157272338867
52.8351669311523
61.323127746582
70.0971984863281
78.012939453125
78.9666442871094
82.0184936523438
90.6971969604492
99.0897827148438
100.043487548828
91.3647842407227
86.7870101928711
80.3971939086914
65.137939453125
53.9796104431152
43.8703575134277
34.810173034668
30.995361328125
25.5592517852783
20.3138828277588
11.3490705490112
-3.5287024974823
-8.86944198608398
-16.2129573822021
-36.6222114562988
-47.3036880493164
-45.5870208740234
-50.9277610778809
-62.6583137512207
-67.9990539550781
-70.7647933959961
-76.7731246948242
-76.0101623535156
-69.6203460693359
-64.1842422485352
-53.2166481018066
-46.9222068786621
-49.5925750732422
-54.4564628601074
-57.9851684570313
-51.7860946655273
-43.0120239257813
-36.5268402099609
-26.7990646362305
-23.4611034393311
-27.8481388092041
-27.1805477142334
-40.1509132385254
-93.7490463256836
-170.426803588867
-238.998077392578
-272.663787841797
-266.846221923828
-273.236022949219
-287.636932373047
-245.292510986328
-138.573104858398
49.2110939025879
321.207305908203
576.7998046875
782.132141113281
1009.39965820313
1257.93481445313
1503.41809082031
1718.47814941406
1822.62255859375
1721.53002929688
1365.98937988281
921.372863769531
590.533142089844
362.407287597656
162.51106262207
-35.382396697998
-259.979553222656
-493.064666748047
-657.483093261719
-728.247924804688
-720.332153320313
-670.644226074219
-630.11181640625
-617.52294921875
-637.169250488281
-679.132202148438
-728.62939453125
-768.684936523438
-776.982177734375
-751.041442871094
-699.064575195313
-625.057189941406
-550.572998046875
-497.165588378906
-468.745208740234
-464.739654541016
-481.238739013672
-499.359100341797
-499.168365478516
-476.851684570313
-434.697998046875
-381.862854003906
-325.212860107422
-271.423980712891
-233.943450927734
-220.496231079102
-229.651779174805
-243.766586303711
-241.286956787109
-221.640670776367
-192.552719116211
-155.453659057617
-111.678665161133
-73.4351654052734
-54.4564628601074
-48.9249839782715
-47.017578125
-50.2601699829102
-50.832389831543
-39.5786895751953
-20.9814739227295
2.8611102104187
27.657398223877
48.8296127319336
68.4759063720703
79.9203414916992
79.1573791503906
81.2555313110352
88.8851547241211
91.7462692260742
96.800895690918
106.433296203613
116.733299255371
127.700881958008
136.76106262207
143.055511474609
146.584213256836
144.104583740234
145.058288574219
156.216613769531
161.748092651367
157.647171020508
159.173095703125
164.323089599609
166.516616821289
172.238830566406
179.3916015625
181.966613769531
185.97216796875
192.552719116211
190.359191894531
179.963836669922
179.010131835938
182.348083496094
175.386047363281
173.09716796875
180.154571533203
182.634201049805
185.87678527832
191.408279418945
187.307342529297
176.530502319336
175.672164916992
182.538833618164
175.1953125
164.990692138672
168.614761352539
166.039764404297
163.083282470703
174.432357788086
180.249938964844
171.857345581055
161.652725219727
155.358276367188
147.728652954102
141.052734375
139.717544555664
141.052734375
144.962921142578
148.300872802734
147.156433105469
140.957366943359
127.986999511719
116.065704345703
106.814781188965
99.2805252075195
92.4138565063477
87.6453399658203
93.8444137573242
105.956443786621
113.109222412109
110.152740478516
99.3758926391602
86.5962677001953
72.0999755859375
64.3749771118164
62.0860900878906
56.6499824523926
57.9851684570313
67.0453491210938
69.8110885620117
67.6175689697266
61.99072265625
51.5953521728516
44.5379486083984
35.9546165466309
25.4638805389404
24.1286964416504
28.9925842285156
34.3333206176758
43.4888763427734
48.9249839782715
45.7777633666992
42.0583190917969
30.70924949646
13.8286991119385
5.05462789535522
6.96203470230103
10.1092557907104
7.82036781311035
11.5398111343384
16.4990692138672
7.0574049949646
-2.67036962509155
-7.24814605712891
-20.7907333374023
-32.7120246887207
-31.7583236694336
-33.4749908447266
-31.2814712524414
-20.6953639984131
-23.3657341003418
-33.0935096740723
-37.099063873291
-46.4453544616699
-59.3203506469727
-69.9064559936523
-72.0046081542969
-62.8490524291992
-57.6990547180176
-59.5110931396484
-57.6990547180176
-54.9333152770996
-55.6962776184082
-61.8953514099121
-74.8657150268555
-84.7842330932617
-85.7379379272461
-84.8796005249023
-85.3564529418945
-81.16015625
-74.7703475952148
-75.247200012207
-81.0647888183594
-89.0758972167969
-96.800895690918
-103.858299255371
-102.427742004395
-96.0379333496094
-99.3758926391602
-97.3731155395508
-87.3592300415039
-90.6971969604492
-94.5120086669922
-87.6453399658203
-85.8333053588867
-90.5064544677734
-94.5120086669922
-97.3731155395508
-95.4657135009766
-91.5555267333984
-89.5527496337891
-84.7842330932617
-79.3481216430664
-76.2009048461914
-75.4379425048828
-78.9666442871094
-80.111083984375
-76.296272277832
-76.9638671875
-84.4981231689453
-85.8333053588867
-81.16015625
-79.9203414916992
-78.2036819458008
-76.8684921264648
-74.5796051025391
-64.6610870361328
-57.1268348693848
-56.4592399597168
-59.7972030639648
-63.6120147705078
-59.4157218933105
-52.5490570068359
-51.404613494873
-50.7370223999023
-46.3499870300293
-42.2490615844727
-40.6277656555176
-43.3935050964355
-50.5462799072266
-51.8814659118652
-48.3527641296387
-47.2083168029785
-43.7749862670898
-39.1018409729004
-35.7638778686523
-32.3305435180664
-29.1833248138428
-25.2731399536133
-24.2240657806396
-26.7990646362305
-25.4638805389404
-22.2212886810303
-23.8425846099854
-28.7064723968506
-27.7527694702148
-22.2212886810303
-19.8370304107666
-16.8805503845215
-13.7333288192749
-16.9759197235107
-20.9814739227295
-20.409252166748
-15.2592544555664
-10.7768487930298
-14.2101802825928
-17.6435127258301
-12.3981437683105
-7.43888664245605
-10.9675893783569
-15.6407356262207
-17.357400894165
-20.5999927520752
-22.3166599273682
-18.3111057281494
-9.06018257141113
-2.28888821601868
-1.14444410800934
1.62129580974579
4.1962947845459
3.33796191215515
0
-3.8148136138916
-4.57777643203735
-1.71666610240936
-0.190740674734116
1.62129580974579
8.0111083984375
11.7305517196655
11.3490705490112
12.0166625976563
6.38981294631958
0.858333051204681
2.76573991775513
4.1962947845459
9.15555286407471
15.6407356262207
16.022216796875
16.4036979675293
17.8342533111572
17.738883972168
14.8777732849121
11.635181427002
10.2999963760376
13.5425882339478
17.6435127258301
19.4555492401123
25.6546211242676
36.5268402099609
44.6333198547363
50.1647987365723
53.7888717651367
52.3583183288574
46.8268356323242
41.7722091674805
40.3416519165039
45.6823921203613
53.0259094238281
60.1786842346191
72.3860855102539
77.0592346191406
76.3916397094727
84.3073806762695
92.5092315673828
95.4657135009766
94.416633605957
92.4138565063477
85.3564529418945
73.3397903442383
65.3286819458008
51.8814659118652
36.0499877929688
29.9462871551514
24.7962875366211
22.8888816833496
19.1694374084473
1.23981440067291
-12.4935140609741
-20.6953639984131
-32.9027671813965
-36.431468963623
-36.8129501342773
-45.300910949707
-60.1786842346191
-76.6777496337891
-84.0212707519531
-82.876823425293
-80.0157165527344
-74.7703475952148
-65.5194244384766
-58.0805358886719
-56.2685012817383
-55.0286865234375
-54.170352935791
-52.8351669311523
-46.3499870300293
-38.148136138916
-32.5212860107422
-27.4666576385498
-22.7935104370117
-20.8861045837402
-24.3194370269775
-41.5814666748047
-89.9342269897461
-168.614761352539
-249.679550170898
-288.590637207031
-279.339721679688
-284.680450439453
-300.321197509766
-254.352691650391
-138.286987304688
57.6990547180176
327.406372070313
588.816467285156
817.800659179688
1060.80432128906
1313.24963378906
1556.0625
1769.78735351563
1892.14758300781
1817.75866699219
1463.26708984375
994.140441894531
645.37109375
408.948028564453
195.986053466797
-19.360179901123
-253.971221923828
-498.405395507813
-682.660888671875
-768.971069335938
-774.025695800781
-730.632202148438
-691.911804199219
-677.987731933594
-688.1923828125
-721.762756347656
-766.396057128906
-805.402526855469
-817.705322265625
-794.81640625
-740.359924316406
-665.875732421875
-591.296081542969
-528.351684570313
-489.917449951172
-484.099853515625
-497.260955810547
-511.471130371094
-512.806335449219
-488.963745117188
-444.330413818359
-387.012847900391
-326.166564941406
-277.432312011719
-248.248992919922
-238.235107421875
-244.720291137695
-253.589736938477
-251.491592407227
-236.804550170898
-210.291595458984
-174.718460083008
-133.232360839844
-90.6971969604492
-60.8462753295898
-50.2601699829102
-48.9249839782715
-47.8759117126465
-46.4453544616699
-40.0555419921875
-23.9379558563232
0.572222054004669
29.1833248138428
54.8379440307617
74.0073852539063
84.4981231689453
84.6888580322266
84.4027481079102
85.6425628662109
86.5009002685547
91.6508941650391
103.667556762695
121.120330810547
136.570327758789
147.251800537109
153.164764404297
155.072174072266
156.02587890625
158.982360839844
167.565689086914
175.672164916992
176.816604614258
177.388824462891
181.58512878418
185.495315551758
189.310119628906
191.503646850586
191.122161865234
193.220306396484
196.55827331543
198.465682983398
203.329559326172
202.471237182617
192.934204101563
185.304565429688
184.160125732422
188.737899780273
193.887893676758
197.416610717773
199.324005126953
197.988830566406
196.367523193359
194.650863647461
186.067535400391
172.620315551758
167.088836669922
172.048095703125
176.530502319336
177.865676879883
181.966613769531
183.015686035156
177.29345703125
171.952728271484
162.41569519043
146.584213256836
140.194396972656
143.913848876953
144.867553710938
145.821243286133
152.306427001953
157.551803588867
151.066619873047
135.330505371094
123.313850402832
116.161071777344
107.673110961914
99.8527450561523
97.2777481079102
103.572189331055
112.441627502441
114.825889587402
110.820335388184
103.190704345703
93.4629364013672
78.7759017944336
68.5712738037109
69.0481262207031
64.8518295288086
62.5629425048828
69.4296035766602
74.0073852539063
78.1083068847656
76.3916397094727
66.1870193481445
58.0805358886719
49.6879463195801
40.5323944091797
36.3360977172852
39.7694320678711
47.3036880493164
51.0231323242188
53.0259094238281
52.1675758361816
41.2953567504883
28.2296199798584
19.2648086547852
9.63240432739258
2.28888821601868
4.86388731002808
14.4009208679199
20.7907333374023
17.0712909698486
10.1092557907104
1.71666610240936
-11.7305517196655
-22.9842510223389
-32.1398048400879
-40.7231369018555
-42.4398002624512
-39.3879508972168
-36.9083213806152
-36.2407302856445
-37.5759124755859
-42.4398002624512
-50.1647987365723
-58.1759071350098
-66.5684967041016
-72.0046081542969
-74.1027526855469
-73.9120101928711
-71.0509033203125
-69.3342361450195
-69.3342361450195
-74.1027526855469
-80.6833038330078
-81.3508987426758
-85.7379379272461
-94.3212661743164
-94.03515625
-92.318489074707
-92.7953414916992
-87.2638626098633
-84.3073806762695
-89.7434921264648
-94.2258987426758
-98.7083053588867
-107.291633605957
-113.299964904785
-112.25089263916
-109.485153198242
-104.62126159668
-99.7573776245117
-98.899040222168
-99.4712677001953
-102.237007141113
-100.806449890137
-100.043487548828
-104.144409179688
-101.950889587402
-99.5666351318359
-99.948112487793
-95.751823425293
-93.2721939086914
-92.6999740600586
-89.5527496337891
-88.7897872924805
-91.4601593017578
-91.9370040893555
-89.7434921264648
-91.5555267333984
-92.986083984375
-87.2638626098633
-82.3999710083008
-84.3073806762695
-86.7870101928711
-86.6916351318359
-86.4055252075195
-87.0731201171875
-82.6860809326172
-74.9610900878906
-70.5740509033203
-70.0971984863281
-67.9990539550781
-61.7046089172363
-60.4647941589355
-63.2305335998535
-60.8462753295898
-59.3203506469727
-56.7453536987305
-50.1647987365723
-51.3092422485352
-55.887020111084
-52.6444282531738
-50.2601699829102
-54.6472053527832
-51.7860946655273
-43.8703575134277
-41.1999855041504
-35.6685066223145
-28.5157318115234
-29.6601753234863
-32.9981384277344
-34.7148017883301
-36.5268402099609
-33.0935096740723
-28.5157318115234
-27.1805477142334
-22.5074005126953
-17.0712909698486
-16.4036979675293
-16.5944385528564
-18.6925868988037
-22.125919342041
-20.7907333374023
-22.7935104370117
-23.6518440246582
-12.6842555999756
-6.58055353164673
-8.58333015441895
-6.1037015914917
-3.62407302856445
-5.62685012817383
-7.6296272277832
-9.15555286407471
-9.537034034729
-8.3925895690918
-8.10647869110107
-3.91018390655518
2.76573991775513
5.34073925018311
6.6759238243103
9.15555286407471
9.82314491271973
8.0111083984375
8.29721927642822
10.2999963760376
13.7333288192749
19.5509204864502
18.8833274841309
15.4499950408936
17.4527721405029
14.3055505752563
7.82036781311035
6.1037015914917
6.58055353164673
11.635181427002
18.0249938964844
19.6462898254395
21.5536975860596
25.9407329559326
26.9898052215576
22.3166599273682
18.6925868988037
17.8342533111572
16.30832862854
19.1694374084473
25.177770614624
26.3222141265869
27.943510055542
33.761100769043
34.5240631103516
35.5731353759766
40.7231369018555
41.5814666748047
39.0064697265625
43.5842437744141
46.7314682006836
44.1564674377441
50.5462799072266
58.4620170593262
60.0833129882813
65.5194244384766
72.3860855102539
77.0592346191406
79.729606628418
79.4434967041016
79.6342315673828
82.4953460693359
92.318489074707
105.479598999023
112.823112487793
110.915702819824
97.849967956543
77.9175643920898
59.1296119689941
42.5351715087891
28.4203605651855
22.9842510223389
24.6055469512939
29.0879535675049
30.0416564941406
20.409252166748
4.7685170173645
-9.25092315673828
-25.9407329559326
-45.6823921203613
-51.4999847412109
-46.8268356323242
-47.9712791442871
-55.3147964477539
-64.8518295288086
-67.9990539550781
-66.7592391967773
-63.7073860168457
-60.6555366516113
-60.5601654052734
-55.9823913574219
-51.6907234191895
-53.5027618408203
-53.8842430114746
-54.170352935791
-48.8296127319336
-38.8157272338867
-33.5703582763672
-28.0388793945313
-26.9898052215576
-31.5675830841064
-29.7555465698242
-41.0092468261719
-91.6508941650391
-168.328643798828
-247.77214050293
-291.833251953125
-284.298980712891
-293.454528808594
-314.912872314453
-267.323059082031
-154.690689086914
37.4805450439453
306.710998535156
566.02294921875
803.304382324219
1058.03857421875
1321.45141601563
1568.9375
1781.80407714844
1908.74194335938
1847.89575195313
1506.85131835938
1028.75988769531
670.167358398438
435.937835693359
222.594375610352
9.537034034729
-232.89436340332
-493.636871337891
-683.519226074219
-772.976623535156
-788.045104980469
-754.474731445313
-714.323852539063
-694.963684082031
-708.506225585938
-746.368286132813
-788.903442382813
-820.471008300781
-825.144165039063
-801.587707519531
-749.610900878906
-671.979431152344
-593.108154296875
-534.169250488281
-502.601684570313
-498.691497802734
-513.283142089844
-529.591491699219
-526.730407714844
-499.931335449219
-457.205413818359
-399.983215332031
-339.709136962891
-291.928619384766
-260.647125244141
-245.387878417969
-246.436950683594
-257.404541015625
-261.886962890625
-248.725845336914
-217.92121887207
-176.911987304688
-131.801803588867
-90.9833068847656
-66.5684967041016
-58.4620170593262
-56.8407211303711
-58.5573883056641
-59.0342407226563
-51.7860946655273
-33.9518394470215
-3.62407302856445
29.0879535675049
50.355541229248
65.6147918701172
77.0592346191406
82.7814559936523
85.8333053588867
86.5009002685547
89.5527496337891
100.138854980469
111.869407653809
121.406440734863
132.946258544922
144.962921142578
149.54069519043
149.826797485352
154.118469238281
159.745315551758
163.083282470703
166.70735168457
174.527725219727
180.345306396484
178.342529296875
175.1953125
176.816604614258
182.252716064453
187.116607666016
192.075866699219
199.514755249023
203.04345703125
201.422164916992
196.55827331543
190.740676879883
186.449020385742
183.492538452148
185.209197998047
188.737899780273
195.127716064453
202.375854492188
203.234191894531
199.514755249023
195.986053466797
189.500869750977
181.68049621582
175.290679931641
171.857345581055
176.053649902344
181.108276367188
183.874008178711
188.547164916992
187.688827514648
177.102722167969
161.366607666016
148.014770507813
139.336059570313
136.284210205078
138.477737426758
144.962921142578
154.118469238281
156.216613769531
154.309204101563
153.069396972656
140.003662109375
120.643478393555
109.389778137207
104.239784240723
100.997192382813
102.904594421387
113.776817321777
122.741630554199
120.929588317871
112.346260070801
100.138854980469
85.3564529418945
67.903678894043
56.6499824523926
57.7944259643555
63.9934997558594
72.9583129882813
84.0212707519531
94.03515625
95.1795959472656
81.7323837280273
64.8518295288086
54.8379440307617
48.8296127319336
47.8759117126465
53.4073905944824
63.6120147705078
69.7157211303711
68.9527587890625
70.3833084106445
65.9962768554688
47.6851692199707
32.5212860107422
25.2731399536133
19.6462898254395
23.4611034393311
26.9898052215576
20.5999927520752
19.6462898254395
18.5018463134766
8.48795986175537
-1.62129580974579
-11.4444408416748
-20.409252166748
-27.7527694702148
-30.8046188354492
-29.5648059844971
-26.7036952972412
-24.7009181976318
-29.278694152832
-35.0009155273438
-41.5814666748047
-55.887020111084
-70.5740509033203
-75.8194198608398
-74.0073852539063
-76.0101623535156
-80.5879364013672
-77.4407196044922
-73.7212753295898
-77.5360870361328
-83.1629333496094
-91.6508941650391
-101.283302307129
-105.288856506348
-105.098114013672
-102.141632080078
-97.6592254638672
-93.2721939086914
-91.9370040893555
-98.1360778808594
-103.858299255371
-104.525894165039
-109.00830078125
-113.967559814453
-113.967559814453
-113.490707397461
-108.912925720215
-101.474044799805
-99.8527450561523
-101.664779663086
-102.237007141113
-102.61848449707
-103.286079406738
-105.384223937988
-106.528671264648
-104.62126159668
-103.286079406738
-103.476821899414
-101.760154724121
-102.237007141113
-106.624038696289
-103.095336914063
-96.0379333496094
-93.8444137573242
-94.2258987426758
-93.2721939086914
-90.220344543457
-89.2666397094727
-92.1277465820313
-94.5120086669922
-93.2721939086914
-89.8388595581055
-86.8823776245117
-82.2092361450195
-78.012939453125
-78.394416809082
-75.6286773681641
-73.0536804199219
-74.7703475952148
-72.8629379272461
-73.2444229125977
-72.6721954345703
-65.6147918701172
-65.137939453125
-66.0916442871094
-59.9879455566406
-58.1759071350098
-59.6064605712891
-58.9388694763184
-57.6990547180176
-56.5546112060547
-53.7888717651367
-45.3962821960449
-38.3388748168945
-37.4805450439453
-36.5268402099609
-37.9573936462402
-39.2925796508789
-37.9573936462402
-37.0036926269531
-31.3768424987793
-27.7527694702148
-28.7064723968506
-20.7907333374023
-14.3055505752563
-13.5425882339478
-9.9185152053833
-9.72777462005615
-13.5425882339478
-12.8749961853027
-11.0629596710205
-13.7333288192749
-10.2999963760376
-4.48240613937378
-7.82036781311035
-8.10647869110107
-5.1499981880188
-6.77129411697388
-10.7768487930298
-12.4935140609741
-10.3953666687012
-11.1583299636841
-7.91573810577393
1.23981440067291
1.81203651428223
0
5.62685012817383
7.24814605712891
1.71666610240936
0.0953703373670578
3.33796191215515
1.23981440067291
0.858333051204681
8.20184898376465
12.4935140609741
16.9759197235107
24.4148063659668
25.7499923706055
19.4555492401123
17.1666603088379
21.7444381713867
16.9759197235107
9.25092315673828
12.3981437683105
15.4499950408936
21.1722145080566
28.6111011505127
28.4203605651855
28.8018417358398
28.4203605651855
26.4175834655762
35.0009155273438
47.4944305419922
51.6907234191895
48.734245300293
48.5435028076172
54.6472053527832
55.6962776184082
52.9305381774902
58.7481307983398
66.4731292724609
68.8573837280273
74.8657150268555
80.6833038330078
79.8249740600586
87.5499725341797
102.141632080078
103.953666687012
96.7055282592773
85.0703430175781
63.6120147705078
43.4888763427734
31.4722118377686
25.5592517852783
28.1342506408691
34.1425819396973
34.6194343566895
24.3194370269775
9.15555286407471
-2.28888821601868
-16.9759197235107
-38.8157272338867
-47.017578125
-42.0583190917969
-46.1592445373535
-54.170352935791
-56.7453536987305
-62.2768325805664
-68.6666412353516
-68.4759063720703
-63.4212760925293
-58.7481307983398
-55.1240577697754
-51.2138710021973
-46.7314682006836
-45.0148010253906
-45.2055397033691
-40.6277656555176
-32.5212860107422
-26.226842880249
-22.0305480957031
-19.2648086547852
-22.7935104370117
-28.7064723968506
-33.6657295227051
-60.5601654052734
-123.218475341797
-205.1416015625
-274.761962890625
-290.688781738281
-278.386016845703
-298.413787841797
-295.457305908203
-216.013824462891
-68.1897964477539
174.718460083008
455.107269287109
691.053466796875
926.332092285156
1186.31164550781
1438.66162109375
1672.89111328125
1846.75122070313
1895.58093261719
1707.22448730469
1263.46630859375
831.820129394531
559.347045898438
339.709136962891
128.654586791992
-98.4221878051758
-364.791564941406
-595.110900878906
-730.346069335938
-781.273803710938
-763.344177246094
-718.329406738281
-687.715515136719
-685.045166015625
-714.514587402344
-757.622009277344
-795.007141113281
-815.416381835938
-807.500671386719
-771.16455078125
-708.220153808594
-625.91552734375
-553.910949707031
-512.424865722656
-495.448913574219
-496.974853515625
-510.898895263672
-519.29150390625
-506.130401611328
-470.461883544922
-420.583190917969
-362.884155273438
-306.424896240234
-265.320281982422
-243.098999023438
-238.807327270508
-249.107330322266
-256.736968994141
-250.633255004883
-228.125854492188
-192.2666015625
-153.355499267578
-113.776817321777
-78.394416809082
-57.6990547180176
-53.5981292724609
-51.6907234191895
-49.8786888122559
-50.9277610778809
-35.9546165466309
-8.77407169342041
18.9786968231201
50.2601699829102
71.8138656616211
78.8712692260742
81.2555313110352
80.4925689697266
77.345344543457
83.0675659179688
93.9397811889648
104.049041748047
120.83422088623
135.330505371094
142.578659057617
148.873107910156
155.549026489258
160.889770507813
163.274017333984
166.993469238281
167.565689086914
163.369384765625
166.802719116211
174.336975097656
178.247161865234
182.061981201172
185.018463134766
189.405502319336
198.65641784668
205.427719116211
208.288818359375
206.667526245117
197.416610717773
192.45735168457
193.506423950195
189.786972045898
188.928649902344
193.411056518555
197.130493164063
203.424942016602
208.956420898438
205.332336425781
197.416610717773
191.312896728516
183.969390869141
174.623092651367
169.186981201172
169.473098754883
173.574020385742
177.865676879883
182.252716064453
182.920318603516
174.146240234375
161.652725219727
149.922180175781
139.622177124023
132.755508422852
128.463851928711
134.853652954102
148.682357788086
155.072174072266
153.641616821289
144.581436157227
132.183288574219
120.452735900879
106.337928771973
97.0870056152344
97.2777481079102
102.046264648438
110.343482971191
116.924034118652
121.024963378906
119.308296203613
108.149963378906
94.416633605957
77.5360870361328
61.4184989929199
57.8897972106934
64.3749771118164
68.2851638793945
72.5768280029297
84.3073806762695
89.8388595581055
81.5416412353516
71.4323883056641
60.8462753295898
49.2110939025879
46.2546157836914
51.2138710021973
59.6064605712891
68.5712738037109
74.3888626098633
77.4407196044922
72.3860855102539
60.3694267272949
50.6416511535645
37.5759124755859
23.9379558563232
21.3629570007324
25.177770614624
27.1805477142334
30.8999900817871
34.810173034668
26.8944358825684
9.9185152053833
-3.33796191215515
-15.9268465042114
-27.0851764678955
-31.6629524230957
-32.9981384277344
-29.1833248138428
-25.177770614624
-25.4638805389404
-30.995361328125
-43.5842437744141
-55.0286865234375
-66.1870193481445
-75.1518249511719
-74.5796051025391
-73.8166427612305
-72.8629379272461
-63.9934997558594
-57.8897972106934
-63.5166473388672
-71.8138656616211
-78.7759017944336
-86.6916351318359
-92.6045989990234
-94.03515625
-93.1768188476563
-93.367561340332
-94.7981185913086
-93.1768188476563
-93.1768188476563
-98.4221878051758
-101.760154724121
-105.86107635498
-112.537002563477
-115.207366943359
-114.34903717041
-113.490707397461
-111.583297729492
-106.719413757324
-103.572189331055
-103.572189331055
-104.430519104004
-111.487930297852
-118.44995880127
-120.071258544922
-121.215698242188
-118.831443786621
-111.964782714844
-107.005523681641
-106.051818847656
-105.86107635498
-107.95922088623
-109.866630554199
-107.005523681641
-105.384223937988
-104.716636657715
-101.569412231445
-101.760154724121
-105.193481445313
-106.147186279297
-102.237007141113
-95.9425582885742
-91.5555267333984
-89.3620071411133
-84.6888580322266
-80.3018264770508
-80.4925689697266
-77.2499771118164
-73.6259002685547
-76.0101623535156
-76.8684921264648
-77.5360870361328
-77.1546020507813
-70.6694183349609
-65.5194244384766
-61.5138702392578
-57.4129447937012
-56.6499824523926
-58.4620170593262
-60.4647941589355
-56.8407211303711
-50.832389831543
-46.5407257080078
-42.630542755127
-42.0583190917969
-40.5323944091797
-36.6222114562988
-38.8157272338867
-40.4370231628418
-37.3851737976074
-35.8592491149902
-30.4231376647949
-27.3712882995605
-33.0935096740723
-30.70924949646
-23.1749935150146
-21.9351787567139
-22.4120292663574
-24.6055469512939
-29.7555465698242
-31.0907306671143
-24.7009181976318
-19.6462898254395
-18.5018463134766
-15.35462474823
-12.588885307312
-12.302773475647
-12.0166625976563
-13.3518476486206
-13.256477355957
-15.0685138702393
-18.6925868988037
-14.5916624069214
-7.15277528762817
0
6.48518323898315
6.00833129882813
2.5749990940094
-0.0953703373670578
-3.8148136138916
-3.24259161949158
1.52592539787292
9.06018257141113
20.409252166748
35.7638778686523
50.355541229248
54.5518341064453
52.7397994995117
49.4972076416016
42.1536903381348
37.8620262145996
39.2925796508789
42.630542755127
53.5981292724609
69.8110885620117
78.1083068847656
80.9694213867188
81.3508987426758
82.3046035766602
93.4629364013672
99.8527450561523
92.8907089233398
86.0240478515625
75.3425674438477
59.2249794006348
45.1101722717285
34.3333206176758
32.5212860107422
33.9518394470215
26.226842880249
15.4499950408936
5.43610954284668
-8.0111083984375
-15.1638841629028
-25.4638805389404
-46.3499870300293
-49.5925750732422
-42.1536903381348
-47.5897979736328
-57.4129447937012
-68.3805313110352
-77.4407196044922
-74.9610900878906
-71.3370132446289
-68.4759063720703
-58.4620170593262
-48.4481315612793
-41.3907279968262
-38.4342460632324
-43.2981338500977
-47.8759117126465
-45.4916534423828
-41.1046180725098
-36.5268402099609
-26.5129547119141
-17.5481433868408
-14.4009208679199
-13.256477355957
-30.1370277404785
-87.6453399658203
-175.004577636719
-254.734176635742
-289.544342041016
-282.582305908203
-286.492492675781
-291.356384277344
-237.662887573242
-117.973114013672
87.1684875488281
363.360992431641
619.62109375
852.133972167969
1104.96081542969
1366.56164550781
1621.58190917969
1824.1484375
1923.5244140625
1828.3447265625
1442.28564453125
973.540405273438
663.872924804688
437.463745117188
214.678634643555
-6.1037015914917
-267.799926757813
-527.874816894531
-693.056274414063
-754.570129394531
-749.229370117188
-715.182189941406
-680.658142089844
-667.783142089844
-688.669250488281
-725.482177734375
-764.107177734375
-796.246948242188
-801.68310546875
-770.306213378906
-709.841430664063
-636.215515136719
-564.878540039063
-510.994293212891
-484.576690673828
-484.099853515625
-502.315582275391
-517.193359375
-509.372985839844
-478.186889648438
-427.545227050781
-365.745239257813
-308.236938476563
-265.701751708984
-236.709182739258
-224.024932861328
-229.174926757813
-238.330474853516
-238.711959838867
-222.212890625
-190.263824462891
-153.73698425293
-115.398109436035
-78.4897918701172
-51.1185035705566
-37.4805450439453
-38.5296173095703
-44.251838684082
-43.7749862670898
-35.0962867736816
-16.6898097991943
9.9185152053833
40.6277656555176
63.9934997558594
74.9610900878906
83.0675659179688
88.9805297851563
90.1249694824219
90.3157119750977
91.6508941650391
98.1360778808594
109.580520629883
122.074035644531
138.286987304688
152.783279418945
155.262908935547
157.265686035156
162.41569519043
165.658279418945
172.811050415039
174.909210205078
170.426803588867
173.383270263672
180.726791381836
184.636978149414
186.258270263672
187.402725219727
192.552719116211
196.749008178711
196.55827331543
200.277709960938
200.9453125
196.65364074707
194.36474609375
191.122161865234
189.977722167969
191.885116577148
192.2666015625
192.934204101563
194.650863647461
192.743453979492
186.067535400391
177.674942016602
168.90087890625
162.892547607422
164.323089599609
169.282348632813
170.903656005859
173.478652954102
179.48698425293
176.911987304688
166.802719116211
158.219390869141
145.630508422852
134.090698242188
130.561996459961
129.512924194336
131.897186279297
142.197174072266
149.63606262207
150.589767456055
152.974029541016
146.107360839844
126.747184753418
111.392555236816
102.61848449707
99.6620025634766
102.809226989746
109.199035644531
113.109222412109
108.531448364258
107.387001037598
107.100891113281
91.8416366577148
78.394416809082
70.5740509033203
61.1323890686035
61.6092376708984
70.0018310546875
78.012939453125
81.7323837280273
82.3999710083008
78.2036819458008
68.0944213867188
58.4620170593262
51.2138710021973
46.3499870300293
48.9249839782715
59.4157218933105
73.1490478515625
81.4462738037109
79.6342315673828
71.5277557373047
64.0888671875
58.7481307983398
51.1185035705566
41.1046180725098
34.9055442810059
35.8592491149902
34.6194343566895
34.7148017883301
41.3907279968262
36.8129501342773
19.2648086547852
6.48518323898315
-3.8148136138916
-21.3629570007324
-31.8536930084229
-29.3740653991699
-25.3685111999512
-20.7907333374023
-18.6925868988037
-20.1231422424316
-26.6083240509033
-41.1999855041504
-56.2685012817383
-63.9934997558594
-68.1897964477539
-74.5796051025391
-78.8712692260742
-75.3425674438477
-66.4731292724609
-68.9527587890625
-84.0212707519531
-91.4601593017578
-98.8036727905273
-108.054595947266
-106.337928771973
-106.147186279297
-105.574966430664
-95.8471908569336
-92.6999740600586
-99.2805252075195
-107.673110961914
-116.161071777344
-123.123107910156
-126.365699768066
-123.218475341797
-117.114776611328
-117.973114013672
-123.886070251465
-124.076812744141
-121.406440734863
-116.44718170166
-109.580520629883
-110.438850402832
-118.163848876953
-120.166625976563
-116.065704345703
-118.545333862305
-121.215698242188
-116.542556762695
-111.297187805176
-108.817558288574
-112.823112487793
-115.016632080078
-109.485153198242
-107.387001037598
-110.820335388184
-108.054595947266
-97.0870056152344
-91.5555267333984
-92.2231216430664
-90.0296020507813
-86.8823776245117
-87.4546051025391
-88.5036773681641
-83.5444183349609
-80.0157165527344
-80.9694213867188
-78.394416809082
-81.4462738037109
-85.6425628662109
-79.2527542114258
-76.5823822021484
-77.1546020507813
-69.5249786376953
-62.4675712585449
-60.274055480957
-59.4157218933105
-59.0342407226563
-57.2222023010254
-54.8379440307617
-51.4999847412109
-53.0259094238281
-57.4129447937012
-50.355541229248
-41.8675804138184
-45.3962821960449
-49.2110939025879
-45.2055397033691
-41.1046180725098
-44.6333198547363
-43.2027626037598
-36.5268402099609
-37.3851737976074
-33.3796195983887
-25.177770614624
-24.7009181976318
-21.0768451690674
-11.0629596710205
-1.52592539787292
4.57777643203735
6.00833129882813
8.96481227874756
15.2592544555664
18.0249938964844
17.357400894165
17.8342533111572
26.1314735412598
33.9518394470215
30.8999900817871
35.9546165466309
45.9685020446777
48.1620216369629
54.8379440307617
64.9472045898438
74.8657150268555
82.2092361450195
82.876823425293
84.2120132446289
79.2527542114258
57.4129447937012
36.9083213806152
33.2842483520508
26.4175834655762
12.9703664779663
9.15555286407471
4.00555419921875
-6.6759238243103
-15.7361059188843
-39.0064697265625
-70.5740509033203
-80.6833038330078
-83.0675659179688
-92.986083984375
-92.8907089233398
-85.1657104492188
-82.9721984863281
