Value(bpm)
91.7014925373134
91.7012218480372
91.7009573342583
91.7007051697353
91.7004715280982
91.7002625828698
91.700084507494
91.6999434753741
91.6998456599178
91.6997972345916
91.6998043729831
91.6998732488716
91.7000100363069
91.7002209096971
91.7005120439037
91.7008896143458
91.7013597971123
91.7017265117714
91.7000333196646
91.6934180013049
91.6790136508216
91.6539601404678
91.6154098727757
91.5605352858644
91.4865380692435
91.3906600259529
91.2701954914533
91.1225321395987
90.9496740429926
90.7632044712146
90.5757548800061
90.399753954329
90.2474428671665
90.1309238165163
90.0622408613724
90.0534928146225
90.1169790469685
90.2653805322162
90.5109724185735
90.8512860035027
91.2720499243626
91.7585643822153
92.2957710471685
92.868046430046
93.4590418643661
94.0515748150898
94.6275783279209
95.1681168140598
95.6539906139319
96.0757513985564
96.4335028372339
96.7280119390048
96.9603454987043
97.1318529749808
97.2441468421088
97.299080862827
97.2987267472975
97.245349667349
97.1414879280395
96.9910835050401
96.7990073604268
96.5701887299154
96.3095614495515
96.0220303424136
95.7124427230397
95.3855650471814
95.046064626283
94.6984962406917
94.3472219182392
93.9948478765713
93.6422847730392
93.2903469927635
92.9398249460059
92.5914854629144
92.2460723129341
91.9043068388282
91.5668886958065
91.2344966868541
90.9077896860129
90.5867169375897
90.2679183102507
89.9471366736856
89.6202355260265
89.2832018250684
88.9321521763157
88.5633422717917
88.1731792440677
87.7582365674468
87.3152710991318
86.8412418103042
86.3344995101809
85.800325494721
85.2462522097007
84.679502139562
84.1069626972237
83.5351769483874
82.9703453345909
82.4183370174854
81.8847095423197
81.3747356460079
80.8934362004914
80.4456184741827
80.0352149754095
79.662693378338
79.3275719516436
79.0294637791271
78.7680757346384
78.5432078370836
78.3547531960922
78.2026985552197
78.0871254468518
78.0082119806395
77.9662352954725
77.9615747138873
77.9945403887993
78.063168426951
78.1638601754854
78.2930258825943
78.4470940990176
78.6224866390147
78.8155967738695
79.0227705984513
79.2402915901741
79.4643684468752
79.6911263457505
79.9166018089975
80.1368804152623
80.3498608313077
80.5547763698676
80.7508817091913
80.937424445922
81.1136466606176
81.278786631798
81.4320806973209
81.5727652605316
81.7000789371609
81.8132648373803
81.9115729757729
81.9945656316151
82.0634288378083
82.1199052319675
82.1657600573392
82.2027758680801
82.2327483008787
82.2574826038014
82.278790940863
82.2984904851971
82.3184023094738
82.3403510794301
82.36615419565
82.3962589142325
82.428441454881
82.4601643219877
82.4888823134162
82.512043583581
82.5270922849699
82.5314727941317
82.5226355192324
82.4980442732543
82.4551851798679
82.3915770581302
82.3050733736402
82.1980212602257
82.0762413875122
81.9455996608139
81.8118975404811
81.6808638888693
81.558154967807
81.4493623250934
81.3600283329061
81.2956692098435
81.2618054696985
81.2639998933746
81.3071254686743
81.390069661304
81.5089304905569
81.6598439061556
81.8389677756221
82.0424525875618
82.2664157364631
82.5069193084349
82.759951383871
83.0214109564646
83.2870966384915
83.5527325163827
83.8169520374309
84.0837727765613
84.3578793303769
84.6440802378769
84.9473199680992
85.2726968402196
85.6254873639431
86.011177601242
86.4355023040274
86.9044927840887
87.424483822779
87.9975608900712
88.6175948752702
89.2773096292766
89.9690370821097
90.6846424994645
91.4154610877831
92.1522481333154
92.8851453897438
93.6036668709592
94.2967082943475
94.9538307358895
95.5679702408395
96.1326009689053
96.64109811095
97.0868025260256
97.4630944354907
97.7634754471645
97.9816577727181
98.1116590728646
98.1480208173174
98.094179615074
97.9677846632987
97.7879518767853
97.5737451326302
97.3440074752982
97.1172667282104
96.9117133303191
96.7452472946024
96.6355913997884
96.6001613040513
96.6426634802071
96.747781815921
96.8989210291917
97.0794442038895
97.2725417831415
97.4611576447412
97.6279738349155
97.7554561996378
97.825962937277
97.8227191290982
97.7432034693878
97.5970821875888
97.3945826031696
97.1459892190273
96.8615381962019
96.5513336652074
96.2252859637342
95.8930712593195
95.5641115819195
95.2473293777215
94.9458232343783
94.6570634178892
94.3783481891591
94.1070432537589
93.8405765225071
93.5764343810565
93.3121593790652
93.0453492573694
92.7736572361488
92.4947965108407
92.2087171874475
91.9213545829647
91.6395171642046
91.3698481052901
91.1188393787468
90.8928549671934
90.6981627344483
90.5409746623208
90.4274953728354
90.3639791149238
90.3564272813371
90.4025476597393
90.4917359058289
90.6130787111958
90.7556307960785
90.9083497241522
91.0600571041936
91.1994267928931
91.3150009767258
91.3952349923903
91.4285714285714
91.4067775867733
91.3347322828451
91.2206816154115
91.07292310742
90.8997377571288
90.709337190529
90.5098259956607
90.3091789776771
90.1152328487183
89.9356917548757
89.7780773608772
89.6450304454974
89.5313494816734
89.4311885004717
89.3387693603177
89.2483678897223
89.1543075024555
89.0509601048676
88.9327541306399
88.7941895154014
88.6298593642491
88.434634405857
88.2077020982874
87.9528319934093
87.6739962908361
87.3751189503764
87.0600572446931
86.7325869691351
86.3963911936139
86.0550523955934
85.7120477812279
85.3707475823613
85.0344127226907
84.7053616750164
84.3839148013758
84.0701139217749
83.7640002701247
83.4656146990935
83.1749978819104
82.8921905114492
82.6172334969306
82.3501681585924
82.0910364206847
81.8398810031625
81.5967460600303
81.3616909169621
81.1347923416492
80.916128951096
80.7057805146182
80.5038282149885
80.3103549113512
80.1254454045019
79.9491867051567
79.7816683058681
79.6229824572834
79.4732244494723
79.3324878820588
79.2005913461132
79.0769420323571
78.9609245238763
78.8519346035967
78.749378139355
78.652670072995
78.5612335084733
78.4744988945941
78.391903298555
78.3128897669764
78.2369067715193
78.1634078045234
78.0921839261432
78.024131250502
77.9603683985265
77.9020077915693
77.8501570559487
77.8059207387124
77.7704023337666
77.7447066197555
77.7299423136861
77.7272250472941
77.7376806765521
77.7624489385682
77.8027444900943
77.8603570374181
77.9374187191765
78.0361087630139
78.1586614559242
78.3073790064905
78.4846460357581
78.692945882194
78.9348789488113
79.2131833711331
79.5307583450522
79.8906905261278
80.2954718722133
80.7398644565615
81.2139783147212
81.7074494268623
82.209416516238
82.7084756715373
83.1926645094676
83.6494798594857
84.0659330270914
84.4286463158115
84.7239935737042
84.9385710768711
85.0698610421575
85.1295214478671
85.1305792499431
85.0863451746818
85.0102515664775
84.9157310832006
84.8161376654875
84.7247098858274
84.6545760198754
84.6187999761453
84.6304666226875
84.6982272175844
84.8157392751487
84.9736087549789
85.1624332413634
85.3727214515553
85.5948333146158
85.8189410155162
86.0350118722045
86.2328141905661
86.4019473069675
86.5318968591817
86.614623775596
86.6531955556859
86.6538609357492
86.6229805811722
86.5669760812384
86.49228809411
86.4053439342416
86.3125347487967
86.2202022578697
86.134634921412
86.0620733433535
86.0077530506651
85.9700078628771
85.9442162806482
85.9257689189552
85.9100701089508
85.8925324941409
85.8685765389157
85.8336349243802
85.7831617977272
85.712646811007
85.6176338335554
85.4943184552523
85.3477713448711
85.1898843884343
85.0325764653688
84.8875945996425
84.7665324569887
84.6808805827004
84.642107662424
84.6617728435774
84.7516702645186
84.9240084306334
85.1914760746577
85.5568419423179
86.0056854704404
86.5217833558754
87.0884225007933
87.6881518277882
88.3025951115829
88.9123323900906
89.4968603975569
90.0346441741914
90.5032721747048
90.8814816934079
91.1649271028762
91.3594088396691
91.4715059168422
91.5083440275643
91.4774707618075
91.3867373040669
91.2441896464804
91.0579716265077
90.8362413910907
90.5870996679094
90.3166841880872
90.0259412835377
89.7149629497668
89.3838739677372
89.0328317379729
88.66202598759
88.2716783510974
87.862041826723
87.4334001109377
86.9860668147283
86.5203845726526
86.0369593515566
85.5372602985056
85.022920360541
84.4955321299387
83.9566437892023
83.4077557043113
82.8503176362418
82.2857265366841
81.7153248908203
81.1403995679115
80.5621811391927
79.9818436583589
79.4017898450366
78.8289050694361
78.2707183174761
77.7343344561114
77.2264757054962
76.7535336862072
76.3216306115477
75.9366886374663
75.6045068583566
75.3308459433065
75.121520950043
74.9825034474858
74.920003827943
74.9354030864972
75.0194738140582
75.1619021684766
75.3525215373395
75.5811651829118
75.837546493756
76.1111661621421
76.391246834008
76.6666967087504
76.9261041885052
77.1577659558711
77.3497507456801
77.4915476343637
77.5836816938311
77.6316514725943
77.6411678865513
77.6180742287216
77.5682927025438
77.4977793416512
77.4124878172622
77.3183423763513
77.2212199509834
77.1269413350581
77.0412712397653
76.9698807797609
76.9158379388161
76.8783385301742
76.8562825641538
76.8485919911261
76.8542065413845
76.8720799127994
76.9011762839242
76.9404671346045
76.9889283600604
77.0455376679136
77.1092722507503
77.1791067296019
77.2540257691574
77.3330848622782
77.4153585173164
77.4999142072411
77.5858116672457
77.6721024314142
77.7578295974372
77.8420278246673
77.9237235709427
78.0019355735141
78.0756755790492
78.1439493270751
78.2058442222082
78.261619940838
78.3123886827374
78.3592895073057
78.4034684081598
78.4460773555642
78.4882736725895
78.5312197496946
78.5760831018748
78.624036772388
78.6762600873684
78.7339397663728
78.7982921636639
78.8711993343635
78.95533453067
79.0534462163342
79.1683227821447
79.3028033793747
79.4597909191903
79.6422673915684
79.8533117023434
80.0961202816707
80.3740307832645
80.6905492736395
81.0491184182779
81.4487753261812
81.8846406435191
82.3515687090351
82.8442221474767
83.3570293475297
83.884148008023
84.4194355298936
84.9564272469978
85.4883236725442
86.0079880782183
86.508052797942
86.983935084144
87.434584042096
87.8591885523575
88.2569771308262
88.6272214469421
88.9692397033663
89.2823998485695
89.5661225945319
89.8198842129118
90.0432190845559
90.2358966404813
90.3991276443652
90.5348564804929
90.6451106518889
90.7319848575159
90.7976295353785
90.8442401794664
90.8740475361744
90.8893087663417
90.8922996406737
90.8853040458261
90.8699748489819
90.8466192187998
90.8153764261423
90.7763895365134
90.7298051711515
90.6757732681588
90.6144468442568
90.54598175774
90.4705364731727
90.388271828352
90.299221958318
90.2014517875858
90.0915080315686
89.9659387630244
89.8213453676783
89.6543956085197
89.4618389898589
89.2405242175379
88.9874185040408
88.6996284164653
88.3744219134244
88.0101029889507
87.6133175768786
87.1951149309405
86.7662409461043
86.3370520628146
85.9175068584304
85.5171814570915
85.1453064270111
84.8108231227733
84.522457893274
84.2888131852218
84.1184019318856
84.0147159659041
83.9731107462965
83.9884681605967
84.0559089594958
84.170729082286
84.3283431099101
84.5242338708496
84.7539074926932
85.0128534200295
85.2965091162058
85.6002290446792
85.918789702144
86.2453924637072
86.5727617945125
86.8933994636456
87.1995877093329
87.4834060248052
87.7367624945501
87.9514404394027
88.1191608365028
88.2316605601724
88.2808161026311
88.2638140317763
88.1888988954613
88.0658775452735
87.9046300668761
87.7150143135574
87.5067926090224
87.2895807377732
87.0728187636108
86.8657628501895
86.6774970937549
86.5169583556254
86.3886203532653
86.2849176170249
86.1963483645783
86.1135123499751
86.0270878949505
85.9278293427786
85.8065844750908
85.6543313676575
85.4622339218251
85.2217149065977
84.9245448019792
84.5645347717467
84.1471770101172
83.6828247925398
83.1816283538997
82.65342239967
82.1076590010427
81.5533645357401
80.9991185559059
80.4530522117306
79.9228638126079
79.4158492263843
78.9389450633564
78.4985573220957
78.0978283381903
77.7376833135854
77.4190559797199
77.1429515958276
76.9104613383504
76.7227775648049
76.5812101831998
76.4872043914558
76.4423600916493
76.4484533330185
76.507460197647
76.6215821604842
76.7909616313457
77.0089276519548
77.2675126575649
77.5586675472442
77.8741816460491
78.2056187616943
78.5442700598164
78.8811250001929
79.2068619515424
79.5118603122445
79.7862359782745
80.0199040081595
80.2062019008151
80.3492555716787
80.4554381275788
80.5313086694207
80.5835572767379
80.6189601221928
80.6443454371265
80.666570777023
80.6925118364936
80.7290629432029
80.7831493222336
80.8617318677685
80.9685762981395
81.1005602135993
81.2536772062246
81.4238955029479
81.6071384262332
81.7992687614968
81.9960771250672
82.1932744854476
82.3864890332465
82.5712676201157
82.7430819927238
82.8976217863476
83.0343703519627
83.1556025877024
83.2637022450293
83.3610930865979
83.4502319681702
83.5336032848596
83.6137148394084
83.693095178444
83.7742924343276
83.8598747055342
83.9524248412558
84.0527549069667
84.1575271463
84.2627850621019
84.3645328352629
84.4587366464509
84.541329846131
84.6082220544018
84.6553122436803
84.6785058125045
84.6737355976414
84.6369866948327
84.565776512822
84.4670373779662
84.351381753752
84.2293478382651
84.1113616274191
84.0077343757121
83.928685513303
83.8843904204702
83.8850528248046
83.9410022018705
84.0628174341652
84.261159645817
84.5371454283617
84.8803148018738
85.2794972988403
85.7233157591189
86.2000421115302
86.6974816700294
87.202888141171
87.7029127828946
88.1835920653762
88.6303786801574
89.0290561080208
89.376488511015
89.6779390389619
89.9391773348954
90.1662447300022
90.3654041320765
90.5430970084632
90.7059084510417
90.8605410930021
91.0137984704345
91.1725766502487
91.3412540753076
91.5163326842523
91.6927605990519
91.8654082695077
92.0290694828238
92.1784682441917
92.3082717345203
92.4131095050795
92.4875989918953
92.5263773245069
92.5248309519814
92.4851302608877
92.4132793836996
92.3153628553965
92.1974661600067
92.0656457104454
91.9259068911534
91.7841900951446
91.6463645891035
91.5182299863578
91.4055034565072
91.3102092063713
91.2266612638057
91.1482471096173
91.0684035436898
90.9806139005018
90.8784146375445
90.7554110979125
90.6053021826529
90.4219135505286
90.1992387969764
89.9320040424409
89.6241283820712
89.2870897264073
88.9323502957911
88.5710558226885
88.2140085749362
87.8716678326766
87.5541756586078
87.2714059630504
87.0330352588132
86.8486340947425
86.7273735687779
86.6692536978127
86.6652360812719
86.7061071227567
86.7827791446244
86.8862053933049
87.0073143273804
87.1369627517209
87.2659078572174
87.3847985566882
87.4841866720477
87.5548229510268
87.5927245057114
87.598829106794
87.574327527869
87.5204736886597
87.4385761676029
87.3299898131656
87.1961075353323
87.0383523502576
86.858169742127
86.6570203970551
86.436395025423
86.1984640949551
85.9461714596532
85.6824586508388
85.4102103962488
85.1322485139406
84.8513277960739
84.5701337782869
84.2912822829353
84.0173206222272
83.7507303496808
83.4939314548008
83.2485842946255
83.012938412096
82.7842753310213
82.5599383393906
82.3373287024321
82.113903380147
81.8871743640077
81.6547095426983
81.4141350075471
81.1631387053942
80.899475340482
80.6209724734888
80.3275156911274
80.0261680293463
79.7254118618696
79.4334799117175
79.158367178845
78.9078590060417
78.6895741722588
78.5110222128891
78.3796745869686
78.3030498368101
78.2888135212905
78.3448944672581
78.4779683994499
78.6821928320358
78.9458059917656
79.2569835388963
79.6037077121538
79.9736346682766
80.3539971362443
80.7315449020582
81.0925267321098
81.422717937334
81.7074977790681
81.9319811176448
82.0856722971255
82.1731257190822
82.2023587387481
82.1816850742531
82.1196053068157
82.0247127914514
81.9056165685875
81.7708821351998
81.6289903404308
81.4883142318921
81.3571134000046
81.2435143682599
81.1518414773865
81.0791826602242
81.0218463167083
80.9761817393085
80.9385669536852
80.9053998892966
80.8730928047206
80.8380699196576
80.7967682205043
80.745641409374
80.6811669577096
80.5999216595077
80.50216763461
80.3936566956181
80.2805438376995
80.1689193695165
80.0648067620216
79.9741696199626
79.9029275380506
79.8569806763099
79.8422430158358
79.8646844365491
79.9303819945938
80.045497194437
80.211735771644
80.4239042926603
80.6762685137401
80.9630710844395
81.278475311636
81.6165167229477
81.9710625353728
82.3357794148134
82.7041101495062
83.0692600513527
83.4241940361833
83.7623365911639
84.0814038881943
84.3808643136447
84.6602127578602
84.918968127439
85.156675162166
85.3729061905571
85.5672628121986
85.7393774952647
85.8889150779199
86.015574162758
86.1191523213627
86.2001747439534
86.2596298356224
86.2985515099169
86.3180080602673
86.3190971530993
86.30294099276
86.2706816930973
86.223476885899
86.1624955917786
86.088914374576
86.0039334001578
85.9091435967818
85.8064885294336
85.6979121084904
85.5853420466042
85.4706876988548
85.3558387743278
85.2426648978869
85.1330159994067
85.0287235077987
84.9316023287248
84.8434397338029
84.7636766172655
84.6868252838843
84.6068120605416
84.5176097778474
84.4132464447816
84.2878223342788
84.1355351985411
83.9507132105227
83.7278550632399
83.4616764579985
83.1471619855039
82.7805069274814
82.3688429022326
81.9261682772614
81.4661392811885
81.0018692324338
80.5459015698471
80.1102237409311
79.7063174386485
79.3452411731549
79.0377420542902
78.7943948687219
78.6257680209035
78.5423095283729
78.5451807286621
78.6246635951063
78.7707921048033
78.9738242366189
79.2240853627771
79.5118363872647
79.8271652158744
80.1599014061045
80.4995548727995
80.8352803257794
81.1558696720381
81.4502064832551
81.7127978193958
81.9423617813018
82.1377721257922
82.2979737049526
82.421990268046
82.5089319818181
82.5580025756425
82.5685060185826
82.5398526378214
82.4715645921
82.3632806197911
82.2155868698376
82.032794567103
81.8202285727608
81.5831831242938
81.3268880942583
81.0564822979623
80.776993685203
80.4933261578278
80.2102526718648
79.9324142356813
79.6643244007079
79.4103788549938
79.1743720893615
78.9571341766697
78.7584565491705
78.5781549740754
78.4160704879584
78.2720689588232
78.1460407329919
78.0379003649021
77.9475864284261
77.8750614088355
77.8203116750436
77.7833475322608
77.7641123399493
77.7607584300755
77.7697862521695
77.7876448202154
77.8107845717211
77.8356509193589
77.8586810433781
77.8763039370681
77.8849437236295
77.8810262563496
77.8609889948736
77.8212941186637
77.7584532660763
77.6711516089351
77.5630012616389
77.43829670647
77.3013040209151
77.1562453343191
77.007288033256
76.858538600466
76.7140409344401
76.5777789801404
76.4536835045912
76.345642872778
76.2575177181946
76.1930447453112
76.1542163688215
76.1416903921241
76.1561405061823
76.198297860036
76.2689562615253
76.3689778730937
76.4992994700444
76.6609393380396
76.8550048976498
77.082701156688
77.345340106253
77.6443428666676
77.97984033346
78.3490173919592
78.7486298994005
79.1753508318159
79.6257421765533
80.096229084265
80.583076454508
81.0823682284541
81.589989756925
82.1016137004808
82.6126899980331
83.1184075644139
83.6132730425152
84.0912187577499
84.5459258971915
84.970857480817
85.3592949392872
85.7043859079283
85.999203550918
86.236817381777
86.4103751193371
86.513194621806
86.5393326504679
86.4925501880649
86.3855503574203
86.2315213909825
86.0436533342359
85.8350162833875
85.6184791665148
85.4066682664871
85.211963916818
85.0465335346099
84.9223993500751
84.8514970967766
84.8386391838539
84.8735673397183
84.9442266530632
85.0385955850132
85.1446013641997
85.2500694187394
85.3427072083818
85.4101232213895
85.4398818854263
85.4195946939963
85.3370469612662
85.1835185093955
84.9645546345576
84.6896825623105
84.3684474209898
84.0103018860872
83.6245177930392
83.2201195492767
82.8058385764352
82.39008751895
81.980952660134
81.586202869875
81.2133067651601
80.8668200526567
80.5445175200432
80.2432484049292
79.9599799265191
79.6917823279403
79.4358164672556
79.1893237382511
78.949618138937
78.7140803344607
78.4801535828813
78.2453414078579
78.007206912482
77.7639415614966
77.5174158686071
77.2708848259959
77.0275256464094
76.7904360629902
76.5626387586157
76.3470881359676
76.1466792894439
75.9642590673442
75.8026391461917
75.6646110781754
75.5529633174097
75.4704992091585
75.4192830648717
75.399297883346
75.4102368367755
75.4518693699683
75.5240392590556
75.6266631341688
75.7597294464135
75.9232978646462
76.1174990924361
76.3425351002783
76.5986797726775
76.8862799742495
77.205405680966
77.5519091232229
77.9186720334529
78.2982764617171
78.6830194464213
79.0648915861978
79.435571092639
79.78643496595
80.1085889411447
80.392917692878
80.6301564367455
80.8109845040479
80.9274315254418
80.9818765714956
80.9818009212829
80.9349563027882
80.8492398653871
80.7326111964057
80.5930243551421
80.4383755438341
80.2764665424652
80.1149836701716
79.9614918028732
79.82344287074
79.7073551219693
79.6123778225049
79.533938998763
79.467495629775
79.4085486417633
79.3526318297393
79.2953058867897
79.2321574441207
79.1588030416023
79.070897941824
78.9641496713278
78.8343361217068
78.6775712748608
78.4943053345813
78.2886054468853
78.0646150563688
77.8264183791252
77.5780243195503
77.3233547737741
77.0662371364254
76.810400788663
76.5594773250134
76.3170042727687
76.086432068626
75.8711340810744
75.6738622820726
75.494387354166
75.3315372211355
75.1841790647066
75.0512152506103
74.9315790691715
74.8242308734074
74.728154582907
74.6423545264557
74.5658526004759
74.497685723947
74.4369035736044
74.3825665859564
74.3346159594193
74.2964796664556
74.2724480824225
74.2668137020676
74.2838899726433
74.3280352012716
74.4036817442697
74.5153708186574
74.6677934399944
74.8658381919139
75.1146467797678
75.4196786256538
75.7866995700636
76.2158155152402
76.6972011235715
77.2197506069101
77.7718397738847
78.3412045602716
78.9148528419653
79.4790149159759
80.0191391399252
80.5199397846196
80.9655039956495
81.3394636832556
81.6258719689104
81.8216324573543
81.9359934555699
81.9792872611307
81.9623020436761
81.8961086422006
81.7919132141856
81.6609387873922
81.514337282451
81.3631323992367
81.2181929310052
81.0902355962051
80.9890601842924
80.9158352327285
80.8665507896395
80.8371888976304
80.8237768193225
80.8223694284617
80.8290355669395
80.8398482755174
80.8508788541981
80.8581947403233
80.8578612089422
80.8459469008523
80.8189365189243
80.7761998505944
80.7183636233613
80.6460734947565
80.5599867940997
80.4607702976375
80.349098087187
80.2256495013517
80.0911071870269
79.9461552575939
79.7914775629228
79.6277560750866
79.4558362656233
79.278001740217
79.0972411533069
78.916497109147
78.7386591663679
78.5665652000991
78.4030048146851
78.2507247154069
78.1124359615346
77.9908230423301
77.8885547419577
77.8082967885145
77.7526684937458
77.7221517029568
77.7145079057381
77.7273630190593
77.758374924984
77.8052217884895
77.865591848382
77.9371746217154
78.0176534862037
78.1046996254912
78.1959673390393
78.2890907319099
78.3816862780515
78.4731448042359
78.5673998059119
78.6691317895006
78.783072630138
78.9140175521458
79.0668430324777
79.2465309121073
79.4581991116273
79.7071394962983
79.9988636284375
80.3391573899759
80.7341023825978
81.184885288617
81.6824879025973
82.2163578635854
82.7754484705826
83.3481237256421
83.9220919739965
84.4843725812375
85.0213008182776
85.5185764367491
85.9613611833282
86.3344357540992
86.6269003909068
86.8405107316802
86.9796702653397
87.0492520365238
87.0545155447995
87.0010248532338
86.8945700145542
86.7410935769009
86.546623562008
86.3172139397574
86.0588932736408
85.7776207173571
85.4792478766816
85.169496983381
84.8539448081988
84.5380128783094
84.2269649506801
83.9259112259778
83.6398187990298
83.3735278864288
83.1317734449887
82.9192118926734
82.7403581739035
82.5954484052194
82.4788853351651
82.3847641744183
82.3072761141576
82.240680757228
82.1792868646072
82.1174411468911
82.0495249205692
81.9699584917302
81.8732131274258
81.7538304288345
81.6069213902843
81.4341065826683
81.2416159126982
81.0357018654816
80.82251249169
80.6080765414537
80.3982979005159
80.1989588643324
80.0157317829837
79.8541986593516
79.7198783800372
79.6182613992084
79.5546154605629
79.5301530683034
79.5426966519101
79.590062071549
79.6701502033704
79.7809288267973
79.9204159981414
80.0866647238857
80.2777487844532
80.4917495923052
80.7267439976948
80.9807929820635
81.2517096685425
81.5351067750921
81.8252639563317
82.1162855887591
82.4021070093609
82.6764962871537
82.9330653566703
83.1652911244704
83.3665470627591
83.5301456366899
83.6493916697726
83.7176826766598
83.7329335559748
83.7017660939858
83.6319288602472
83.5312418888957
83.4075322202472
83.2685839918914
83.1221032575737
82.9756973800746
82.8368686284351
82.7130215077985
82.6114833562144
82.5390350464182
82.4956423820425
82.476419839286
82.4764311443731
82.4907721049507
82.514550640008
82.5428726678239
82.570833800949
82.5935168531638
82.605995190295
82.6033419546405
82.5806451612903
82.5344737815247
82.4672195913423
82.3827338258399
82.2848618669556
82.1774291242838
82.0642305300045
81.9490236115331
81.8355250718766
81.7274107880832
81.6283191320698
81.5418575248401
81.4716080052032
81.4204442049757
81.3897681592771
81.3808184502655
81.394866022073
81.4332211912746
81.4972412347856
81.5883386263282
81.7079900052757
81.8577459762643
82.0392418548465
82.2542094941345
82.5043021211425
82.7879875842995
83.1009364011183
83.4386519022612
83.7965265498534
84.1698146968815
84.5536100738714
84.9428283856549
85.3321955058089
85.71624183882
86.0893034754938
86.445555768991
86.7797980323274
87.0876481517734
87.3647094290828
87.6065449117874
87.8087090128124
87.9667836381836
88.0764185547629
88.1333755749351
88.1335759697381
88.0731503523425
87.9488286329707
87.7643710943969
87.5299012766829
87.2557617109686
86.9521781050067
86.629181555878
86.296555160057
85.9638039727226
85.6401468846099
85.3345288255852
85.0556517437832
84.8119944774355
84.6071075438853
84.4344426096348
84.2863512086766
84.1553409629362
84.0340383215006
83.9151647912508
83.7915260996169
83.6560138605307
83.501619350805
83.3214589520017
83.1088106783514
82.8576848578984
82.5686228101192
82.2464036081493
81.89583600693
81.5216493839177
81.1284662920936
80.7207807529185
80.3029420499448
79.8791436998282
79.4534172211393
79.029630289958
78.6114888615548
78.2025547177902
77.8066823740468
77.4281305433068
77.0710368944878
76.7394041465484
76.4371273014867
76.1680243477195
75.9358703471688
75.7444349607347
75.5975236209245
75.4990227305038
75.452949457215
75.4635069141019
75.534374815132
75.6611927170609
75.8346862451518
76.0455293458299
76.2843104313967
76.5414488351202
76.807134099892
77.0712891247183
77.3235587301974
77.5533254875721
77.7497546522576
77.9018697137572
77.9988208949526
78.0371846301078
78.0239363945165
77.9670138479316
77.8744743653233
77.7544137446027
77.6149013154994
77.4639319108014
77.30939467257
77.1590583245678
77.0205723476626
76.9014834410128
76.809266729288
76.7500858519724
76.7226386473019
76.7229917408405
76.7472743541449
76.7916559320914
76.8523240804823
76.9254663888986
77.0072560452672
77.0938412168934
77.1813382251056
77.2658285774302
77.3433599421483
77.41003958094
77.4643252589696
77.5072512737714
77.5399964919973
77.5637525559909
77.5797209279529
77.589110285914
77.5931342829565
77.5930096780043
77.5899548438199
77.5851886556457
77.579929762217
77.5753964749258
77.5731792029211
77.5759960477622
77.5867799251606
77.6084709398272
77.6440235380948
77.6964159326042
77.7686618615919
77.8638247797408
77.9850346204518
78.1355073217956
78.3185673717524
78.5376737046648
78.7949855954184
79.0842041506585
79.395777955153
79.7198862216387
80.0463964106594
80.3648419797777
80.6644266134248
80.9340571733684
81.1624074311934
81.338014114687
81.4494058856211
81.4852677318539
81.4396551416977
81.3222804769073
81.1460066956365
80.9237768238052
80.6684503507469
80.3926811124267
80.1088364812148
79.8289563547674
79.5647496641609
79.3276258642684
79.1287590717257
78.9791831217544
78.8872098272839
78.8482426739607
78.8539938616486
78.8963425303124
78.9672516414212
79.0587012597721
79.1626383168916
79.2709426373936
79.3754093711287
79.4677481965712
79.5395997418769
79.5825696032318
79.5901724608814
79.5670449330299
79.5218845817347
79.4634032204502
79.4002828007534
79.3411558856154
79.2946050202804
79.269180735968
79.2734380010098
79.3159911814249
79.4055879889181
79.5512034873119
79.7602971170499
80.0274687934154
80.3416312398581
80.6914962805312
81.0654750574172
81.4515861359782
81.8373963347744
82.209997362519
82.5560219246376
82.8617030684562
83.1129800811404
83.2957349000681
83.4033351258774
83.4427174869656
83.4225750805338
83.3518655565758
83.2396934157302
83.0952104260055
82.9275355890293
82.7456952738871
82.5585834972441
82.3749418753412
82.2033585065783
82.051953494648
81.9236798011078
81.8175307357155
81.7324397860002
81.6673817395333
81.6213676697199
81.5934403023087
81.5826697243246
81.588149402305
81.6089924812983
81.6443283401524
81.6932993822589
81.7548164484951
81.8262386404578
81.9042971415304
81.9857009291461
82.0671342308791
82.1452550990197
82.2166966883127
82.278071289989
82.325977166251
82.3570082107296
82.3677664319235
82.3548857150482
82.31716374871
82.258343920819
82.1828735400394
82.0951919840643
81.9997152565271
81.9008253604039
81.8028644301898
81.7101335283205
81.6268959958984
81.5573852529571
81.5058169683757
81.4763369019797
81.4705375115882
81.4867606132586
81.5231683719334
81.5779482555817
81.6493043870867
81.7354497521655
81.8345992218029
81.9449633615731
82.0647430124803
82.1921246387085
82.3252764470289
82.462357101015
82.60160491942
82.7412879527109
82.8796511999493
83.0149162639408
83.1452822023344
83.2689271639615
83.384010833559
83.4886777044162
83.5810611932946
83.6592886051747
83.7215006285649
83.7670844535941
83.79765727019
83.8150873586155
83.8212597883809
83.8180709232838
83.8074237557432
83.7912240902822
83.7713775879858
83.7497876773158
83.7283543318545
83.7089737123884
83.6932574105007
83.6808186565268
83.670408177238
83.6607749399197
83.6506691902819
83.6388424064895
83.6240476260886
83.6050401446142
83.5805785840287
83.549426328032
83.5103533197319
83.4621470555186
83.4042249343467
83.3370266836808
83.2610894418381
83.1769523866796
83.0851556711065
82.9862394267489
82.8807428374978
82.7692032840197
82.6521555599119
82.53013115972
82.4036576386388
82.2731768036453
82.1381486924213
81.9973958105344
81.8497478211975
81.6940550079614
81.5291903258441
81.354051734455
81.1675647914024
80.968685481696
80.7564032561304
80.5297442488215
80.2877746412386
80.0300505835436
79.7609467886712
79.4876377315261
79.217150946888
78.956325149314
78.7118225525485
78.4901523820348
78.2977049100189
78.1407955517859
78.0257188360269
77.9588124004931
77.9465315697477
77.995384451738
78.1053163352244
78.2669937184679
78.470448335456
78.7056538908372
78.962429265899
79.2303668640963
79.4987870048091
79.7567199337874
79.9929173954907
80.1958957712051
80.354012485401
80.4558556978828
80.4989007798767
80.4912111683639
80.4416508850278
80.3591913048775
80.252828268016
80.1315190351088
80.0041394162451
79.8794609084568
79.7661473722261
79.672770658494
79.6078446564334
79.5797421903862
79.5907710804186
79.634838202351
79.7052885555795
79.7954820167446
79.8987546041979
80.008390779188
80.1176068521297
80.2195457191174
80.3072832324623
80.3738465062558
80.4122443698467
80.4156711947973
80.3824681799413
80.3170364479961
80.2241747286786
80.1087015328856
79.9754255199257
79.8291216655849
79.6745132611954
79.5162596695637
79.3589496890524
79.2071003316517
79.0651608030919
78.9375053594607
78.8270077837265
78.73393873187
78.6583208840891
78.6001991284368
78.5596408749102
78.5367364445436
78.5315995363945
78.5443677758243
78.5752033480299
78.6242937213764
78.6918524657284
78.7781197448912
78.8826859410104
79.0031045309405
79.1365301173562
79.2800924481052
79.4308877650602
79.5859721961158
79.7423572499668
79.8970074910201
80.0468404831092
80.1887290951179
80.3195062586419
80.4359754456729
80.5361999864931
80.6214887833902
80.6936856558868
80.754662233258
80.8063122995438
80.8505469694903
80.8892907297895
80.9244783714446
80.9580528321619
80.9919639624858
81.0281682260027
81.0686070938353
81.1136696637021
81.1611865617044
81.2087412993428
81.2539061836963
81.2942430059639
81.3273051920734
81.3506414282918
81.3618007674983
81.3583392107551
81.337827744061
81.2978617918141
81.2362030098571
81.1536656642845
81.0540899476701
80.9414342495879
80.8196294901717
80.6925685352532
80.5640994530286
80.4380225194497
80.3180908604919
80.208014615392
80.1114685150229
80.0321027929776
79.9733980588522
79.9351815399704
79.9136533148719
79.9048869030263
79.9049743602607
79.910015705912
79.9161121815815
79.919363318824
79.9158678129526
79.9017282043598
79.8730593573739
79.826000699747
79.7569274488958
79.6674877000605
79.5649916153173
79.4569761787675
79.3509030621244
79.2541554963796
79.1740489854917
79.117855527958
79.0928411491146
79.1063167866829
79.165702915057
79.2786087466445
79.4527521034159
79.6882543656784
79.9743462482322
80.2993229307967
80.6512151781263
81.017685505807
81.3859593521615
81.742794224855
82.0744904954596
82.3669477080368
82.6057698542095
82.7764219550688
82.8663570920368
82.8784227090356
82.8230288713678
82.7109373936212
82.5530598813484
82.3603244495383
82.1435709827726
81.9134755307935
81.6805034438985
81.4548901889718
81.2466484407975
81.0655999919443
80.919511173797
80.8068671331261
80.7234724348582
80.6652337012641
80.6281327705733
80.6082037207037
80.6015140578708
80.6041498876004
80.612204955735
80.6217735000855
80.6289468903797
80.6298140852618
80.6215325288655
80.6051508143487
80.5826046891753
80.5558290957506
80.5267556816593
80.4973112397309
80.4694170740103
80.4449892855112
80.4259399712863
80.4141793318419
80.4116186852302
80.4201741283092
80.4413549004728
80.4754221552428
80.5224119801619
80.5823729689348
80.655366341347
80.7414660941313
80.8407591834692
80.9533457399672
81.0793393170989
81.2188671742639
81.3720705957892
81.5390788700984
81.7181786913015
81.9045790642489
82.0931210758168
82.2785511350489
82.4555210804349
82.6185951851391
82.7622643573741
82.8809677768132
82.9691221096321
83.0211583030142
83.0315657750289
82.9957423296599
82.9161843159848
82.7990753963155
82.6506744335015
82.4772347559467
82.2849624765636
82.0799843839865
81.8683253017773
81.6558946416619
81.4484817677877
81.2517597373492
81.0712969841604
80.9118921305184
80.7746740046222
80.6595959436795
80.5666453918359
80.4958448589485
80.4472522595167
80.420961395923
80.4171025905778
80.4358434727432
80.4773899270769
80.5419872122972
80.6299212598425
80.7409569360097
80.872635122834
81.0219301550154
81.1857955578503
81.3611515416222
81.5448747226071
81.7337901220488
81.9246655244383
82.1142082994373
82.2990648073219
82.4758225152165
82.6410353701937
82.7921399202751
82.9278421312528
83.0469444166694
83.1482558935091
83.230597119186
83.2928051270697
83.3337387331174
83.3522840805401
83.3473603837514
83.3179258272532
83.2629835697242
83.182104207194
83.078224391659
82.9556026459274
82.8184814422383
82.6710672490262
82.5175182522316
82.3619363852382
82.2083635451767
82.0607818495278
81.9231177806298
81.7992500756808
81.6930203349246
81.6068104697246
81.5386622105364
81.4858375303445
81.4456317080494
81.4153640731676
81.3923705881482
81.373998216569
81.3576010436158
81.3405381283665
81.3201730756737
81.2938753189688
81.2590515942889
81.2156987065132
81.1684085090391
81.1222279996624
81.0821816836818
81.0532760864471
81.0405104513435
81.0488936036175
81.0834670320119
81.1493343442386
81.2516973905898
81.3958995258519
81.5872299333566
81.8255151591461
82.1049820601331
82.419569869589
82.7631159922453
83.1293046045388
83.5116238711875
83.9033322890395
84.2974349307932
84.6866705696683
85.063510811538
85.4201921006307
85.7511219060408
86.0552797624294
86.332221709747
86.5815555452002
86.80294250785
86.9960987077772
87.1607962877936
87.2968643080957
87.4041893468015
87.4827158119576
87.5324665644461
87.5553882921376
87.5568118778856
87.5424503969375
87.5180313632055
87.4892798403057
87.4619090408101
87.4416184058555
87.4340991261967
87.4450470756562
87.4801831784357
87.5452282786443
87.6422652228724
87.7673371874914
87.9159302872921
88.0835105000223
88.2655011981263
88.457265267575
88.6540919011568
88.851188223022
89.0436759507564
89.2265933294554
89.3952423690433
89.5508107789628
89.6995824821487
89.8480936673232
90.0029687687195
90.1709253693133
90.3587891155266
90.5735190685644
90.8222440490985
91.1123107367811
91.4513439595438
91.8442817553071
92.2861971884597
92.7699723746305
93.288278515701
93.8335084090843
94.397719352081
94.9725875186036
95.5493752783918
96.1189132542187
96.6716012174371
97.19893914741
97.6963413196474
98.159844847212
98.5854314831585
98.9690539023842
99.3066653432505
99.5942524463514
99.827871027321
100.003684413292
100.118071092728
100.168942024608
100.155675212703
100.077940310161
99.9356569374222
99.7289966771053
99.4583826198621
99.1244864583788
98.7282231712338
98.2707433818038
97.7545878846631
97.1924740534494
96.6018465868213
95.9994759290633
95.4013567759561
94.8227071122724
94.2780175463682
93.7811447616927
93.3454439710316
92.9839367859646
92.7091652108282
92.5208043205081
92.4024557990479
92.3371753434048
92.308339144163
92.2994827289972
92.2942002337275
92.276102496189
92.2288334412588
92.1361444173537
91.9820254720318
91.7551790223192
91.4635651585005
91.12035735285
90.7385662546876
90.3309167801706
89.9097632921317
89.4870409007086
89.0742503186855
88.6824733868256
88.3224164330158
88.0044784892237
87.7364190231752
87.5179352406019
87.3472314726305
87.2226906190348
87.1428581426986
87.1064278726816
87.1122293776507
87.159216705284
87.2464583115891
87.3731280278701
87.5384960204959
87.7404701340751
87.9725915517272
88.2274922194446
88.4976700283127
88.7754548209058
89.0529870213626
89.3222096586647
89.5748746700233
89.8025643872965
89.9967290114177
90.1488956820579
90.2554759977987
90.3187481796461
90.3414651517567
90.3265002550494
90.2768222702292
90.1954717269437
90.0855387918844
89.9501429695687
89.7924147922198
89.6154796212781
89.4225345398275
89.2176193910242
89.0052033499163
88.7896838140594
88.5753761877494
88.3665134430486
88.1672497800891
87.9816681877137
87.8137917295072
87.6675984185862
87.5470395961317
87.4553760951673
87.3899334629623
87.3450375304089
87.3150467406465
87.2943547078566
87.2773746695473
87.2585311510794
87.2322587765046
87.1930081854726
87.135259003386
87.0535397616748
86.9432288578395
86.8072697290777
86.6527920277322
86.4869030511921
86.3166172444267
86.1488438892615
85.9903860778123
85.8479505350711
85.7281678876851
85.6376230773921
85.5828957844035
85.5703343308563
85.6000251288397
85.6658029147429
85.7612890384976
85.8801187542363
86.0159013800281
86.162189856384
86.3124597471348
86.4600978889202
86.5984009994827
86.7205845976226
86.8199019780932
86.8927097729544
86.939079038039
86.9593420142873
86.9538791911473
86.9231169869661
86.8675252631319
86.7876146948057
86.6839340215284
86.5570672011346
86.4076304902767
86.2362742740938
86.0440100797515
85.8324122270616
85.6031058294603
85.3577089383229
85.0978266217383
84.8250456771406
84.5409299783652
84.2470164501319
83.9448116564472
83.6357889839657
83.3213863969203
83.0032647722285
82.6850648801994
82.3712680410173
82.0662262158261
81.7741645016617
81.4991936435708
81.2453265074223
81.0164982751049
80.8165902036467
80.6494568823904
80.5189570276007
80.4289879727016
80.3822989841099
80.3738770714979
80.3957097664341
80.4398414325113
80.4983289193017
80.5632052361698
80.6264589202211
80.6800292202528
80.7158173249428
80.7257138369481
80.701642532005
80.6356201425336
80.5220933818238
80.3666029896771
80.1780131759911
79.9651266024274
79.7366223753925
79.5010142682597
79.2666278748403
79.0415957838531
78.8338697507175
78.6512488849368
78.5014230524368
78.3920309989504
78.3299655849647
78.3139520123639
78.3378289993706
78.3954835661967
78.4808654924398
78.5879394607108
78.7106466206885
78.8428753935885
78.9784415572425
79.1110778127951
79.2344331350131
79.3420822467128
79.4278576194927
79.4903643740668
79.531995048357
79.5552884834105
79.5628175027519
79.5571778631038
79.5409788130947
79.5168353186582
79.4873619903875
79.4551687290927
79.4228580914437
79.3930243679436
79.3681744488838
79.3489732185789
79.3342500531008
79.3227580504248
79.3132527804515
79.304491466088
79.2952325549714
79.2842356804796
79.2702620109812
79.2520749860739
79.2284414378513
79.1981330940195
79.1599911917959
79.1157040261518
79.0708897341136
79.0314315111148
79.0031905166358
78.9920181978601
79.0037772822214
79.0443715070441
79.1197843131572
79.2361269457345
79.3996966857151
79.6170462892517
79.89494197848
80.2335998458326
80.6228659611954
81.0514829290671
81.5078127187017
81.9797311799194
82.4545549378599
82.9190045023648
83.3592082210753
83.7607520215641
84.1087796079091
84.388146778651
84.5873486423576
84.7114794159173
84.7706275471895
84.7752747418518
84.7361476386564
84.6640936361032
84.5699831168979
84.4646392768954
84.3587958685403
84.2630825660096
84.1880373561483
84.1437290790886
84.1329829411981
84.1525312819331
84.1989747042183
84.268954940058
84.3591345698975
84.4661794971064
84.5867440792875
84.7174588725415
84.8549209902323
84.9956871146362
85.1362754802417
85.2737261390145
85.4060573241622
85.5313697714852
85.647745312328
85.7532503445174
85.8459401933766
85.9238643701481
85.9850727260944
86.0276224897473
86.0495861623392
86.0490631012813
86.0262648485967
85.9871748492968
85.9387602005808
85.8879669551852
85.841710702018
85.8068783360656
85.7903409011151
85.7989774382461
85.8397098967252
85.9195493624748
86.0456541361034
86.2229905274609
86.4461306044725
86.7067443685484
86.9964030585331
87.3065117450507
87.6282577398774
87.9525756747491
88.2701304005035
88.5713190980848
88.846294077577
89.0850219835342
89.2809381563251
89.4358320665249
89.5528202007886
89.6351575391596
89.6862107519872
89.7094331834899
89.7083419667871
89.6864975434211
89.6474857924388
89.5949029121199
89.5323127440572
89.4624556805192
89.3871799635561
89.3082800157029
89.2275389687834
89.146727601458
89.0676039875885
88.9919138425749
88.9213915548577
88.8577618909554
88.8027423646886
88.7577661890171
88.7208874555485
88.6879318691769
88.6546995048107
88.6170033589622
88.5706715728356
88.5115535829039
88.4355301450682
88.3385271468321
88.2165330756858
88.0656199521169
87.8828093566361
87.6725328032738
87.442934720338
87.2020595197371
86.9577933732388
86.7178521003098
86.4897831104025
86.2809806228755
86.098713458183
85.9501648558076
85.8424840198394
85.78243427716
85.7696481270521
85.7977651196875
85.8603426579112
85.9509947528565
86.0633451435781
86.1909899736002
86.3274698825364
86.4662515757439
86.6007190814148
86.7241749918436
86.8299598609603
86.913852571719
86.9741182736832
87.0091581632354
87.0174107163897
86.997360918782
86.9475498234696
86.8665843423246
86.7531471654571
86.6060066927793
86.4240268529209
86.2062553069307
85.9553929343649
85.6790482708516
85.3850572327667
85.0810798475737
84.7745773696672
84.4728031195909
84.1828061406449
83.911446758391
83.6654232080804
83.4513086510412
83.2755981243839
83.1435542436686
83.0527186857027
82.9977038432486
82.973244252036
82.9741623668263
82.9953336980677
83.0316586043845
83.0780404883319
83.1293702733475
83.1805171364763
83.2263255355414
83.2616514817471
83.2836452340558
83.2932420169379
83.2917399543667
83.2804465903871
83.2606756116725
83.233743971299
83.2009694226449
83.1636684688023
83.1231547298966
83.0807377282657
83.0377220895654
82.995558340212
82.9570057792458
82.9254904653148
82.9044363036894
82.8972666847606
82.9074145566222
82.9383353608583
82.9935229059334
83.076528303409
83.1909821547007
83.3406202517586
83.5292862605806
83.7577208125179
84.0203922673217
84.3109734439904
84.623014987282
84.9499051948511
85.2848393433443
85.6207991499135
85.9505431870944
86.2666091847884
86.5613291922185
86.8268687149775
87.0578221981367
87.2547006647979
87.4189543184893
87.5521365112632
87.6558919119437
87.73194475974
87.7820873569277
87.8081689393839
87.8120850475995
87.7957675039496
87.7611782015995
87.7106740861126
87.6473510121341
87.5743842122103
87.4949360103042
87.4121500600418
87.3291478725469
87.2490275993447
87.1748650288853
87.1097167550347
87.0566254821928
87.0186128988871
86.9962476472782
86.9849143438651
86.9793516028188
86.9743050536782
86.9645235415131
86.9447616720787
86.9097886832523
86.8544035951705
86.7734565309415
86.6618760086028
86.5147068989009
86.3307628569554
86.1189232461947
85.8896615533346
85.6532663437626
85.4198133069303
85.1991616942254
85.0009738546596
84.8347566629474
84.7099239368597
84.6358794387039
84.6221207420846
84.6766350096275
84.7941322953132
84.9631002134043
85.1720182460257
85.4092691250581
85.6630432057125
85.9212741732191
86.1716074301357
86.4014030910685
86.5977757021168
86.7476725596733
86.8392554858601
86.8730305518863
86.8565969718151
86.797811092056
86.7046273919521
86.5850286557176
86.4469705557136
86.2983409675763
86.1469339690392
86.000438219647
85.86643927724
85.7521516487524
85.659086244195
85.583573793601
85.5218011306569
85.4699926844851
85.4244000047018
85.3812946467562
85.3369643514831
85.2877124730789
85.2298606178669
85.1597544525606
85.0737959795878
84.9712508393823
84.8568711052646
84.7359971722576
84.6139146126367
84.4958495721395
84.3869706984537
84.292397416515
84.2172143922808
84.1664920854166
84.1453133807571
84.1588064084131
84.2109790818257
84.298190595747
84.4137786701338
84.5510661314123
84.7033283549693
84.8637635415442
85.0254736227517
85.1814561154584
85.3246073395546
85.4477374332186
85.5435975386584
85.6055277174924
85.6351654600907
85.6401852651007
85.6284494454582
85.6078389562573
85.586229824983
85.5714840742998
85.5714551121923
85.5940075499976
85.6470515061428
85.7385916628395
85.8765413159059
86.0611352334561
86.2833938070054
86.533720124328
86.8023548994694
87.0793219787394
87.3543956974933
87.6170914086475
87.8566807251613
88.0622330059695
88.222684339585
88.3274836898077
88.3757509820716
88.374956407673
88.3330094573275
88.2579206272155
88.1577343874644
88.0404765021664
87.9141160224319
87.7865419290807
87.6655541688686
87.5588687072319
87.473741164732
87.4113442921595
87.3681467720062
87.3405334306701
87.3249176522408
87.3177300595235
87.3154101655191
87.3144009508425
87.3111463462543
87.3020916130893
87.2836866180298
87.2525878068908
87.2084711590303
87.1533706903031
87.0893821682091
87.0185956067967
86.9430915404949
86.8649383068821
86.7861903279199
86.7088873747774
86.6350547989783
86.5667047121614
86.5058331807685
86.4543152322568
86.4139093097711
86.3863700032545
86.3734578736914
86.3769450821128
86.3986217714256
86.4403032352798
86.5038379202291
86.5911163212405
86.7040808464293
86.8446461148383
87.0119368363295
87.2017260683717
87.4095540315299
87.6308986107343
87.8611582914566
88.09563967599
88.3295497921821
88.5579934542556
88.775975961446
88.9784114228061
89.1603977225163
89.3201396678433
89.4579535158176
89.5742323202936
89.6694064842401
89.7439415337355
89.7983358101496
89.8331180992914
89.8488452159793
89.8460995619808
89.8254866745978
89.7879303624598
89.7356771169936
89.6713371031386
89.597517037354
89.5168139642055
89.4318105666534
89.3450719890257
89.2591441521701
89.1765535344803
89.0998083902997
89.0313964869442
88.9725725686445
88.9217707259198
88.8770403719265
88.8364417874683
88.7980438878826
88.7599228391844
88.7201615134729
88.6768497753829
88.6280855916149
88.5719769543336
88.5066840082999
88.4325752093619
88.3533211742884
88.2728420809926
88.1950303428591
88.1237513012961
88.0628473158459
88.0161451988469
87.9874669629269
87.9806438829347
87.9995339193397
88.0479661948329
88.1274320646502
88.2366533507914
88.3742366519881
88.5388259746987
88.7290937405377
88.9437323241535
89.181446060673
89.4409436731339
89.7209310806491
90.0201045576097
90.3366665312747
90.665004516207
90.9975508264895
91.3265040316769
91.6438368820668
91.9413077207424
92.2104867771109
92.4427981939156
92.6295783876504
92.7621509594573
92.83213006471
92.837993679276
92.786335460997
92.6844001592291
92.5395498293435
92.3591908709378
92.150712467363
91.9214369001043
91.6785818427353
91.429234449826
91.1803368485727
90.9375924366311
90.7008296941035
90.4679898259859
90.2370553031322
90.0060495166385
89.7730361138987
89.5361191827263
89.293444237661
89.0431999620358
88.7836206575291
88.5129895460073
88.2305987300057
87.9389243957718
87.64103756496
87.3399335330643
87.0385293239758
86.7396631812118
86.4460959599591
86.1605142870483
85.885535363863
85.6237132993229
85.3775468759012
85.1490434196281
84.937037046059
84.739045864253
84.5526410778361
84.3754450352536
84.205125245702
84.0393897805472
83.8759839918083
83.7126884888981
83.5473183212882
83.3777233183559
83.2018095790116
83.0193280922339
82.8332453872456
82.6468076160586
82.4632034282454
82.285565237859
82.1169728795856
81.9604595488527
81.8190199366224
81.6956204922385
81.5932117765809
81.5147429027483
81.463094989208
81.439272696167
81.4424230513921
81.4716644173024
81.5261639497175
81.6051322533971
81.7078184010959
81.833505270151
81.9815051559659
82.1511556264283
82.3418155854227
82.552861517251
82.7830926113988
83.0278309080001
83.2810367804286
83.5365257810399
83.7879612378425
84.0288544913435
84.252575084869
84.4523714799872
84.6214027723841
84.7527817123776
84.839629084468
84.8755907644387
84.8623307504558
84.8083622248192
84.7225019751313
84.6135830790769
84.4903981009828
84.3616607433091
84.2359857807672
84.1218868525054
84.0277915938449
83.9620736462359
83.9330971068117
83.9462558509151
83.998684717443
84.0861816901107
84.2046044118372
84.3498371307749
84.5177618555591
84.7042335294593
84.9050591449653
85.1159808154335
85.3326628998208
85.5506833403464
85.7664051906646
85.9807888079461
86.1963656645295
86.4157194261261
86.6414868040044
86.8763609880779
87.1230967868373
87.3845175768553
87.6635241817523
87.9631058233422
88.2863532908324
88.6355289180428
89.0095243742023
89.4064247532151
89.8242687959821
90.2610375469323
90.714643662927
91.1829214181934
91.6636174705728
92.1543824755393
92.652763655004
93.1561079156914
93.6606560282063
94.16187473288
94.6550296394429
95.135196842787
95.5972713154332
96.0359809625724
96.4459067729804
96.8215094276177
97.1571626237086
97.4485050094493
97.700563763312
97.9226574506811
98.1243677561239
98.3154748767789
98.5059274245438
98.7058318711985
98.9254624338908
99.1752923041964
99.4660310290141
99.8021399867248
100.171568834455
100.559356981242
100.950100814114
101.32791665867
101.67645223118
101.978950412472
102.218368713108
102.377556576306
102.442078838561
102.418218836846
102.322303745967
102.170950243018
101.980802480232
101.76838038057
101.54998228102
101.341641007698
101.159131520986
101.017923445254
100.923938023663
100.866331930753
100.83266750655
100.810588917652
100.787778579596
100.751943862282
100.690833830567
100.592285755245
100.444300808015
100.236477404784
99.9715756721881
99.6596388057429
99.3107060835027
98.9346517660721
98.54112469819
98.1395079481555
97.7388974181483
97.3480981249853
96.9756367707522
96.6282039330158
96.3011391968876
95.9851207719892
95.671058563086
95.3500994511499
95.0136298032438
94.653293661386
94.2610253764972
93.829095285319
93.3501667724712
92.8178366486143
92.2369733709745
91.6230502266461
90.9913405814513
90.3563672858733
89.7318819786163
89.1308887713859
88.5657063261461
88.0480630165221
87.5892209284177
87.2001258025507
86.8913324915717
86.6668260308846
86.5237801760248
86.4595004058924
86.4717427063152
86.5586747087302
86.7188432790458
86.9511476584212
87.2548174259384
87.6293946904587
88.0747200319871
88.5904481569433
89.1691272857013
89.7972778494476
90.460607596845
91.1440072069558
91.8314392977288
92.5058780875211
93.1493084838341
93.7427940847163
94.2666232712155
94.7009693675628
95.0393732634948
95.291882336126
95.4702265842095
95.5867163913144
95.6540657209713
95.6852439809765
95.6933602674283
95.6915822516663
95.6930908619988
95.7108295164412
95.7487069558153
95.7990703013244
95.8534925910672
95.9035123979645
95.9406340991427
95.9563431620965
95.9421365369402
95.8895680741639
95.790308606109
95.6363851090622
95.427547429199
95.1740236305314
94.8867338303863
94.5764358816014
94.2536636176494
93.9286897367831
93.6115120632444
93.3118617040224
93.0392316118203
92.8029241457114
92.6086075073072
92.4492112740158
92.3149559740006
92.1962260800591
92.08352737351
91.9674644210279
91.8387375110177
91.6881585103354
91.5066850514783
91.2854722544086
91.0164634529671
90.7038717590038
90.3637907040466
90.0124358106296
89.6655538702276
89.338415285462
89.0458595402956
88.8023898949734
88.6223144352806
88.5199322649786
88.5097658839812
88.6050399889042
88.797909186778
89.0664668089152
89.3884671213134
89.7412526473628
90.1015327989753
90.445277667068
90.7477357800071
90.9835857236815
91.1272296879306
91.1532459465977
91.0471078453747
90.8234038484832
90.50218070606
90.1036687588841
89.6479058010368
89.1544520148619
88.6421957456653
88.1292455526892
87.6329013600343
87.1696964784788
86.755501534226
86.4008074857403
86.0998614046126
85.8439422614538
85.6246762702829
85.4339574787351
85.2638859111537
85.1067217276693
84.9548543026802
84.8007854316315
84.6371260620279
84.4566060244032
84.2527799734386
84.0266987319996
83.7838825483176
83.5298181185898
83.26987679929
83.0093046018026
82.7532190631481
82.5066125816293
82.2743618113854
82.0612427469009
81.8719511937961
81.7111284127866
81.5819817230197
81.4809530064968
81.4025381613766
81.3413181729606
81.2919330491481
81.2490626724408
81.2074147589759
81.1617197828323
81.1067327712236
81.0372418854357
80.9480836744966
80.8341654036356
80.6933244359778
80.5328413566017
80.3618520755932
80.189355085163
80.0241987503524
79.8750884582763
79.7506128000558
79.6592881178218
79.6096210740269
79.6101893854327
79.669741512762
79.7973168216107
79.9986251925735
80.2660699462981
80.5890209561033
80.9567409028216
81.3582438726359
81.7821811599481
82.2167556309066
82.6496672062724
83.0680929197318
83.4587055394144
83.8077348218162
84.1017607528117
84.3377757752565
84.5212732257246
84.6582902013677
84.7551175759641
84.8182349624237
84.8542539136357
84.8698704090867
84.8718273473883
84.8668874898344
84.8618170873742
84.8633505171359
84.8755296464001
84.8975977679138
84.9283063849011
84.9664091831746
85.0106596657951
85.059809153573
85.1126051497681
85.1677900695877
85.2241003368899
85.2802658518511
85.3350098265298
85.3867709754019
85.432967078321
85.4707754718073
85.4973675769963
85.5099153627947
85.5055996776339
85.4816204217338
85.435208506296
85.3636395159019
85.2642489561348
85.1344489308369
84.9726644572828
84.785374645558
84.5830813370907
84.3761497845059
84.1747515687693
83.9888667437842
83.8283098730622
83.7027789179463
83.6219263138317
83.5954521615044
83.6332202642291
83.7453125939285
83.934443212835
84.1897200581542
84.498856454495
84.8494237935808
85.2287046787991
85.6235814282243
86.0204619504895
86.4052462412966
86.7633375158095
87.0797022084439
87.3390573156353
87.5327563636827
87.6644350431224
87.7393149615016
87.7628923845251
87.7408698640724
87.6790931688835
87.5834946658679
87.4600439877572
87.3147065339676
87.1534100973002
86.9820144965018
86.8056731029033
86.6282483291479
86.4534020341588
86.2847374120234
86.1258029354924
85.9800992003462
85.8510885698409
85.7422075474065
85.6568818436655
85.5985441505056
85.570654624466
85.5743476696235
85.6021630044052
85.6446977507607
85.6925352772053
85.7362231314162
85.7662717365784
85.7731740415004
85.7474462294044
85.6796893099231
85.5606709457088
85.3814262107645
85.1350405476828
84.8280466579286
84.4731688590953
84.082965224372
83.6696737862938
83.2451336921825
82.8207423570815
82.407445740545
82.0157586175777
81.6558118283519
81.337423911208
81.0701951931175
80.8612711117802
80.7065521278328
80.5988194719199
80.5311068844194
80.4966267086703
80.4887083925898
80.5007489992808
80.5261750268932
80.5584151461233
80.5908836902888
80.6169748834003
80.6300679068862
80.62493395168
80.6014316797415
80.5605966224042
80.5034834557977
80.4311616625218
80.3447114276179
80.245219790134
80.1337770673354
80.0114735645644
79.8793965799455
79.7386277096237
79.5902404560249
79.4355195497163
79.2767030285941
79.1162607648209
78.9566237838032
78.8001841959807
78.6492966005754
78.5062808938486
78.3734264276335
78.2529974729683
78.1472399558153
78.0583894469498
77.9886804061013
77.9400308880256
77.9104494188499
77.8953734364828
77.8902207350656
77.8904219784436
77.8914117353882
77.8886248784901
77.877498335122
77.8534781834347
77.8120320646064
77.7486668347485
77.6589513066706
77.5385978973417
77.3883154449309
77.2175311009341
77.0364451697503
76.8550864173065
76.6832992913548
76.5307567879142
76.4069978072251
76.32148811787
76.2837045706964
76.3032429670766
76.3899509987802
76.5540889738421
76.8047560960352
77.136312332313
77.5353539026175
77.9882046494841
78.4807511467273
78.9982580142224
79.5252318866626
80.045340107704
80.5413921538509
80.9953928371862
81.3886762257596
81.7021276595745
81.9217600614898
82.0550236646699
82.115351767164
82.1167038450554
82.0733408551801
81.9996454938102
81.909991189496
81.8186613648762
81.7398189526465
81.6875253364348
81.6758078042478
81.7187095063364
81.8225459184811
81.9784049471421
82.1756634242293
82.4036362304417
82.6514800336735
82.9081244088468
83.1622313266561
83.4021846237922
83.6161113756439
83.7919370479572
83.91747586577
83.9826150404189
83.9920318223187
83.9569629748605
83.8888010149421
83.7989640915075
83.6988218498114
83.5996523654
83.5126298194328
83.448842273936
83.4193389377436
83.4352066789723
83.5075978385199
83.6424324224257
83.8368913974556
84.0875138144614
84.3909789092574
84.7440589935247
85.1435756641151
85.586358740121
86.0692074864947
86.5888538181936
87.1419273047351
87.7248840409488
88.3318706635503
88.9534405823861
89.579328170397
90.1986768318165
90.8000317238488
91.3713609214997
91.9001087960626
92.3732850514566
92.7775921199461
93.0995925094205
93.3297721627664
93.4730577077229
93.5381690253673
93.5343030228957
93.4709881641781
93.3579539671502
93.2050183068662
93.0219943556345
92.8186181079374
92.6044967149796
92.3884563750419
92.1716994582458
91.9504792412554
91.7210341417697
91.4796821261901
91.2228283611539
90.9469755754757
90.6487369126737
90.3248510197277
89.9721990777974
89.5878234372318
89.1701872414415
88.7238291656921
88.2549614786675
87.769602531614
87.273553450661
86.7723836786063
86.271424284712
85.7757682883716
85.2902772412018
84.8195933454919
84.3681564479789
83.9399852403768
83.5342085889113
83.1456751541158
82.7692742127141
82.4000824771161
82.0333507616857
81.6644965318998
81.2891018163293
80.9029159934927
80.5018629734117
80.0820522814359
79.6397935237526
79.1718334608376
78.6819760021839
78.1818521660005
77.6829998186783
77.1963864287976
76.7324367771776
76.301088891681
75.9118747139943
75.5740228405071
75.2965817171924
75.0885628796559
74.9591052158413
74.917662826437
74.973229713231
75.1220517303122
75.3512314188373
75.6478994417369
75.9991658144127
76.3919012088352
76.8125604665156
77.2470495861462
77.6806398030624
78.0979341366574
78.4828928397464
78.8189243719825
79.0894326687881
79.2880313661683
79.4198729815571
79.4911139256368
79.5082571562315
79.4780575341908
79.40743560225
79.3034015891387
79.1729908847251
79.0232117291435
78.8610054310992
78.6932190907959
78.5265767136987
78.3660218399941
78.213191477413
78.0693307632842
77.9356711252549
77.813433456898
77.703831656829
77.6080765316953
77.5273800683585
77.4629600860253
77.4160452850544
77.3878807157299
77.3797336975518
77.3925375305083
77.4249240871243
77.4746256721732
77.539385892721
77.6169524411351
77.7050689010045
77.8014678549907
77.90386528958
78.0099563070805
78.117412167473
78.2238786918397
78.3269760649533
78.4243976968168
78.5153171171772
78.6000805770478
78.6790721061219
78.752681734251
78.8213049351207
78.8853421034045
78.9451980673443
79.0012816385044
79.0540052002507
79.1037843363289
79.151037500748
79.1962411540089
79.2413592794049
79.2899780191491
79.3457827217677
79.4124823495258
79.4938179571944
79.5935747382803
79.7155977646266
79.8638116015824
80.0422440540417
80.2550543907684
80.5065665087231
80.8009978039078
81.1373565837511
81.5100603829864
81.9132540718839
82.3409017977416
82.786741813667
83.2442494965373
83.7066094133673
84.1666975292571
84.6170748307224
85.0499937511345
85.4574811058005
85.8357186873689
86.1881082575724
86.5189149476293
86.832587666231
87.1337401647976
87.4271363357293
87.7176802367306
88.010411286141
88.3105050464128
88.6232800093622
88.95406907694
89.3050909191052
89.6753376986886
90.0636375763275
90.4687894941695
90.8895574725674
91.3246651195641
91.772790367652
92.2325604592124
92.7025472089743
93.1812542478559
93.6650161657247
94.1450975272573
94.6117047294233
95.0546700328573
95.4634865778793
95.8273671715844
96.1353282823065
96.3763000278415
96.5392620348383
96.6134521080056
96.5943324942432
96.4891980061746
96.3070599007606
96.0571965196637
95.7490178963503
95.3919469228027
94.9953186658379
94.5682985474564
94.119819369366
93.6585365853659
93.1915962042864
92.7211056446017
92.2479143283838
91.7728421952818
91.2966796570667
90.8201877009805
90.3440981291155
89.8691139213902
89.3959097101158
88.9251323546499
88.4574033125428
87.9939954691853
87.5378219142811
87.0919353531529
86.65926436942
86.2426232031049
85.8447231506729
85.4681854230072
85.1155553334158
84.7893177258541
84.4919135933674
84.225757878296
83.992713184699
83.7899421128002
83.6123016063057
83.4547620500377
83.3124003066479
83.180378758319
83.0539302960177
82.9283489815116
82.7989861682287
82.6612519000751
82.5106214144501
82.3426473944344
82.1542931836445
81.9465761883208
81.7212692937037
81.4801352422311
81.2249199406534
80.9573465588468
80.6791104165952
80.391874645063
80.097266601638
79.7968750102707
79.4922477943027
79.1848905650013
78.876120225051
78.5665804584187
78.2567232372221
77.9469871333972
77.6377974393663
77.3295663311849
77.0226930753472
76.717564275648
76.414554156652
76.1140248804928
75.8163268938994
75.5217993025369
75.2307772379215
74.9447533286216
74.667630134815
74.403507699439
74.1563769972278
73.9301373592708
73.7286177614601
73.5556018329955
73.4148565450056
73.3101646577468
73.2453611391995
73.2243739210529
73.2512695346053
73.3303016969181
73.4640226376207
73.649844085365
73.8844147968878
74.1644882166061
74.4868772322823
74.8484121801633
75.2459016016639
75.6760954105234
76.1356502732975
76.6210971415521
77.1288110043925
77.6549830569491
78.1955626960264
78.7460045865735
79.3013720875742
79.8564408983377
80.4056917279147
80.9433095551208
81.4631912475971
81.9589626008846
82.4240058050254
82.8514982224323
83.2344631561099
83.5658744764249
83.8424723864875
84.0679245799077
84.2468979471021
84.38431609608
84.4853069967067
84.5551550606826
84.5992585992654
84.6230933805526
84.632182806266
84.6320750529624
84.6283273804773
84.6254165395185
84.6225997411315
84.6175621184699
84.6079898201491
84.5915721774478
84.5660048117088
84.5289939919067
84.4782622234649
84.4115550381262
84.3266489407899
84.2213604529398
84.0936690728035
83.9438575841119
83.7743017043445
83.5874482346358
83.3857268895344
83.1715413827503
82.9472619725398
82.7152194428339
82.4777004804161
82.2369443963055
81.9951411308307
81.7544304764722
81.5170008437123
81.285758319946
81.0639050868317
80.8545790597991
80.6608607881706
80.4857847789097
80.3323529972193
80.2035505100559
80.1023632851654
80.0317982113011
79.9949054655333
79.9948034221635
80.0338944046401
80.1083127037243
80.2112395243887
80.3358385858868
80.47523059726
80.6224615015742
80.7704824406589
80.9121417743076
81.04018959254
81.1472951749228
81.2260777710004
81.2691508951271
81.270773677871
81.2323147306766
81.1571755340465
81.0488385985477
80.9108379450711
80.7467323397848
80.5600814787865
80.3544252809863
80.1332663672538
79.9000557344024
79.6581815750472
79.410961149027
79.1614573763486
78.9116249853187
78.6629984637179
78.4170734295651
78.1753081978288
77.9391253598142
77.7099138630875
77.4890315602296
77.2778081986006
77.0775488277409
76.8895376059745
76.7150419931747
76.5553044120672
76.4108434490714
76.2811085346547
76.1654832687175
76.0633734075918
75.9742048012627
75.8974214721089
75.8324838228789
75.7788669629841
75.736059143409
75.7035602916384
75.6808806389876
75.6675394336149
75.6631594713178
75.6685265168271
75.6852012539738
75.7147701671037
75.7588368451286
75.8190277636799
75.8969988229118
75.9944426910845
76.113097017265
76.2547535917801
76.4212685507929
76.6145737420166
76.8366839172861
77.0875049105849
77.3613716921012
77.6516156944243
77.9513857543154
78.2536230874831
78.5510483526231
78.8361618058875
79.1012576106731
79.3384533241375
79.5397354157875
79.6970213714464
79.8022428210335
79.8505803070681
79.8461082576099
79.7946056558253
79.7020021801457
79.5743133458335
79.4175838812638
79.2378399927086
79.0410508465609
78.8330993264993
78.6197619104102
78.4066973592979
78.1994438162575
78.0028898158005
77.81841060785
77.6460151024722
77.4857176440032
77.3375416063428
77.2015195977195
77.077693684702
76.9661156366101
76.8668471915743
76.7799603455977
76.7055376660925
76.6436726314886
76.5944598700786
76.5572965150489
76.5304320716728
76.5120225879078
76.500234129489
76.4932391683722
76.4892138562221
76.4863361732298
76.482784947139
76.4767397402034
76.4663816028894
76.4498946925024
76.425468752543
76.3915254065642
76.3484366709509
76.2975764402369
76.2403249760949
76.178058105871
76.1121451892538
76.0439475852135
75.9748176138845
75.9060980061478
75.8391218325065
75.7752129024134
75.7156866254807
75.6618513533697
75.6151396236485
75.5774096861939
75.5506067750946
75.5366789872874
75.5375834458379
75.5552934970318
75.5918069795802
75.6491556214563
75.7294156399491
75.834719643851
75.9672699638514
76.129353568897
76.323225674833
76.5476754535734
76.7976186401136
77.0676894545999
77.3523995747738
77.6461115412292
77.9430197725156
78.2371397579356
78.5223060973483
78.792180107746
79.0402677075498
79.2599482126847
79.4446166811811
79.5922792864984
79.7074814863257
79.7953900323091
79.8612832760336
79.9105184661313
79.9485057885224
79.980689486398
80.0125362713174
80.0495311506235
80.0971807515511
80.1610242201808
80.2465457959298
80.3553218895202
80.4838760601899
80.6283845686783
80.7849892821928
80.9497838615278
81.1188035811994
81.2880188978656
81.4533329173032
81.6105829300125
81.755546188898
81.8839500880654
81.991759005666
82.0778655961778
82.1429855918571
82.1878986634806
82.2134189098824
82.2203908645694
82.2096855614368
82.1821966894735
82.1388368635055
82.0805340350642
82.0082280644343
81.9228674719033
81.8259826440855
81.721625874117
81.6145061363527
81.5092851926676
81.4105772222034
81.3229537264553
81.2509535625435
81.1990980127303
81.1719108575922
81.1739435028465
81.2098053162477
81.2841896930777
81.3979944048763
81.5422762050909
81.7064914881316
81.8799656439849
82.0518539706581
82.211130664333
82.3466070689571
82.4469803333918
82.5009132496865
82.4971453127408
82.4246339482595
82.2731575348355
82.0429910839811
81.7447219269658
81.3894549594152
80.9882152239508
80.5518165973309
80.0907612342156
79.6151688513519
79.1347340221126
78.6587090823569
78.1959099877751
77.7547424627387
77.3432445294233
76.9668545725916
76.6239789703439
76.3118580084019
76.0278784295812
75.769554019276
75.5345085489382
75.3204607980606
75.125211423271
74.9466314832426
74.7826524615999
74.6312576579697
74.4904748406498
74.3583732697817
74.2338518359718
74.1176631095707
74.0108124227545
73.9142993794763
73.829120612613
73.7562728034791
73.6967559696695
73.6515770308325
73.6217536659616
73.6083184801807
73.6123235038441
73.6348450521448
73.6769873390075
73.7392305007787
73.820421502552
73.9191670256571
74.034084397989
74.1637950701613
74.3069186193247
74.4620672595444
74.6278408468043
74.8028223750654
74.9855739674288
75.1746333733627
75.3685109891771
75.5656705518918
75.7640099833799
75.9607510305931
76.1530213536103
76.3378921226809
76.5123822054996
76.6734647207448
76.8180760438488
76.9431273259475
77.0455185532085
77.1221551311738
77.1699669276047
77.1859296482412
77.1682855114638
77.1201471338563
77.0458824815994
76.9498858569871
76.836550922646
76.7102487259301
76.5753107794517
76.4360171612973
76.2965895305327
76.1611889098634
76.0339180668338
75.91882832638
75.8199012014802
75.7394544431731
75.6773433800659
75.6332463594402
75.6068688780534
75.5979422623992
75.6062224605052
75.6314889363928
75.6735436591997
75.7322101797554
75.8073327881041
75.8987757461021
76.0064225897876
76.1299574235116
76.2669618677321
76.4138054814368
76.5667969836486
76.7221892347333
76.876174749222
77.0248849085218
77.1643930302007
77.2907214468416
77.3998527268357
77.4877451308409
77.5503523401987
77.5837319109691
77.5886984044726
77.5732272936846
77.545910984898
77.5153357130197
77.4900648395063
77.4786411214902
77.4896078456818
77.5315488291166
77.6131475726151
77.7432663165019
77.9310464054441
78.1860313378351
78.5138124234854
78.9054216569693
79.3486638511645
79.8309769127373
80.3392750839067
80.8598297668583
81.3781923156831
81.8791646933484
82.3468248250039
82.7646136617997
83.115490202132
83.3828329643961
83.5635806808397
83.6676501403417
83.7059962971684
83.6899642315356
83.6311261831857
83.5411475760484
83.431684450035
83.3143133575879
83.2004937777238
83.1015624736955
83.0287589719729
82.9909963427492
82.9871908781359
83.0135865682382
83.0664895692459
83.1422429193069
83.237204617314
83.3477289765604
83.4701511643463
83.6007749019098
83.7358633505744
83.871633250082
84.0042995262667
84.1309724336166
84.2496010128602
84.3581482555374
84.4545631036633
84.536785733611
84.6027538584391
84.6504100400521
84.6777099887643
84.6826318120858
84.6631861570836
84.6174370472538
84.5459686191241
84.455092927481
84.3519004352277
84.2434292012893
84.1366504190228
84.0384656448113
83.955715430503
83.8951990946311
83.8637054656098
83.8680546029879
83.9151507503955
84.0110762219658
84.153646041227
84.3364185078408
84.5529269874073
84.7966573064494
85.0609989855474
85.3392062012834
85.6243687824544
85.9093937769634
86.1869982934271
86.4497144188322
86.6902817246167
86.9058583107929
87.0966215444381
87.2628545901017
87.4048908516422
87.5231117663033
87.617944420813
87.6898590131959
87.7393661844925
87.7670142447736
87.7733863177214
87.7591573546481
87.7256103774487
87.674375654041
87.6071022975372
87.5254484029591
87.431075373425
87.3256428656232
87.2108043677408
87.0882034155324
86.9594704457466
86.826220280675
86.6900235760206
86.5521116461803
86.4134885614092
86.27514198274
86.1380470052057
86.0031663801453
85.8714509524841
85.7438403059959
85.6212636101001
85.5046406624759
85.3948831226723
85.2928497999675
85.1976696918508
85.1062830714255
85.015514867618
84.9222173136597
84.8232705760781
84.715585681018
84.5961096780841
84.461832969827
84.3097987165028
84.1371142013311
83.9409640118711
83.7203631690997
83.481986917487
83.2344663652388
82.9862445717025
82.7455678859047
82.5204941032409
82.3189163953985
82.1486021690982
82.0172462711169
81.932538329698
81.9022445032784
81.9342561668587
82.0308887847746
82.183348519011
82.3816416359642
82.6157522475003
82.8755402350747
83.1506630801461
83.430522190693
83.7042350132214
83.9606346699802
84.1882990347696
84.3756110211728
84.5127786958718
84.6013244959808
84.6470456807018
84.6559142805549
84.6340150917826
84.5874970907854
84.5225333115523
84.4452895657217
84.3619021685212
84.2784646704223
84.201023486038
84.1354305479704
84.0834533367437
84.0424669247371
84.0096464226159
83.9821817300747
83.9572730085068
83.932128037577
83.9039614375301
83.8699957438775
83.8274643207153
83.7736160934109
83.7057220708447
83.622105029565
83.5251940872831
83.4184272377766
83.3052168471703
83.1889431236646
83.0729503880336
82.9605460771964
82.855002405492
82.7595606097705
82.6774377145726
82.6118357720971
82.5659391888507
82.5422927896929
82.542566161644
82.5684021110425
82.6214931180966
82.7035920998653
82.8165241929647
82.9621996917032
83.1426283035436
83.3599349144405
83.6163770927031
83.9143646028323
84.2549001066674
84.6314256422255
85.0348855015213
85.4559180501885
85.8848019805051
86.3114224221857
86.7252595618037
87.1154022201453
87.4705888687749
87.7792783213013
88.0297518636449
88.2137482285925
88.3359473201375
88.4042782654058
88.4269404977556
88.4123110428728
88.3688659019723
88.3051168123315
88.2295641083309
88.1506659645909
88.0768239889606
88.0163812609636
87.9749705083736
87.9508420405902
87.9410080300571
87.942499373657
87.9523570443918
87.9676254628097
87.9853478639081
88.0025636511824
88.0163077397746
88.0236118953423
88.0215193270583
88.0089792375185
87.988971004624
87.9649855571869
87.9405082113898
87.9190169042285
87.9039831834824
87.8988759411326
87.9071678849977
87.9323447602865
87.9779173588567
88.0474119343501
88.1426945365924
88.2628669410755
88.4068006463714
88.5733903097414
88.7615475667706
88.9701951828136
89.1982615030601
89.4446751743503
89.7083601177282
89.988230736193
90.2829780980071
90.5887250668893
90.8997951720796
91.2103252240921
91.5142907784747
91.8055095116812
92.0776529307503
92.3242669249472
92.5388015802536
92.714650534573
92.8452554106655
92.9280030445037
92.9667942719512
92.966268503669
92.9311731214368
92.866325795251
92.776581313943
92.6668032569112
92.5418407026135
92.4065100571444
92.2655819956044
92.1231283347775
91.9797589779315
91.8349523025838
91.6881927544141
91.5389717285301
91.3867877892021
91.231146942268
91.0715629579368
90.9075577416009
90.7386617501305
90.5644020849458
90.3834522955984
90.1931016054772
89.990560847877
89.7731011251518
89.5380618483025
89.2828602136119
89.0050019717874
88.7020933225042
88.3718537433241
88.0121295376675
87.6210245720829
87.2020290507254
86.76577322221
86.3230410213771
85.8842006251608
85.4592064030365
85.0576245350169
84.6886799042508
84.3613222596801
84.0843102011311
83.8663122392156
83.7160250152867
83.6400310721719
83.6331408779405
83.6865274418099
83.7916044929105
83.9399130981136
84.123024377206
84.33245952863
84.5596266157231
84.7957741755273
85.0319621847492
85.2590512503249
85.4681410076784
85.6553905150502
85.8203975311957
85.9628540296241
86.0824859773062
86.1790544808201
86.2523568028697
86.3022272414424
86.3285378648129
86.3311990966225
86.3101601463541
86.2654204302788
86.1972404873434
86.1061221624026
85.9926083984587
85.8572729131954
85.7007174913831
85.5235692465548
85.32647787116
85.1101128935231
84.8751609589051
84.6223231508107
84.3523145939002
84.066746879016
83.7694376398212
83.4644586363986
83.1557745539415
82.8472386338157
82.5425920391233
82.2454666865132
81.9593912838755
81.6878003337365
81.4340458928692
81.2014119184131
80.9930936164325
80.8096409356708
80.6473666575841
80.5022819548023
80.3704783239443
80.2481126920554
80.1313964202381
80.0165880294812
79.8999895112862
79.777946108152
79.6468494573307
79.5031439863508
79.343354361715
79.167095332277
78.9803658310321
78.7898723054542
78.6021972817796
78.4237992740382
78.2610234238295
78.120122377394
78.0072870180045
77.9286868485788
77.8905200591133
77.8990736171231
77.9607940925887
78.0805884801855
78.2541694496528
78.4742463750574
78.7335369444558
79.0246862160567
79.3401968132826
79.6723722631461
80.0132740273989
80.3546931921018
80.68813809448
81.0048393606665
81.2957754334492
81.5541871285225
81.780745284747
81.9776470928766
82.14720837006
82.2918470676721
82.414067615129
82.5164463315449
82.6016181029276
82.6722644890687
82.7311033925268
82.7808803931202
82.8243077831825
82.8628691219618
82.8968104929352
82.9263262480269
82.9516127792625
82.972868311913
82.9902927056141
83.0040872638357
83.0144545520436
83.0215982248536
83.0257228624475
83.027033816483
83.0259232086088
83.0236820404169
83.0218719591666
83.0220544346408
83.0257911598497
83.0346450945342
83.0501820977008
83.0739731526915
83.1075971913544
83.1526445279031
83.2107209180817
83.2834019882759
83.3704002507086
83.4690217645313
83.5763998523485
83.6896446646637
83.8058380037102
83.9220301365989
84.0352386496161
84.1424494021517
84.240619639314
84.3266833164546
84.3975587110149
84.4514079817953
84.4909596392888
84.5200069958271
84.5423639586601
84.561857275357
84.5823222152322
84.6076017174642
84.6415490267883
84.6880338410819
84.7509520120185
84.8342388705139
84.9414280667968
85.0716781054469
85.2216718856277
85.3880466046327
85.5674064573179
85.7563105354343
85.9512633620765
86.1487081476088
86.3450228819085
86.5365193972295
86.7194455456678
86.8902619964976
87.0486722988429
87.1965768110151
87.3359511818073
87.4688032587535
87.5971697049089
87.723113518891
87.8487224948699
87.9761086554756
88.1074086886921
88.244785419872
88.3899731054088
88.5411290062268
88.6946799447658
88.8469935246974
88.9943874557706
89.1331319006976
89.2594549518245
89.3695513277134
89.459594355146
89.5257512654992
89.5642020365032
89.5723918482445
89.5519050127705
89.5052250732124
89.4348742791968
89.34339967056
89.2333604942503
89.1073170314362
88.967820883925
88.8174067441886
88.6585856519154
88.4938324614602
88.3243674143842
88.1488175293274
87.9655076904903
87.7727951551781
87.5690726511295
87.3527720151844
87.1223683296281
86.8763845071993
86.6133962699777
86.3320374613685
86.0310059696439
85.7107516372713
85.3772860368506
85.0375987742783
84.698470107161
84.3664684635993
84.0479584221537
83.7491183171677
83.4759667274875
83.2343972545716
83.0302211908609
82.8692179167767
82.7569694808237
82.6931750899702
82.6712228262598
82.6843305851466
82.7258095033518
82.7890125242461
82.8672939644563
82.9539797888461
83.0423485390241
83.1256230259065
83.1969729902943
83.249528955317
83.2777930935912
83.2829786130585
83.2683541221274
83.23721567427
83.1928720118988
83.1386327977822
83.0777994718343
83.0136587466288
82.9494787289403
82.8885076373999
82.8339750778801
82.78907232417
82.755672670809
82.7336788033365
82.7228396948376
82.722913720589
82.7336680189666
82.7548778833234
82.7863261823357
82.8278028065105
82.8791041387243
82.94003254683
83.0103958965151
83.0899880117188
83.1784570596142
83.2753826980655
83.3803452097907
83.4929250468484
83.6127019994502
83.7392544057732
83.8721584019509
84.0109872117551
84.1553104757986
84.3046936203884
84.4586979751737
84.6169061852787
84.7789296503999
84.9443766559497
85.1128497935333
85.2839456191239
85.4572543456468
85.6323595713969
85.8088380458431
85.9862594744895
86.1641863645684
86.3421723957602
86.51962586805
86.6956983456558
86.8695021671389
87.0401359723544
87.2066851937481
87.3682227444635
87.5238099097578
87.6724974475678
87.8133269032124
87.9453321421555
88.0675313536977
88.17849593252
88.2761757655215
88.3584686371623
88.4232719467733
88.4684904131414
88.4920447520894
88.4918812839662
88.4659824103059
88.4123778799652
88.3291567452229
88.2146592683369
88.0714202729862
87.9061000463453
87.7254799461201
87.5362544013617
87.3450132973993
87.1582345641848
86.9822865566055
86.8234398025975
86.6878877415186
86.5817761766731
86.511088740806
86.4761326833032
86.4700009992617
86.4853823772568
86.5149957396565
86.5515601081489
86.5877767461553
86.6163235732791
86.6298619299647
86.6210557663655
86.582603237215
86.5073579440937
86.3937192046524
86.2490454103505
86.0814940763674
85.899145736273
85.7099693952236
85.5218032083995
85.342349850536
85.179185953876
85.0397850145692
84.9315532928398
84.8618784530387
84.836092477746
84.8512418905649
84.9023916497468
84.9846834920785
85.0932971876251
85.2234175355912
85.3702068569742
85.5287828854254
85.6942020768308
85.8614484518824
86.0254281543031
86.1819609441172
86.3332074696715
86.4839049420697
86.6388643043663
86.8029663425459
86.981169551849
87.1785237175962
87.4001894936681
87.6514643451126
87.9378153381105
88.2649194155703
88.6367811652271
89.0490850337874
89.4950709500585
89.9677647766024
90.4599258771899
90.964004685437
91.4721114232927
91.9759973360757
92.4670500222477
92.9363045576462
93.3751284734379
93.7826301690648
94.1633202377276
94.5220255073804
94.8637716321823
95.1937635518417
95.5173709829615
95.8401194869483
96.1676876127145
96.5059105915458
96.8597311493351
97.2239125240155
97.5872259980989
97.9380404176881
98.2643982187955
98.5540575173202
98.7945650789844
98.9733613641725
99.0779179177445
99.0959062017864
99.0190621441902
98.8529973344768
98.6067684131838
98.2896824631701
97.9111601973717
97.4806154603507
97.0073525790727
96.5004822329744
95.9688557840053
95.4210174299356
94.8642083838588
94.3011727402001
93.7334048168053
93.1623391765863
92.5893503104026
92.0157527368315
91.4428015073078
90.8716930736042
90.3035664763226
89.7395048151312
89.1805437812362
88.6288039536363
88.0886789070719
87.564647232852
87.0609760803905
86.5817429065494
86.1308605021642
85.7121049352803
85.3291461624304
84.9855811761122
84.6849696784159
84.4308723985471
84.2258911369914
84.0663109651313
83.9460849607194
83.8593466346457
83.8003658072127
83.7635069421565
83.7431956724875
83.7338930826396
83.730077480258
83.7262335144195
83.7168485781599
83.6964756064021
83.6623608813341
83.6154808677673
83.5570928994507
83.4884576716509
83.4108360020346
83.3254859711375
83.2336604466333
83.1366049922517
83.0355561593338
82.931740156637
82.8263718921289
82.7206042995254
82.6151864452044
82.510675007689
82.4076199645264
82.3065658701245
82.2080521025898
82.1126131799603
82.0207791442274
81.9330760117451
81.8500262888538
81.7721495518165
81.6999631035574
81.6344525103554
81.5783088191611
81.5346020888938
81.5063988033328
81.49677243516
81.5088163453626
81.5456590880932
81.6104822365004
81.7065408994076
81.8371871633355
82.005896771115
82.2162517461501
82.4693466966638
82.7623629794204
83.0921694587983
83.4556206891944
83.8495271586856
84.2706276087677
84.7155633867916
85.1808548780406
85.6628801505305
86.1578560279151
86.6618218839992
87.1706265251971
87.679918593002
88.1851409745768
88.6815297526663
89.164118252259
89.6277467463653
