Value(μV)
-70.5780536086947
-7.66074443525118
13.5817962522157
4.01677675874482
-10.0686049138233
-12.1770109040634
-5.97140227980632
-4.40036217551627
-12.9852934577337
-25.3064223287677
-32.4373811676065
-33.0513957492122
-32.9466699210178
-36.6720621126893
-42.3430787506719
-45.0886445327754
-43.5711562110286
-41.2378559394107
-41.4658692643909
-43.2592128535704
-42.6990813867279
-37.7936368820627
-30.5445735256139
-24.128260251931
-19.2207340713845
-13.9994178678276
-7.27108086281321
-0.377947536616549
4.43516012989717
6.79616932303947
8.4906923599382
11.0790324621822
14.0379719149226
15.6753575329696
15.3879973061902
14.3084858067757
13.7412962324499
13.6708766434346
13.2947160785001
12.6820200027302
13.1835896415313
15.969490089093
20.582397595474
25.345191725671
29.0373073613431
31.7154448164785
33.8357540095917
35.1033198190168
34.712148383797
32.6396307468206
30.1695438856652
28.8079184993253
28.8641920641331
29.4034168691687
29.5133983846462
29.2241321778644
29.0210762570386
28.8094584030935
27.8538449559351
25.8197757458072
23.5057156538105
22.2169311681194
22.4837238604329
23.6525607881921
24.7443612638198
25.4136019249187
25.8613126484501
26.018823633244
25.2409612812768
22.9689261212885
19.4725310703105
15.6708567984227
12.2454342524697
9.14387269072409
5.99764559315332
2.79537539228738
-0.0567578142333787
-2.21911483864869
-3.66027718824296
-4.32766601558603
-3.82081786356707
-1.66452403933599
2.10514814267694
6.83367328501637
11.7822516979392
16.5811303775471
21.0238715556026
24.6313169321488
26.8278639018381
27.6958538874803
28.266337958217
29.6785904580913
31.9962769866869
34.0989413688198
34.8680594979171
34.2603787849445
32.9463145339942
31.0308958501542
27.6763935950496
22.4388222353924
16.9222590240805
14.6654161017654
18.9518627269145
30.4409443659302
46.6400770350606
63.326118533025
76.4156473415566
83.077626344098
82.1359010434427
74.1791208419198
61.1400701234076
44.9504626384783
25.9315777162555
2.46969136097587
-27.3293378697185
-63.2540201380476
-101.862371504676
-137.285204563966
-163.011402732638
-173.73928990174
-167.292850045277
-146.103573665655
-115.96142763251
-80.0750037509467
-31.1000696875575
51.0737421257707
189.446368567673
391.430595355224
635.33576983525
874.568509264226
1058.91508215806
1157.80606451137
1168.90105065137
1108.41033450613
994.521012231031
838.121875747741
644.920454802882
422.074746789391
181.431791467462
-61.4228063463925
-288.249165020253
-478.240770384698
-611.053620241567
-675.313137797699
-677.518332539333
-641.979504083367
-598.518424366511
-566.149607584929
-545.630759407127
-526.018897719073
-497.875382070845
-461.113784527373
-422.501707152601
-388.143393292543
-359.315440135252
-334.326710206517
-312.33694623559
-294.411094664842
-281.561335742544
-272.901352723417
-265.909726066455
-257.815925654292
-246.407705004944
-230.289585255848
-209.621448680645
-187.047251856926
-167.089798463971
-153.392156746593
-145.91165468388
-140.957043141948
-134.322024301629
-124.530440445975
-113.163386419011
-102.455114241678
-93.0702261307945
-84.221066048607
-75.3118533535695
-66.7866305271456
-59.3234695977568
-52.738494579945
-46.1129566600488
-38.8447188133723
-31.126249901107
-23.2717639688346
-14.9512184271042
-5.48948779314368
5.1154780314212
15.8264789501231
25.3946645989332
33.3771467376847
40.1374272630149
45.9857924702433
50.6996444847045
54.048461180261
56.514360670479
59.097312541411
62.327075064276
65.7127735981039
68.3535043369913
69.9649728756324
71.0707963729444
72.2116383765905
73.2794343062041
73.8570448591522
74.0680397232329
74.7433288744616
76.6007960487688
79.4333710867573
82.315173813664
84.5620720298814
86.276855289133
87.9041005885405
89.4892883440839
90.6321699394877
91.1299713493826
91.383697611448
91.9880574003037
93.026799271784
93.9728168556169
94.2833814596992
93.9004437198908
93.0698626197639
91.8475749445602
90.047315255906
87.7061398925024
85.3726400161172
83.7430256722075
83.0848722009993
83.222217356529
84.1108739533637
86.2016165512606
90.0287313359751
95.5003934622274
101.816981666261
108.153263357121
114.221348998171
119.959107200135
124.756620719889
127.323611810863
126.553674138737
122.460918703371
116.102344896912
108.609321464192
100.515235563424
92.1227786531421
84.268082115493
78.2980760353287
75.0951236338436
74.2623498117061
74.4708560458447
74.5837548314654
74.26071677067
73.4563109181122
71.6370365822922
67.8565933258525
61.6684673260661
53.7279694660951
45.2898073845734
37.1814304762228
29.4694847217046
22.1383376827003
15.8255629044735
11.6207408058646
10.1456871052808
11.0370568232598
13.4253478142621
16.7628038834196
20.98076257563
25.8787626295445
30.6410785442033
34.1850592074915
35.9651119174128
36.2874183781577
35.8190505118648
34.9462309928293
33.7208147592606
32.3009895953751
31.1694003325402
30.775391518773
31.0554371251316
31.4588346542671
31.4537642450355
30.9005520883995
29.9054334457338
28.4568517629554
26.3707390613256
23.579609873096
20.3048704888811
16.8252036409093
13.1288835438762
8.90882246685994
3.89730262690958
-1.91113174925651
-8.41826781241703
-15.6822985437506
-23.8554259681673
-32.8454227847434
-42.1764862332503
-51.2923460879087
-59.9409083647454
-68.136957507616
-75.7525399008156
-82.310060386773
-87.3188118892553
-90.7721951747534
-93.1694991951107
-95.0176420181886
-96.4522391384669
-97.47369083068
-98.4700565588112
-100.266969494785
-103.511842888432
-108.070650121042
-113.155981844632
-118.021777970787
-122.367089902671
-125.992428197272
-128.251609453089
-128.148062082585
-125.111578877692
-119.579003451224
-112.671721832838
-105.333899642695
-97.9284040823107
-90.6798171146995
-84.271599559396
-79.7174794324018
-77.5704519860564
-77.4076442390912
-78.2263870998347
-79.2892208096339
-80.4420882813267
-81.6266521773083
-82.315041681965
-81.651152755663
-79.1534316499258
-75.1188533777912
-70.2525060022231
-65.0051000917089
-59.4105956528897
-53.5269007116712
-47.8155854999783
-42.9224424978951
-39.1285541469714
-36.1643820126281
-33.5956713861535
-31.2647568753005
-29.2474432137177
-27.4578591660896
-25.4940933103643
-22.9713566308253
-19.9196981132226
-16.7253858952442
-13.6909741184019
-10.7830241182399
-7.87735804914585
-5.14736720193825
-3.04895747854024
-1.88657336542965
-1.49955530040933
-1.46115682422133
-1.52797666525269
-1.76708920505699
-2.21845419461332
-2.55628777681762
-2.21331913621603
-0.83783701118529
1.46315949712662
4.35731481383024
7.66107928674597
11.3774063719441
15.3910566617
19.266977997351
22.4509848280565
24.6441195848804
25.9090517678806
26.4266873189207
26.2605329102258
25.4335572776506
24.1731942983591
22.9447385769133
22.1771382493324
21.9984337588235
22.2900348507859
22.9571391047021
24.0453991193135
25.5580158750144
27.2381518999027
28.6373468616102
29.4249373815524
29.5877755728204
29.3132424816796
28.7415611156817
27.908590489499
26.9261895972087
26.1384941187354
26.0370542221808
27.0244925704587
29.2746992285278
32.7732695535933
37.3936201828617
42.8758314960166
48.7682776050479
54.4673036454495
59.3498681520023
62.8667793045574
64.550132663054
64.0529982636995
61.3083995854065
56.6774070576127
50.8696072809872
44.6413863694734
38.5507408791668
32.9904284615682
28.366058124712
25.0882902564629
23.2985253480033
22.6459751040361
22.4450289305768
22.1057332711012
21.3877349439506
20.2386401801568
18.4970587074113
15.9021051935877
12.4301824275166
8.51525094276571
4.82149896539694
1.8055465311984
-0.409074640109226
-1.71778445387881
-1.73869892446677
0.00544451131896295
3.58464280075824
8.44939798312656
13.7993722586644
19.1073490143931
24.1779637280908
28.7222736876715
32.0737984833775
33.5182351043035
32.9208111552003
30.9052021084025
28.3348372209125
25.6726371149635
22.920502806693
20.1078438932476
17.6295043188999
15.963716858828
15.1247105524773
14.5691496172583
13.7203273555778
12.5081922111177
11.3122295616284
10.4348574543797
9.77911366817198
9.08678655329801
8.3563011479004
7.85855234223128
7.73346222342963
7.71703197905073
7.37822426715376
6.57743513980114
5.57505918502773
4.67914689975064
3.90713869688778
3.08293368033679
2.19018574949819
1.46579490344255
1.08779370041169
0.882642742201021
0.474352479121531
-0.283855136948102
-1.14183220150648
-1.76422264370755
-2.11689199235538
-2.43386923027506
-2.83415572796483
-3.12783302564802
-3.09638412401866
-2.88166518952655
-2.93896133720326
-3.56172128404573
-4.55933558684185
-5.50334302858967
-6.24447408617763
-7.0579841453444
-8.24995866708552
-9.74503268789794
-11.1885828802417
-12.4177963344326
-13.6665598795716
-15.206452003357
-16.8585981771511
-17.9963490040485
-18.0596698817171
-16.9850056283982
-15.092834569003
-12.6627567173801
-9.76959997300977
-6.54125720050881
-3.40948868701311
-0.940776604188796
0.587684680524374
1.34621650985274
1.66036748351819
1.65062573193494
1.22954142083062
0.36504959247144
-0.837516688403936
-2.38878030718197
-4.62674922691482
-7.99603624331731
-12.5691792798526
-17.876899107003
-23.2737334565048
-28.4016326951395
-33.1983013397301
-37.5043587318922
-40.8657614649016
-42.8740580502999
-43.6463582293851
-43.7970666960209
-43.8600391565421
-43.8238497987537
-43.3238608773926
-42.2199074273964
-40.8160729446818
-39.4610084637325
-38.0811081866511
-36.2832049939937
-33.9023152587843
-31.2590739309975
-28.7470359897967
-26.2504241666157
-23.1528758390767
-18.9758704979322
-13.8927164608813
-8.5189892423648
-3.28935260392304
1.77153522144949
6.62452602986308
10.7560131499807
13.3668589267997
14.0597276097246
13.2128246856422
11.5885261235502
9.64323937189342
7.31749291866896
4.43246635202953
1.07708966226511
-2.51824264124827
-6.36713442718465
-10.7536119712051
-15.785962070222
-21.0337224176496
-25.7231810933915
-29.2466980617511
-31.3593099932539
-31.9071077872936
-30.6010473166642
-27.2782576766765
-22.3525219445339
-16.7696399674317
-11.3478392742763
-6.20825303724718
-0.972606147338532
4.51683643257239
9.85707807031739
14.5405646383371
18.5846947948973
22.4621292990201
26.3584781264552
29.6943266911843
31.5754768545942
31.6865300077859
30.5710799918744
28.9886225926225
27.1663686638284
24.8465217407199
21.980253939357
19.0996440309374
16.8551851732172
15.3237018156046
14.0040612529998
12.5218603710105
11.1366626719679
10.400158090562
10.4147089079571
10.6492488671067
10.5288039483328
10.008433253597
9.39392204089869
8.70012045044353
7.47146446705793
5.37851421481901
2.84913643293174
0.891856673597772
0.272668748929277
1.0119900137268
2.73002045897283
5.27319336806835
8.74286976093606
12.912288281107
16.8904612643824
19.5994137690343
20.5576198873445
20.0382931853075
18.4676000590599
15.8912024731613
12.191493605476
7.68965474632795
3.23274599554715
-0.429325321401961
-3.18193326948997
-5.28580249635473
-6.67887593418814
-6.82024711323243
-5.35275796876165
-2.74385664017494
-0.0432949044528783
1.96022445241108
3.11022250085234
3.35856509673305
2.17133040274735
-1.16631487528566
-6.59745830738453
-12.9213687733136
-18.5942711471776
-22.8055880625148
-25.5594102080991
-26.7951753905922
-25.8728032905086
-22.2650313861523
-16.6085859378069
-10.6220119807408
-5.77217913180018
-2.24117155491258
0.539094221582343
2.5127252705454
2.64989771255716
0.182184956980684
-4.15212312508295
-8.5728842763418
-11.9842036460887
-14.7973195380956
-17.7571399221181
-20.2811789510255
-20.5685988017344
-17.5174324219837
-12.0775858770985
-6.26144080698221
-1.01155197576477
4.3429883375019
10.3405505655123
15.7253073471292
18.2959379715736
17.4456057810625
15.1648095682243
14.0151256202715
14.4654032098716
14.9868183741256
14.8537505539046
15.9341995618662
20.7570189491128
28.9127931342097
36.4068801301962
39.3246579475857
37.7674470665129
35.2616826430817
34.1184562012933
32.3221099323178
26.009272234857
14.8829766729457
3.96102037233703
-1.12123949787405
-0.649484443832421
-2.22513385756675
-15.4072732336335
-44.8811970884504
-88.1645352676245
-138.328539401485
-187.404382018127
-227.263003338334
-249.197489870963
-244.892336856752
-208.403266967183
-136.196775719261
-24.6405255723205
131.023129743372
331.967244479473
567.1686357324
808.782148876519
1017.87335665932
1158.29787742469
1209.41451837913
1169.80866977984
1052.16197505464
875.441816196825
659.692155066282
423.964427522004
185.413122691089
-41.1936416125071
-242.968495211586
-408.068537769499
-526.814505577576
-595.508295408247
-619.863922156981
-613.783424540828
-593.132981725746
-569.233244796837
-546.973943449206
-527.378201258048
-510.144004699696
-493.288001536712
-472.124219053336
-441.467747975867
-400.62266134404
-355.887762696998
-316.753931744138
-288.810382825811
-270.550946095735
-257.253284782449
-247.12271408556
-242.324853956449
-243.674784721626
-245.572694262253
-238.039304661159
-214.876197381852
-179.90604984402
-144.871955929393
-120.923251394393
-111.494229093417
-112.029158796896
-114.997321459584
-114.785387952073
-109.293676733678
-99.2445387514784
-87.2864691573261
-77.0442206417648
-71.2183503572185
-69.431748721396
-68.0993691096962
-63.1788328764545
-53.4491773009241
-41.03960759359
-28.8208132911242
-17.6946032534734
-6.67212932659939
4.83849024714331
15.6261024849882
23.847553577642
29.1324043868425
32.9222747777966
36.7180047150796
40.5262873382702
43.3770250706481
45.0529768149176
46.7189318662627
49.7060171037945
54.1087907322713
58.9789178089298
63.7361311642215
68.884829187731
75.160834574224
82.3468620410616
89.3734272846129
95.5496951811039
101.267576163104
107.265723172716
113.475388917195
118.998216571407
123.2147603283
126.494759297494
129.519583161395
132.107678838095
133.144347741572
131.796582305094
128.498661520933
124.45231046421
120.272967104359
115.48623744354
109.460077606294
102.513468518922
95.7499611586048
89.8395307344571
84.3306202692174
78.3853068714273
72.0196623232764
66.3238113272836
62.4512392547355
60.6657381669475
60.5331611744276
61.8122662775232
64.7670735815402
69.5037350004142
75.2794656367755
80.7642384935941
84.9801284741456
87.7963296369185
89.497439671213
90.148824584414
89.6425572455303
88.2736694702783
86.9215411454893
86.4477447393265
87.0171764380449
88.1971251302319
89.6771872808151
91.6450396568058
94.3406034338919
97.4383511916053
100.151857131125
101.977490100966
103.106298222206
103.943529143085
104.360314463936
103.683924476466
101.478786810333
98.1212937848682
94.4159809139592
90.7347541011943
86.7727152329454
82.2002675852677
77.3171542015576
72.8187628499649
68.96115176426
65.2162500524256
60.8882971419328
55.9277617414293
50.9361053607571
46.4050074769648
42.1964916150803
37.9051669327999
33.5628277602701
29.712592174523
26.7445903428952
24.3812549824907
22.0063014173619
19.4152705170467
17.0116076850495
15.2085466677112
13.8396354516699
12.3491635047364
10.4810459130041
8.5184902726073
6.73585875526507
4.79821749212377
1.94830443555057
-2.19989719425127
-7.24932141954302
-12.5042151633583
-17.722514796238
-23.1876606912999
-29.0648080693918
-34.9478497263805
-40.2380046225627
-44.8783286796338
-49.4745280123665
-54.6128440336255
-60.2195889360681
-65.7456575388117
-70.8924640066005
-75.9209545498412
-81.169656186473
-86.4624671666729
-91.2217783073767
-95.1542577482933
-98.6072513843349
-102.116966223852
-105.722041894102
-108.913647376192
-111.256438249986
-112.854143323877
-114.072659866565
-114.933520676538
-115.017877426728
-114.019687915387
-112.203819134406
-110.140978233496
-108.051147214591
-105.610391167803
-102.463252045854
-98.7478567282811
-94.9298648016341
-91.1742807443157
-87.118943770512
-82.3918102267189
-77.2122346594812
-72.2673900811778
-67.9847147505549
-64.126227701885
-60.2419769999317
-56.415780614626
-53.3416262345938
-51.608019504014
-51.0722332834007
-51.0882227059232
-51.2636790875202
-51.7590857658208
-52.7468784706873
-53.7380290133599
-53.6671640175162
-51.6876639705434
-47.7683150400389
-42.4673867609719
-36.2788858946142
-29.3943646713561
-22.0877397455368
-15.0912406777108
-9.36847953199988
-5.50080347888385
-3.4002973990407
-2.6303829665835
-2.86776860309565
-3.95332330726146
-5.60401497393381
-7.3123775151763
-8.64971563402067
-9.58205579115573
-10.3569243241355
-11.0929368562476
-11.609538065579
-11.7101235950323
-11.5156738629293
-11.3768517352926
-11.4685144548454
-11.611648398657
-11.5692922461542
-11.418638992137
-11.4810214121478
-11.8709627949296
-12.2411071338041
-12.0626193596188
-11.0979507856443
-9.49289411623335
-7.43250036758338
-4.87331002714069
-1.72763894071417
1.76980904671311
5.05754219160149
7.67500814577927
9.60352720173071
11.0973145060099
12.2459198818115
12.855755887682
12.7954541219768
12.3058442877768
11.8035712633644
11.3913856869057
10.7204257315515
9.42969328716728
7.63901633784809
5.87669354752031
4.52984454661306
3.51132640591845
2.55424024471042
1.73338011080538
1.52085521225056
2.28725964674931
3.87685386135492
5.79128615447259
7.74184709672419
9.87765542861366
12.4344086047235
15.2883424975794
17.9886046701829
20.1972199887414
21.9532172650661
23.4492008012688
24.6664118542683
25.3736626626552
25.4701458076725
25.1758675938257
24.7909773062816
24.3462274666394
23.6221463390873
22.5101824340938
21.217912547814
20.0362704016511
19.0032552193455
17.9639935499636
16.9857446909947
16.5560130169471
17.2168126058473
19.0174548622293
21.4462036166856
23.9263943506587
26.2543784156246
28.4422661183786
30.2197033341064
30.9239354708891
30.0276041538108
27.71285875944
24.7814158902209
21.9704895514386
19.4526721047235
17.0475271549118
14.7895980021582
13.0951149456492
12.3295876091142
12.3603250841261
12.6905384938566
13.0299500171875
13.6209168190667
14.9635511965905
17.3132339128149
20.5340144906394
24.3779808722414
28.7387704684467
33.5480134593128
38.5121916102751
43.0900620484775
46.7559436846031
49.2128465999745
50.3308777589452
49.9937755146066
48.1435860911183
44.9796925272096
40.9956110197546
36.7400241638149
32.5879342796217
28.8143445709227
25.8279863212407
24.1492871653046
24.0319084622121
25.14541834304
26.7381626928482
28.1232820748154
28.919747218673
28.8105407867536
27.2488196703501
23.6504644540627
17.9631321815586
10.9268863353736
3.63522353814972
-3.15223506863673
-9.18133915242449
-14.2508281642342
-17.8313060318747
-19.3527411180167
-18.8540314173109
-17.1459461114978
-15.1949459414234
-13.4112703160844
-11.6651819151511
-9.95071225091538
-8.8046925689894
-8.91114759227199
-10.3737977276306
-12.5772402583637
-14.8185780891114
-16.9233189740751
-19.1009860105544
-21.2837425833235
-22.8493155453793
-23.1197239063699
-22.0223347727947
-20.0961966259447
-17.8662570128981
-15.387376351906
-12.4836045659718
-9.2736951855504
-6.22122747139002
-3.62124748832723
-1.21722128299549
1.51482842780899
4.76190286912848
8.22520998691402
11.6002996054991
15.0232611202195
18.8658999984779
23.1392070455483
27.3091849605426
30.8036432059964
33.5682297276867
35.9320135974911
37.9245364226589
38.9171681402189
38.0848409484392
35.165549688429
30.6297216222124
25.1166931447124
18.8901963428556
11.9784475161513
4.74224748691935
-1.94168008877949
-7.19068350550469
-10.7429416050423
-12.9912259357461
-14.4573767682437
-15.37363386818
-15.7840574849949
-15.8554157361049
-15.8740184690667
-15.9298499469017
-15.775220256786
-15.1150343095288
-13.9813131938178
-12.7230845898378
-11.6747066572317
-10.9988015221135
-10.9135100284152
-11.9032194093997
-14.4615707906595
-18.5571636408679
-23.4857877464121
-28.3738673123026
-32.7833849883371
-36.7139220331529
-40.0609167630513
-42.3045514047062
-42.9128437929064
-41.9849019535994
-40.282956345879
-38.5379733236052
-36.8441479069687
-34.8705114396171
-32.5939364008774
-30.600088105833
-29.5583069099477
-29.5375256852067
-30.025966765047
-30.6012247467481
-31.3654978345439
-32.5931991067598
-34.0907122315259
-35.1567301570105
-35.2469255715363
-34.5197499058464
-33.5867534864879
-32.8147477044544
-32.0818052661826
-31.2526475365277
-30.6639868322494
-30.8951248815494
-32.0681471600119
-33.5883608399383
-34.7007719214391
-35.1890794487613
-35.3575586506894
-35.3665052166031
-34.8245419821793
-33.1859899260361
-30.4279402544888
-27.1040322595238
-23.6889769512698
-20.0644397783658
-15.8181427128839
-10.9654452058132
-6.14995897528823
-2.05904159337973
1.1954283449018
3.96045032255633
6.40440671926724
8.25146009327297
9.25565040901557
9.76124655098839
10.5461164945261
12.0776246646317
14.0949959771797
16.0242218239613
17.661423158331
19.2367779331207
20.8182454715277
21.9080905907997
21.8378902246547
20.5016302646757
18.4919737072251
16.4567901564678
14.4898666460506
12.3067645642317
9.92488570334668
7.92503160794549
6.94966109878964
7.10567617667816
8.04393992328013
9.56605442100296
11.9079948306765
15.304889110555
19.4285742791119
23.4753638305562
26.8173667439477
29.3862117443838
31.3394527785165
32.5450611350102
32.6585491333427
31.7194370949776
30.4136536752619
29.5340051000349
29.2466079549655
29.0841610309872
28.6656741808045
28.185679433013
28.0239033071061
28.0282236159884
27.5120224549193
26.0754340939364
24.2083446999714
22.8261409061274
22.2491203650882
21.8966802893791
21.0795272482656
19.8494168669249
18.7811102348671
17.9747375575832
16.6423614928103
13.9253488501734
9.96322992284067
5.83287741812639
2.38664126693882
-0.555695521965916
-3.64271165609282
-6.81355295898629
-9.07874223497677
-9.59013331083005
-8.62727469050564
-7.20190498422447
-5.77560983162894
-3.76492048606831
-0.499634296359368
3.61110717408359
7.25733210512517
9.56917415033339
10.9173210474758
12.1754541337327
13.471308134029
14.1174631909041
13.807134817771
13.4059503951227
14.1517863182716
16.2212375109184
18.5653363759379
20.2943374731922
21.7849968399233
23.9754652983685
26.7758656440118
28.8965953075855
29.6269539065886
30.2893885459135
33.057960953679
38.0496012044971
42.1787978757633
41.643663303182
35.6168940646058
26.9398400204332
18.8745289957653
11.6346785735892
2.80978213866614
-8.84938418886391
-21.0663012649794
-30.4523641730753
-37.3328633845019
-47.2955636540238
-67.0002303366671
-98.1124836660912
-135.458981083896
-171.046865294632
-199.42782482901
-218.790541826732
-227.052771670481
-217.473629523291
-178.434673556488
-97.6533265631507
32.5536409768653
211.811670026416
430.098859442964
667.11359614455
893.407552517405
1075.33495937944
1183.81114258638
1202.98720394063
1133.5931913187
989.069402656829
787.969325774465
548.505698951122
288.346645354338
27.5303792003943
-210.546371617157
-403.229118436494
-536.095262466142
-608.543616928532
-632.963365480061
-627.570728881104
-607.750363308633
-581.657605752368
-552.037023283473
-520.938289841305
-492.035119758816
-468.429369131252
-448.988893374757
-428.102044187531
-400.190607393766
-365.035476436787
-328.624058489823
-298.467215201619
-277.80180473258
-264.040124435674
-252.337162041105
-240.099297532325
-227.916786899141
-216.733001131418
-205.078855058227
-189.684633778362
-168.759628158374
-144.354612136319
-121.378947519134
-104.300600307618
-94.4804864554721
-89.9368654978609
-86.9859048776164
-82.1850596289901
-73.6492780006585
-61.620218825624
-48.2173880013483
-36.2333083626971
-27.4456868395996
-21.6559779845399
-17.3093416500521
-13.1030801965031
-8.99695952819118
-5.73524803600877
-3.6386234277021
-2.11453618165251
-0.321308481104712
1.9783494067631
4.42646919378749
6.79284372251393
9.3823383674717
12.6151485526477
16.4080511376064
20.2210942493738
23.7063871122176
27.0821605841424
30.7343974421752
34.5871079164201
38.0879494012761
40.8368259318308
43.0446260823922
45.2556236915918
47.748697300926
50.4310954657333
53.3336396434992
56.9677067309558
61.9608734908781
68.3534301493395
75.4293818297318
82.3062420763178
88.5563564039658
94.1232950348034
98.74244421458
101.73454880474
102.545038980872
101.392637547157
99.1877715437585
96.7647345932611
94.3166536951772
91.6529206305023
88.8674309047727
86.5258836257653
85.1373122601387
84.6020815209915
84.3465307496433
83.9739608435847
83.6262277464313
83.6466877438961
84.0174467650168
84.2851839278532
84.0314323688567
83.2684778835654
82.2924773449736
81.2434629413192
79.9559469723694
78.2471166517802
76.2095749352123
74.1114187633571
72.0599230972274
69.8914951803809
67.4246117850542
64.7284472927652
62.0694818688554
59.6539137471434
57.5420983464666
55.8314198910056
54.7975562231038
54.7268367801997
55.607168810049
57.0673211337046
58.649414286833
60.0769650102394
61.2141822706764
61.8522096787347
61.6977004475741
60.6443727876776
58.9812239863814
57.2277501002803
55.7580884303406
54.6522468980211
53.9108280305712
53.6857945068321
54.1684128073198
55.2626546318339
56.5013419754363
57.3693746729042
57.6542759419806
57.3825620129625
56.4343979489744
54.3698754700424
50.7502039729045
45.5949167294279
39.4143570387322
32.7763674182328
25.9489331793622
19.0492188886267
12.4578623040577
6.89275118370605
2.96042607439707
0.680033730856122
-0.464526508730994
-1.02528712839214
-1.24708802126675
-1.23484909254757
-1.30500324842937
-1.96986750371192
-3.51527039243512
-5.69906081420887
-7.9733759747715
-9.97636958251212
-11.7046338701164
-13.2008652071205
-14.2222379311339
-14.3742178438681
-13.5769197599127
-12.2772636618331
-11.1212116504774
-10.4758927629169
-10.3790627736006
-10.9519978976043
-12.7241999949846
-16.4194107137335
-22.4087245826317
-30.4334113293347
-39.8695103292007
-50.1836547816665
-61.0719086742733
-72.2208799366399
-83.0881931198942
-93.0233857388091
-101.597367875421
-108.767024865062
-114.72647031331
-119.647669874631
-123.559716610972
-126.379551835698
-127.951651311433
-128.053764362163
-126.463542553219
-123.114615245369
-118.200211398878
-112.092501353426
-105.165792512153
-97.7415033151697
-90.2026952247419
-83.0630239388656
-76.7917839843183
-71.5144013059991
-66.9253723912418
-62.5560048404777
-58.1408056049921
-53.7147788656487
-49.3965779136119
-45.1720130745953
-40.9464298826605
-36.7584786047573
-32.8328245097447
-29.3668101251995
-26.3037321296743
-23.3752864058364
-20.362011947421
-17.2572394917245
-14.1604710713911
-11.0752867600039
-7.88783307524293
-4.53527076402914
-1.10402010735619
2.31302014231261
5.83882774794177
9.81610378248759
14.5417985693208
20.0074280846172
25.9189798099705
31.9477142157564
37.9176336831935
43.7509018927827
49.3009370564416
54.3207605832169
58.6211296550996
62.2285264561971
65.3475170303465
68.1454772092821
70.5510045671418
72.2238157902356
72.6957990146512
71.5729288598572
68.6858657778937
64.131379062966
58.2133007015044
51.3575366148547
44.0924790371684
37.0964549724538
31.1783680545775
27.0566735691392
25.0110515788672
24.6962569455328
25.330901486775
26.1125169093327
26.458858567681
25.8742893809227
23.7050638927628
19.2174718651865
12.0497982466347
2.58042077370413
-8.23523830821857
-19.4277844269526
-30.3749842828853
-40.5980352867797
-49.3299979807332
-55.5039920746855
-58.3159700446986
-57.793979969818
-54.7434564064275
-50.1391109191902
-44.6547687978845
-38.8002296869027
-33.3433007722232
-29.3228727440534
-27.478264398902
-27.6885231423464
-29.0683517647833
-30.6256845341121
-31.7610513481086
-32.1449131335511
-31.3087493280096
-28.6199893531008
-23.7710018082493
-17.1979999467742
-9.87331632577531
-2.65727001502616
4.07857057778216
10.1944353689085
15.3115338632179
18.7846035175094
20.1860148738187
19.7084665551572
17.9876275651146
15.5613503970159
12.6123311741325
9.25909236987848
5.96413091018774
3.49067617558076
2.41131060281168
2.72170536649303
3.97003599021437
5.69199328055395
7.62952548277462
9.56041669474543
11.0842534754693
11.73319954739
11.3116968498985
10.046546236021
8.35935522854123
6.53603626231347
4.65915054522574
2.79461728366223
1.09910219640494
-0.335694547605458
-1.68118986475308
-3.29335379318301
-5.39380913357307
-7.88983637615818
-10.5737131264475
-13.4741815497965
-16.9286629455907
-21.2763325164688
-26.5329669483815
-32.4213473840202
-38.6784377183286
-45.2109385071201
-51.866764451525
-58.09425318513
-62.9497852646584
-65.5464652971624
-65.5438823302539
-63.2372779700785
-59.2450807378524
-54.1897661268705
-48.6778399324192
-43.4615503342454
-39.4314792024701
-37.3062105875684
-37.2702436298908
-38.9074562624944
-41.4890283916759
-44.3418828755712
-47.001442146338
-49.1225733509029
-50.3623488655672
-50.4172929096041
-49.1772520317576
-46.812361854647
-43.6823076466798
-40.1449052236147
-36.4383217819763
-32.7280837956489
-29.2414238234452
-26.3252088849007
-24.3393175089225
-23.4603960341127
-23.5652793522678
-24.2961132627524
-25.2430428899004
-26.0804618170655
-26.5625088802438
-26.4480369724029
-25.5016428296582
-23.6148468561497
-20.9237104145783
-17.7643587103662
-14.4600301688387
-11.1105054465343
-7.56016298898343
-3.54915570086868
1.10706154706079
6.44961214155347
12.4151623370946
18.8826444077466
25.6725277336974
32.538482559493
39.2070862661275
45.4533827963867
51.1534187307842
56.2861905419256
60.9050631453844
65.0894955883458
68.8554791034431
72.0355323216579
74.2258253792682
74.9095470069545
73.7275899403253
70.7019284023823
66.2280822502665
60.8663937433633
55.152650450809
49.5904041558182
44.738587458857
41.1678333184186
39.2138400082058
38.7381247199156
39.1739863968751
39.8798573938728
40.5124512757803
41.112366120495
41.8869818387624
42.9562140989256
44.3014865731805
45.8884983501688
47.743224778752
49.8510059389556
51.9883313247227
53.6996737810826
54.4907124263369
54.0937663192167
52.59926048386
50.3780143646924
47.8883078643685
45.5145625146146
43.5126666301546
42.0390762632646
41.1969673577746
41.0494065108083
41.5952023904512
42.7465758327647
44.3585902002392
46.3167936971311
48.6168291409673
51.3449514486704
54.5444889008661
58.0748565406726
61.6050529108077
64.7704870992816
67.3616973599238
69.3777254602166
70.9136124937473
72.0172110516122
72.6643517034179
72.8517730297206
72.6681292175183
72.2352526060101
71.5765899941391
70.574859928893
69.1004158294157
67.2088170591487
65.2190488685269
63.5872351282737
62.67680440451
62.6064985948181
63.2623910627894
64.4009157869907
65.7127478746605
66.8088932868502
67.2173353091653
66.4932134767279
64.4229211387356
61.1702208304188
57.2203947660311
53.138411491073
49.3186178493291
45.9021344743402
42.8715034129441
40.1726431551859
37.7292326740238
35.3798001675853
32.8864570733254
30.0883891595233
27.081758377598
24.2274743023392
21.9331016712871
20.3813368801982
19.4362657380317
18.7799922075701
18.1103982038714
17.2053563195909
15.8431062262247
13.7413673463726
10.6432569853148
6.48737431926781
1.48027742966158
-4.02086380054489
-9.71201062729198
-15.4417507812811
-21.1243234371565
-26.5679836030348
-31.396547467728
-35.1493541996268
-37.4844649666849
-38.3290686480471
-37.8813716503539
-36.5058877973396
-34.6503664849354
-32.8618660616048
-31.8330755735402
-32.3211650632838
-34.8756502850138
-39.5298735686644
-45.7234856743996
-52.5649619054727
-59.2352856045717
-65.2036568079714
-70.142925660417
-73.7702983684906
-75.8990442424688
-76.6773992331638
-76.6809062464286
-76.6249867839709
-76.901704245786
-77.3989253415007
-77.7868924375144
-77.9456080553536
-78.065030672391
-78.3593196467354
-78.7989995888797
-79.209028348761
-79.5838581202954
-80.173485566467
-81.1846486789442
-82.4462007504833
-83.4519296955096
-83.7366943986952
-83.1631742601196
-81.8765356800652
-80.1382093957379
-78.3309407915406
-77.0449161436667
-76.9220691342819
-78.2768148471663
-80.9608277965869
-84.7264164561686
-89.5831605761854
-95.412296702982
-101.016223803504
-103.862126749857
-101.425283624548
-93.2054115820765
-81.2596181493104
-68.3716412437362
-55.7956267726378
-43.560602454154
-33.7186898755287
-33.0071624695775
-50.7334960526247
-91.9087809431235
-150.959004812891
-212.092275842681
-257.193634942745
-275.646235330943
-268.815266541665
-246.371601046553
-217.746967158329
-184.620176754352
-138.480301834914
-63.9578328076947
53.6113504738623
219.173555447946
421.52650095543
633.722250027432
821.653411799096
956.729093015438
1024.97150381026
1027.22025305089
972.055632527207
868.281083226704
722.567032332103
542.029784992922
337.389331349628
123.492832324557
-82.3250168052292
-262.306109048017
-400.930877278842
-489.423314316177
-530.720083665256
-540.131016230478
-538.266825126944
-539.483024164571
-544.557475596326
-543.811762524283
-527.742343375414
-495.462703161472
-453.987998318942
-410.779603613821
-368.121889245498
-324.706188155319
-281.392238611473
-243.888769516779
-219.143214998989
-209.363357063506
-209.844013256105
-212.347284214848
-210.264034895127
-201.053263326155
-185.263219099541
-164.732466023556
-142.006076670891
-120.382056216471
-103.108116417036
-91.8625117621854
-86.0938842238035
-83.9332195021509
-83.480550968528
-83.0152080320772
-80.4352146595544
-73.5187931140382
-61.5099957221636
-46.395501234188
-31.9789718893321
-21.127663203929
-13.7461600969625
-7.43262318039216
0.0082559663820323
8.80230579481895
17.6644058874049
25.4381211765473
31.9302405502312
37.3621336036553
41.588905790173
44.2047397266879
45.233510946984
45.3290786941477
45.2000415036035
45.0882637389395
45.0106918125092
45.3487713407053
46.8426704648573
49.8615576989926
53.8643999649162
57.8040350956122
61.0469435753272
63.7358416922052
66.256674305225
68.6080789143535
70.5211446401046
72.1083335606746
74.0754070787334
77.100403324418
81.106082548643
85.3360295878252
89.1435233003587
92.5257796873386
95.8138947760318
99.0360874497977
101.846567951366
104.088945382862
106.166137222858
108.625297611439
111.426457496025
113.836445529721
115.130809794533
115.270816632491
114.767178704398
113.983845519013
112.818978307908
111.15064990148
109.389125868068
108.312287655104
108.29654420215
108.877698332999
109.215244767183
108.941956397651
108.436346336904
108.29334979712
108.725774917933
109.610885334214
110.990725555594
113.243008157719
116.603714645932
120.605090530985
124.148204123303
126.180586692316
126.26380427592
124.525169223153
121.256315427115
116.751981220714
111.521293045115
106.431959813546
102.425191778034
100.022228957495
99.1382809410076
99.3566472186402
100.296279305004
101.689139783975
103.224897407962
104.496542098976
105.159510018222
105.067152735044
104.17378743926
102.341752869403
99.3408103190047
95.0664951438495
89.7033252099164
83.6454894829188
77.3292694143419
71.2265831915013
65.9517457395157
62.1818120810112
60.2928636730743
60.0396136044834
60.6591215608501
61.3261854537123
61.489921182022
60.8105069771447
58.9567589830145
55.6929330834588
51.2312532932593
46.3573109689468
42.0205351663077
38.7393209575494
36.450007588722
34.9212865301841
34.1744307973699
34.3730577086753
35.364036307624
36.5384741126175
37.2826285896507
37.4941301377776
37.486970979299
37.3420128930038
36.4754975698468
33.9767121458466
29.3535257552171
22.843786382185
14.9911796051468
6.06268878677735
-3.98544273845995
-15.030542483432
-26.4856982330716
-37.621878467203
-48.1473685783476
-58.3511500754482
-68.6470742015778
-79.0488821202689
-89.1140971467986
-98.28333385526
-106.130052962907
-112.298176414894
-116.401564894671
-118.193588098451
-117.875605560183
-116.142986632663
-113.854195124548
-111.66053306659
-109.936738484507
-108.919212326922
-108.704034045041
-109.037806698103
-109.245562981875
-108.568696138655
-106.673639967766
-103.814682269502
-100.498340059005
-97.0647419243294
-93.6455078710878
-90.4255400333059
-87.735809880677
-85.7697452296357
-84.2885140649667
-82.7750886308948
-80.9513515345839
-79.085277265165
-77.7361879566765
-77.2514879325395
-77.5919614043543
-78.5997780939619
-80.2537101241402
-82.5253741228191
-85.0480159439523
-87.1218150589505
-88.174265399344
-88.1960626718852
-87.6699026134948
-87.1094855786371
-86.7510048049537
-86.6596024344487
-86.9388562018019
-87.6438988868334
-88.4935492737973
-88.8429272176912
-88.0786567314899
-86.0218971503369
-82.8701995906168
-78.7894802729138
-73.7173559759694
-67.6349556137272
-60.8951444809381
-54.0792574675434
-47.4971157009318
-41.0037068496291
-34.4774696970541
-28.4378010023954
-23.9955051010061
-22.0725959903038
-22.7165880121737
-25.2384968557701
-28.9071862213271
-33.2810627966748
-37.7901940736369
-41.2312654107923
-42.0475153656488
-39.3197153679834
-33.4550120182796
-25.8214200347601
-17.7463551096562
-9.95244140676954
-2.86596614072347
2.86395992049987
6.48027819384022
7.7953405408759
7.54833802477065
6.89537044126235
6.53314303079678
6.39505525282379
6.15742830798667
5.85585031604498
5.88715276264362
6.51703305209799
7.61144887587299
8.9364129036637
10.5787381492063
12.8806276049706
15.9325300232255
19.2556929437266
22.07562227599
23.8684018983547
24.5828333034445
24.4097338340707
23.521154546357
22.1270632831196
20.6648431494476
19.7117641705835
19.5961077256257
20.1337779865333
20.8078354168697
21.1831163687988
21.1085781425165
20.6020703687077
19.7366574401195
18.764172436355
18.2592036212371
18.9185372701082
21.0688938653532
24.3756128691893
28.0802123661982
31.4910350706864
34.1860763512822
35.8175735658962
35.9648427919224
34.4048234540586
31.5355714065781
28.3486399969241
25.8126262261337
24.2573407962116
23.4000714721702
22.9217596099902
22.8779010802362
23.4932976881064
24.699376976359
26.0937979967363
27.4287516955576
29.0088714033203
31.4414141723396
34.9663072485698
39.1190681845684
43.0935991021435
46.3641750699717
48.8857238608628
50.7640812143004
51.9140609109526
52.1415881949368
51.4746553483632
50.2462451446098
48.7827324100361
47.0739753089425
44.8214203468208
41.7964734475336
38.113629489119
34.2036095487631
30.6430180631004
28.0545448944677
27.0385549133013
27.9752627173261
30.7505952575005
34.6767138868082
38.7322810646568
41.8989319016065
43.3066097284127
42.2289365468776
38.2207265499694
31.460001710336
22.9240011282059
14.0324541274154
5.94458682505993
-0.860258072499398
-6.36722113571491
-10.5422221371975
-13.2158474283284
-14.434415031267
-14.7156231447956
-14.7330133090917
-14.7106062029043
-14.2609756712621
-12.9205472306847
-10.7897819885558
-8.54068664680236
-6.81120720292751
-5.72098519492738
-5.02507368300013
-4.57894459592058
-4.42372057197576
-4.37820911622578
-3.76187787216281
-1.77023072236597
1.81372472063833
6.37097476087891
10.9367431459084
14.8318862518621
17.7358861007032
19.2915568642188
18.9636834448201
16.5017223191816
12.4628324968995
8.03637580591601
4.21652977312448
1.19501526509555
-1.38176005797413
-3.67416591631667
-5.35624449250707
-6.07656339385511
-5.99991216567142
-5.66702284912753
-5.31646218141546
-4.54235304331979
-2.77076175981264
-0.0183669412848246
2.96303365654428
5.31227366537578
6.71230681058711
7.37358379944384
7.5162330361525
7.08034901234596
5.98565359144327
4.49226940801334
3.10228947454064
2.08608100355067
1.22862871120481
0.10834740362894
-1.44134635319378
-3.19859440661013
-4.76410206015557
-5.71178337967455
-5.49707634083165
-3.43467537959438
0.945722158906996
7.40996157577112
14.9670388709585
22.3931127675331
28.7881605840986
33.6038571037928
36.3009570776072
36.3075078928118
33.5242256628021
28.7713424144398
23.4478259013944
18.5541007583526
14.0569082729767
9.26347291864297
3.73341614810201
-2.32420671262865
-8.52134839489068
-14.8806767756812
-21.68499331766
-28.7385210761815
-35.0248011726593
-39.3185123694873
-41.1438281972719
-41.0329700786285
-39.8691014717222
-38.1457892826587
-35.950581358325
-33.4844542941334
-31.2757893779444
-29.7454621420409
-28.7165059085469
-27.5801128716047
-25.9804448996362
-24.1935289390877
-22.7547466856221
-21.8316518865648
-21.1144512763715
-20.273001976664
-19.2905320618766
-18.2095390839973
-16.689948673939
-14.098537130354
-10.1651631580301
-5.44815714525402
-1.01350388256002
2.33056798063428
4.39395368826381
5.27811799827085
4.96324756890751
3.44515890663366
1.22106872206948
-0.643668700772565
-1.14584525000656
-0.0307761830893725
2.23159439819746
5.08824551540106
8.33867622831472
11.8900349773083
15.3088715077109
17.9177259578026
19.4011342652844
20.1065598511716
20.5452141360692
20.651909566826
19.7554141509665
17.3547757330787
13.7548921934554
9.7606385966882
5.82983994927346
1.80246542406429
-2.41481977281596
-6.11642826943719
-8.08491490228363
-7.71679293519251
-5.69539874771347
-3.37952992569312
-1.58492909816985
-0.132244173975167
1.43380807419619
2.95440104959144
3.69866796800457
3.19696288582142
1.78254502799263
0.280661769687647
-0.548353284016514
-0.0309773452552307
2.69420068288966
8.33818506547074
16.4163172766995
24.703004740211
30.2122666420552
30.8922993553781
25.993066838851
14.4317030162149
-6.73306855954023
-40.8675612170099
-87.4644089950948
-138.950178496839
-182.806252755616
-208.642930595957
-214.683655889335
-207.789172623638
-196.524590834436
-182.84931971044
-158.993955760096
-111.320088333191
-27.3770599626062
98.8478786277497
265.161033498704
461.068334663403
667.665907686246
858.625968045993
1004.74871440779
1082.12032046078
1079.93302122972
1002.90381052126
866.715198734133
690.048343910188
488.867718985064
275.862388212001
63.1572417888332
-135.934639703009
-308.43980262291
-445.067826264826
-542.13972719923
-600.627743184177
-623.931093917701
-617.041848118594
-587.657667673253
-546.930964733196
-507.189640408232
-476.84773824931
-456.107638773341
-437.400030607431
-411.063003942731
-372.456675413243
-325.412313870171
-279.770438489596
-245.213250356508
-225.915201044313
-219.214917548523
-218.23894522215
-216.032555087282
-208.649154779352
-196.042218212253
-180.989547284017
-166.966873034197
-156.083279319794
-148.104907759994
-141.047527278576
-132.815568312598
-122.585238161506
-110.89074734066
-98.5876377391418
-85.8912756122185
-72.4715312866051
-58.3680347013355
-44.5977898126012
-32.706328923313
-23.6910901340471
-17.3771198451418
-12.78427985035
-8.97916742500076
-5.52850518094844
-2.27861531077215
1.02971140375259
4.73929908621055
8.89801447946223
13.058865219982
16.5774432959355
19.1291735709367
20.92864565992
22.4921287114712
24.2636996195351
26.4704233005873
29.2110839904206
32.5156892255341
36.2473295388256
40.0179620500684
43.3308599662325
45.8888023967497
47.7794459573969
49.3635543386326
51.0055843273112
52.9159276169046
55.1837268139993
57.8347027625092
60.7627962104594
63.6203880834429
65.8822128229309
67.1314391998029
67.3442168785771
66.9083025973702
66.3662470708309
66.1347907638292
66.4274267716835
67.3479337611952
68.9487210814149
71.1541776347374
73.6792551031316
76.1246191370086
78.2290173587878
80.0504914576971
81.8905916302242
84.0307325224077
86.5280091873686
89.2257542886722
91.8964599294522
94.332033578897
96.3264649912985
97.6698827016851
98.2614613147368
98.2676459273883
98.1378477141865
98.4012241607275
99.3878336749678
101.092891520008
103.251629567133
105.495992912297
107.442905915691
108.712883971437
108.989797893422
108.163610390081
106.443591677835
104.297536734244
102.219730632801
100.493872675087
99.1153734557106
97.8838127179153
96.5470629468154
94.8940338917786
92.7929375639909
90.2210806641151
87.2942289015423
84.2595344272715
81.4316240369329
79.094429182276
77.4017227404359
76.2965516242046
75.4822682297582
74.4990054806057
72.9118182034133
70.4978918620563
67.2656191174532
63.2683411337908
58.3960362104394
52.3832615247406
45.0506217898648
36.5236639647444
27.181600562954
17.4052662363249
7.45301062908954
-2.34717465000965
-11.3131935879609
-18.4455740220388
-22.8916187213168
-24.4552479058742
-23.67142163098
-21.395517695435
-18.3393421471703
-14.9697402528065
-11.7143633179763
-9.06986223572739
-7.3906234565633
-6.59915412064892
-6.21299776163933
-5.73550227156864
-5.04156884861547
-4.40907207089037
-4.25306054702682
-4.89923666236693
-6.57335043798692
-9.45130780986718
-13.5726528937564
-18.7011134134871
-24.3928738732912
-30.3144244897924
-36.5022342768028
-43.2624665167786
-50.813668665037
-59.0785110581583
-67.8249558400541
-76.886984682681
-86.0777126258018
-94.8347359184459
-102.083125328328
-106.659601907587
-108.015512543376
-106.543170242205
-103.228034761294
-99.0265114820709
-94.5962728868648
-90.5136672557956
-87.512491532219
-86.29261829195
-87.0344393897399
-89.1814072850099
-91.798008846552
-94.1857570263906
-96.1812807763246
-97.937908585601
-99.5285586052907
-100.799919273546
-101.531688265979
-101.61330505148
-101.015332682516
-99.6374104214739
-97.2517174082939
-93.6103924731954
-88.5954105272819
-82.2882547263759
-74.9552878594346
-66.9891862786681
-58.8034904563049
-50.6916831954795
-42.7584341877909
-35.0347770382579
-27.7042692361849
-21.1904069920643
-15.9575674731938
-12.2004907742597
-9.75251316576985
-8.29674815752137
-7.5919991624928
-7.40802783708067
-7.26252259001724
-6.37174109274398
-4.02510249457291
-0.0742947639692857
4.96870674936056
10.3261539968734
15.4087303437139
19.8844034776348
23.4354383208234
25.6652693099394
26.379132661557
25.9093505953485
25.0165528340422
24.3798672718021
24.1959721647715
24.2908475798222
24.5428873212522
25.0764263212295
26.0264383710881
27.2457292853086
28.3891406682524
29.2923812519075
30.1465790288239
31.2045772743318
32.3491522382324
33.0469045609722
32.754361990917
31.3115151405507
28.9117808458855
25.7805064120832
22.0203782198712
17.7949608566702
13.52952729392
9.76863796008926
6.78757369657371
4.40017350769174
2.18568737715082
-0.137653192924376
-2.59745018791491
-5.14090496351693
-7.76415474268477
-10.3873746826651
-12.682280423086
-14.1790238881584
-14.6223473019759
-14.1870911223621
-13.2955663069732
-12.2500452392668
-11.0955801995717
-9.80425341195032
-8.45629755202174
-7.13560531894814
-5.69062301140151
-3.74309234314497
-1.02886931359895
2.29126724223289
5.71534971893941
8.78333446113483
11.3278073388541
13.3691852462691
14.8955989541421
15.8738146006975
16.4645950445736
17.0849206506767
18.1313248202193
19.6337415717082
21.2384229604347
22.5365905424496
23.3529749403763
23.702807657551
23.5767984189585
22.9147648665952
21.819933365973
20.680472860025
19.9432357091958
19.7408078397043
19.7986915126098
19.7276260868275
19.3454825995891
18.6737362119207
17.7064013800001
16.3436808693151
14.6217409708541
12.9106512249863
11.7344617755991
11.3476505881501
11.5540510629071
11.9898357189703
12.5268818701894
13.3153106349465
14.4602217215743
15.8006644031381
17.1067576362443
18.4289476567798
20.09227330495
22.2666816848347
24.6104936734257
26.4403813850593
27.2628968056287
27.082363977173
26.1980254774397
24.8255337374173
23.0348037629666
21.0194867952158
19.2500527011163
18.2158404806753
18.0142383330582
18.268625792231
18.4705852577816
18.3577484569902
17.9632608250521
17.4218094513415
16.8714457027332
16.5462503483642
16.8066075975747
17.915429315367
19.7523972161946
21.8062390906106
23.4624116363564
24.2444420586803
23.7771821391996
21.6739506849884
17.6841495927695
12.0419036931411
5.55936364102138
-0.788831793396753
-6.42557632840669
-11.2783125313638
-15.3540440120021
-18.3588272717255
-19.8789342433288
-19.902019915167
-18.9747243703736
-17.720101999828
-16.2643612237169
-14.2858442204775
-11.6496122574321
-8.85027533423579
-6.69835469244356
-5.60589036157285
-5.31017061360029
-5.32186416392886
-5.50100378008449
-6.05783209883541
-7.04867616024589
-8.08124804097906
-8.64689451062969
-8.6702971367516
-8.58232114311829
-8.82295927500547
-9.37282859657127
-9.82249606634258
-9.78936035017124
-9.11720876320457
-7.69022368866398
-5.2647355042227
-1.67653957994722
2.79466209686348
7.40882586812802
11.3848510795194
14.2854529427197
15.966394290708
16.2932870172859
15.1308538667437
12.6747179155876
9.61843611695971
6.76338764664338
4.40055083176552
2.17077973081977
-0.414446534345209
-3.40947667468486
-6.4843399455019
-9.44601319236735
-12.4811011545546
-15.7561477884406
-18.8999333444621
-21.1099119584653
-21.8551824916312
-21.370022480149
-20.3599242419026
-19.2976860006129
-18.1499230116053
-16.7686954271219
-15.322112218091
-14.1463900925402
-13.2372020071757
-12.1228570967799
-10.366558863911
-8.09429313529897
-5.88524190440168
-4.18137960121586
-2.97819332050229
-2.14095376255745
-1.82236314474548
-2.32623262742344
-3.55998886904889
-4.85645963418462
-5.51406311622898
-5.438498452415
-5.07333678014226
-4.70018605749128
-4.01885852073441
-2.56131592509671
-0.383464993695128
1.91392309285825
3.89953890589413
5.81044343933073
8.1152505254832
10.6523590226932
12.4767775546003
12.6940020127622
11.2946603039155
8.98520173197794
6.29570557610067
3.16664466749976
-0.454214850809791
-3.87156868367253
-5.8880085266229
-5.88970541456042
-4.46456748244308
-2.76063202285066
-1.37253249608294
-0.135606748723148
0.997674516330335
1.27297334894384
-0.316109678641702
-3.85681944521365
-8.25030646459606
-12.2836024391865
-15.7409526871491
-19.150989187426
-22.5001797993046
-24.6076188158602
-24.0541236699266
-20.5733776271951
-15.1963581791131
-9.01666577341162
-2.20092900125625
5.47176515744329
13.2764967108839
19.2441485954054
21.4638999300798
19.5369028912592
14.5399594640874
7.71291605794469
-0.415015375610281
-9.49009371903523
-18.3620919055753
-25.2154328804822
-28.8300244879265
-29.4507110665584
-28.2157312206809
-25.9279361540169
-22.6952530801289
-18.6724029607963
-14.6161492803071
-11.3106389789785
-8.63099783246253
-5.67055432614959
-1.95431133280948
1.81763635259751
4.54727675876149
6.03782850444827
7.00562166257162
7.69207020777221
7.00181969341688
3.60917822815686
-2.14340305742528
-8.06096986219309
-12.1646863470164
-14.6080616141475
-17.0085186537489
-19.9657554443328
-21.958963483998
-21.1563424704729
-17.8486353348097
-14.2053481479357
-11.4375338934507
-8.02867142094978
-1.63300126623663
7.47999322490173
15.9362710272193
20.8145140367656
23.0773781439383
26.3686807904304
32.1988291782123
37.2783618332284
36.4932151783889
28.0913774784536
14.619298354491
-1.78084033386945
-23.7918880240872
-56.78631231892
-101.537656785699
-149.926952369757
-189.179813904755
-210.768381414952
-214.808627550857
-205.824657968331
-185.17236733851
-148.226617095836
-87.8992758991174
1.23223375410349
122.901076433338
280.51165374054
473.679156575326
689.789375068983
899.123686547479
1062.01727809273
1145.85952369233
1139.45898902095
1053.86986643398
910.927303253956
730.751743825867
527.56864128388
312.995554056816
99.3600929485345
-101.251481419816
-279.412993878497
-427.809692525747
-538.529222078986
-603.460424321419
-620.185526149894
-598.446053222448
-559.438545305635
-525.966574643356
-510.189610365327
-508.363813048512
-506.081911872331
-489.203988865393
-452.480327244506
-401.280112071253
-347.313011036236
-302.121872414464
-271.834210014666
-255.207315986919
-245.556262856293
-235.414902415025
-221.035436040538
-203.720591574479
-187.377177132186
-174.770929331865
-165.736992352631
-158.299356072406
-150.818026198156
-142.863046078004
-134.516841990313
-125.573591440715
-115.703411436696
-105.043880059451
-94.1432393275084
-83.2622731338984
-72.0665164071844
-60.2341081414137
-48.1902236715217
-36.9119804915721
-26.9504313757764
-17.8950792989637
-8.99534231913549
-0.185143329743127
7.7618123005079
14.1126692592726
18.9609910347665
22.9566553934503
26.3999676455565
28.9118836067271
30.1061470081887
30.3842860697814
30.8305015632766
32.3329820806845
34.9877842845574
38.3999262536923
42.3389467919216
46.8512200478047
51.7642769504202
56.3681927109034
59.808641150992
61.7618278843654
62.5860839675295
62.8245298421116
62.7288892593763
62.3471413890336
61.9016707970323
61.8130087157923
62.2759088115074
62.9758531004945
63.3920305358761
63.3553562106016
63.178057287793
63.2290136206208
63.5464471196586
63.9903283801002
64.6683607113087
65.9732502930355
68.0982073104598
70.6473155946942
72.9001942436624
74.4635758205702
75.5253609172302
76.4181503420635
77.077003653727
77.0979051254873
76.3065577563845
75.0714888808392
73.9266031241105
72.9773096672302
71.8648947214022
70.3581689943055
68.8366003834853
68.0576023678877
68.4893952909327
70.0020643551781
72.2162594322911
74.9802033202551
78.3467722814111
82.1374032044048
85.7431008975623
88.4965472277453
90.1945342984081
91.1516393746923
91.7616103786775
92.1333432453463
92.1981910169329
92.024806924447
91.8254808301896
91.6118477767281
90.9911549689238
89.4499211959955
86.8333778650998
83.4499054140871
79.6902569052967
75.6523538230406
71.2205316778051
66.4303396354996
61.5781031075189
56.8959125386638
52.2219913027667
47.1415301167526
41.4846486666427
35.6059078357877
30.1271778899052
25.4659507641785
21.6816222382791
18.7182112365025
16.6219919225561
15.4063395904232
14.7617159718724
14.0518675266822
12.6846673516099
10.4744091066733
7.6327841024871
4.48422979710184
1.28577054318861
-1.69876033483053
-4.10702554525041
-5.61165239600032
-6.1610298557202
-6.00624266905467
-5.44413786335702
-4.57391097952987
-3.34246668197121
-1.76707161727103
0.00108144481117023
1.86273865413214
3.91683122610976
6.29806426125182
8.8545400152086
11.0754502127521
12.4112014964231
12.6514327926041
11.9495734617557
10.5096998022166
8.34130799587679
5.35548105929216
1.61450373442023
-2.6403984890465
-7.24715440393731
-12.3469178688063
-18.2946876626378
-25.3644019735502
-33.5745886148271
-42.754625869515
-52.6605971440043
-62.9570058586095
-73.1522697166668
-82.6855304352208
-91.1360138556572
-98.300006206949
-104.019434570077
-107.996063669992
-109.890077161265
-109.637698619681
-107.591435272269
-104.265017996012
-99.9706050939447
-94.80880979669
-89.0375955094811
-83.3269688654778
-78.4894048925952
-74.9078660075099
-72.2881304795023
-70.0110114407521
-67.6665851670797
-65.1743920379499
-62.4475951052514
-59.1381536311274
-54.8700813022957
-49.7040111505037
-44.2359902047511
-39.1563222138406
-34.7437711975147
-30.8292965218762
-27.1777402668378
-23.7633103917057
-20.6349630350029
-17.6500828016939
-14.5203876117896
-11.1630869626942
-7.90426418755379
-5.24207559885495
-3.43096186196268
-2.36181595429648
-1.81475976959192
-1.69367953928588
-1.93641296864637
-2.29607780439911
-2.40268341010427
-2.12685977878655
-1.79874112284225
-1.94765552651944
-2.81843699666684
-4.21874273411645
-5.83856909823506
-7.57649991834614
-9.41234659327354
-11.0039950636239
-11.6238173336262
-10.6706377624433
-8.23786864050608
-5.06430955789264
-1.89529399415647
1.0070777686462
3.65026315718942
5.72083687261251
6.42968711161415
5.07140333560304
1.67108078974175
-3.05328140677683
-8.36901202733625
-14.0256252557262
-19.9740456352183
-25.676139719738
-29.899600766889
-31.3407837302778
-29.4553421560089
-24.6538444811527
-17.7729967422452
-9.53187485061561
-0.586585874226388
8.02385510397349
14.7712087177856
18.2124980628814
17.7779025243947
14.0342457588973
8.23255874702716
1.64582573924105
-4.71573762909151
-9.95921318583682
-13.1591179310195
-13.541328506353
-10.8716964454278
-5.64184447797613
1.16900865515707
8.57902972367195
15.9660051575798
23.0887667124666
29.8474981410471
36.0401976893684
41.3235511458255
45.3841626427522
48.1332097973523
49.7105024113613
50.2663339197035
49.7334233642606
47.8521445489722
44.4696493094068
39.8208535479224
34.4731701962637
28.9551661018394
23.4435665631308
17.8409487741924
12.1552104759498
6.75693097889605
2.22857327439183
-1.02492490456532
-2.98505521122983
-3.8609764765893
-3.79810261257869
-2.80574967070125
-0.957950023247044
1.41050588744682
3.77172435353993
5.68333793491223
7.00578243372087
7.88264558309329
8.55531326318066
9.18871395009577
9.79431743234436
10.2286223562213
10.2423372145154
9.58256521933153
8.11055942453781
5.8526384484225
2.96624060850885
-0.2788838098013
-3.42267469404318
-5.7447494268273
-6.41742839800712
-4.91022175220554
-1.34779175989348
3.52870905967349
8.78157066747397
13.6658317490287
17.6395764465674
20.1303754899886
20.5113015099876
18.4682896352197
14.3847217530189
9.23423449339725
3.98373189973972
-0.919293661062738
-5.4747900605077
-9.6361444611349
-13.0234743482198
-15.1822548669395
-16.0378735329577
-15.9592432829448
-15.3412188247379
-14.2189600258286
-12.3856884512165
-9.85796777082078
-7.10453463417429
-4.74818400721631
-3.08484660874944
-1.95536411026268
-1.04921533115444
-0.21593089949684
0.57301210006051
1.46646943701504
2.76985674450509
4.66552068761257
6.95492579108353
9.16269754512587
10.9041429688466
12.110849401446
12.9147917319118
13.4190876898428
13.6755881659741
13.8542391243935
14.2972212426783
15.2954278155782
16.8077370047511
18.4535743973631
19.8006374067693
20.640299749088
21.0001042539565
20.9808253152114
20.6770838005302
20.2560036544199
20.0180599881761
20.2927955800132
21.2637821080277
22.9179050891571
25.1404531977496
27.7922005165999
30.674117190644
33.4909449826561
35.939602932474
37.8304552413974
39.0326550642639
39.2498496296871
37.9250210968592
34.5044638626178
28.865933759175
21.4602407238074
13.0103940260327
4.13720393988144
-4.6398972539541
-12.5924337079286
-18.6993263325304
-22.107238020435
-22.7537595984275
-21.4663041602286
-19.3757780681174
-17.2446031018232
-15.3717237686865
-14.0127691414044
-13.6388302379348
-14.6216303725041
-16.734792519593
-19.1669392225699
-21.1416709488208
-22.481406272602
-23.501440634421
-24.4246997202932
-25.0572039918658
-25.0798813021721
-24.5085356566348
-23.6877015613181
-22.8360458655781
-21.7788598834585
-20.2667208623176
-18.4942997180962
-17.1335925537168
-16.7892408221938
-17.5094859526285
-18.9033612306149
-20.633925702327
-22.6025849534978
-24.6059065678313
-26.0102649384116
-26.0204470264866
-24.3433335324443
-21.4746722228594
-18.2449923782349
-15.1585982843174
-12.2943266757104
-9.79189973570123
-8.18033348647815
-8.0204820709521
-9.26769700636018
-11.1934795177202
-13.0390653095566
-14.6366643370218
-16.2402959931156
-17.7881197214491
-18.5444801139309
-17.6101584800187
-14.70929784656
-10.3227914700856
-5.06807627615665
0.832420860946812
7.29659917964042
13.6906023402383
18.6621937321853
20.8565888868918
19.800124871875
16.0327825846517
10.4653525930658
3.79704032632856
-3.38959363782969
-10.1927921408243
-15.3958562913298
-18.0884670698634
-18.2438300752206
-16.5979188265879
-13.995837044043
-10.9448317637251
-7.75280635070761
-4.86277137222841
-2.81941670673581
-1.88938295072654
-1.87003107846112
-2.3764874342614
-3.25088582437698
-4.57544089391176
-6.30498376453807
-8.03686070011297
-9.23448805842162
-9.60284243203431
-9.12558872594273
-7.76600329497324
-5.32228265381894
-1.72356536948903
2.58697843853987
6.73570611442115
9.97100898883168
12.0861315852544
13.2652709863823
13.6334426561953
13.1446681633847
11.9501071266692
10.6947357473272
10.2293617990597
10.9738820267217
12.6569838989925
14.7287974752489
16.9266734059016
19.3143262835083
21.81147192659
23.8791564258606
24.795447991073
24.1714153049027
22.0577119977762
18.5595557200626
13.5433402451385
6.89202481000627
-0.979941376825479
-9.01212978129924
-15.9503781492565
-20.8392677777159
-23.0552648569854
-22.0646229002146
-17.4788188934496
-9.53123020652135
0.575948510832056
10.9662575851924
19.8038306718041
25.7495849338242
27.8971042807998
25.6241125087936
18.8056935837932
8.17813388868979
-4.68969693732184
-17.8337132526893
-29.1470759071797
-36.1918497359106
-36.2769104893071
-27.6175991822407
-11.0574916787335
9.44316541459498
28.6015046795441
42.4941730621612
49.3973138781416
47.8982645398673
34.79250903856
6.20969998364414
-37.8886443030058
-90.0829295846289
-137.391943456966
-168.528949605787
-180.818002432555
-180.580251036142
-176.212571481706
-169.410304933024
-151.275532547676
-105.729708345501
-17.2455618034881
121.955130021559
308.092858978793
525.553378224793
749.347369572433
949.849448580556
1099.14506674519
1177.20482411107
1175.5488338007
1097.15443836918
953.353478947004
759.735852718108
532.948895669539
289.333651844575
45.2436074556321
-182.173727952703
-375.608258819231
-520.80872149846
-611.248527726436
-650.883944049873
-652.182629875895
-630.223732119976
-597.142065877263
-560.672018430496
-526.183483959423
-498.0529921038
-477.680951707069
-460.531093831279
-437.234232263524
-400.261233760531
-351.204060254891
-301.561004194684
-265.224651174524
-248.665907175222
-247.106283574203
-249.370260763539
-246.363235534657
-235.844016196719
-220.835418782723
-205.070417973301
-190.283131367364
-176.699783441413
-164.510409421864
-154.104299616361
-145.310636939922
-137.206598199342
-128.904009990609
-120.178082078165
-111.091294349281
-101.313533167369
-90.3290729293343
-78.4138865960093
-66.9947923956097
-57.6127147110019
-50.5095159048992
-44.4799258918974
-38.1803383049451
-31.3569859131061
-24.6292865389156
-18.296962391667
-11.7919543540518
-4.44995384545363
3.47854559346535
10.9433865457954
17.1987587924396
22.4656106782696
27.3193920744767
31.6505629053316
34.6025991695695
35.606088990504
35.1839917625497
34.4847165036881
34.1409088487099
33.9235902257819
33.6311263143629
34.0422715869064
36.639952054217
42.3397669376893
50.6994489069962
60.489114504522
70.8486630407709
81.6286651284134
92.639113290944
102.932074349729
111.157465104278
116.630619970095
119.84303745667
121.839210190553
123.23567424215
123.977042972263
123.908480900837
123.264958056116
122.437528612227
121.417311841164
119.734223233095
117.013410515964
113.452917775658
109.657481363328
106.108223673831
102.954085403549
100.284446004296
98.3613729988007
97.3927200294126
97.1365841907564
96.9294398260709
96.1866573441372
94.7774483519288
92.828312998155
90.274430780611
86.818336296135
82.3886007760467
77.4721335349234
72.8138297495558
68.8136325437582
65.390367545002
62.4974207606691
60.6007949644461
60.4291088854011
62.2280319420605
65.4218304359645
69.1116651883358
72.8019564863029
76.4724113815783
79.9687399948768
82.577804543496
83.428796168184
82.2953363786751
79.8246597979444
76.8943423425829
73.8442487784776
70.4394564403548
66.4840330008933
62.2324653349207
58.0895267092556
54.0537195173645
49.6835083698806
44.6625803459609
39.2573759882667
34.1087423448222
29.6507626139494
25.879537411705
22.6758907910693
20.1491553670537
18.4961732817418
17.589631247511
16.923246219926
16.0765749750354
15.1425851798314
14.565340414174
14.5806777416991
14.9608237138606
15.3569428537499
15.742597497367
16.3328722524238
17.0668738828759
17.3586189911554
16.5164650842637
14.3797872385792
11.4223791348722
8.2189127405291
4.93947607432138
1.45388244123401
-2.17755538272338
-5.52895108387847
-8.20457612359862
-10.2948209888589
-12.2964425668795
-14.5876834453989
-17.1014653406106
-19.5571630042586
-21.8941482608787
-24.339111967249
-27.0725749393248
-29.9952779677574
-32.9253835741339
-35.943889277172
-39.3955150254694
-43.5252586404932
-48.2325564205262
-53.2664439917237
-58.5809999839269
-64.3479454713495
-70.5958491591105
-76.9756920339325
-83.0070049135526
-88.5104192430514
-93.6519965359513
-98.5161805367046
-102.758761219058
-105.819698652756
-107.462739659285
-107.975555905338
-107.787092766358
-106.99956464582
-105.428555195961
-103.069566331665
-100.345516429474
-97.7755365998851
-95.4662070070157
-93.0652466000745
-90.2245466324272
-86.9755574619009
-83.5654875316952
-80.03045299676
-76.118960028061
-71.6825105525372
-66.9947793482148
-62.5375165640594
-58.5090476942466
-54.7056109510813
-50.9459325477079
-47.474994162701
-44.7817356968065
-43.0313616426358
-41.8451855353067
-40.7308002642157
-39.6054949366455
-38.7001233174362
-37.9268463076697
-36.5357832578657
-33.5881228968033
-28.7685744275764
-22.6125749088547
-15.9218832227013
-9.12387871746161
-2.3587602347966
3.8836029591057
8.49123071890602
10.3097628130072
9.00261036534089
5.24852611852892
0.102898916993748
-5.70481999219775
-11.790718860747
-17.6137365638001
-22.2395839807857
-24.7618596593669
-24.9085959869401
-23.1307058630935
-20.1069439731474
-16.2608205753736
-11.7691266041669
-6.88100173374214
-2.03539082100079
2.37643037444105
6.25816904258968
9.74196409584955
12.9317087879785
15.8084945659806
18.3749366389138
20.7644954448608
23.1175343550704
25.3974856057899
27.4338072393295
29.1572789803184
30.697908689788
32.1902467362836
33.5545055399644
34.591257129272
35.3046931146385
36.0161874357983
37.0609735375183
38.4105533225753
39.6961443748314
40.6061488552006
41.1328750927967
41.3296835855807
40.9030219143439
39.2353537623368
35.9164658659131
31.188845599483
25.7680591058915
20.249895286857
14.8191762860203
9.5758751178131
4.98932207430926
1.81356408591876
0.487743364590074
0.72862057466449
1.81922688410526
3.2563553588289
5.00220438270364
7.11024935125403
9.28165477062974
10.959907443482
11.8490462163329
12.1896851830208
12.4440071255051
12.7925148693187
13.0578127082873
13.0957098702673
13.1012753949303
13.4266906194948
14.1690702930917
15.0775533364297
15.8873510681402
16.6244652781862
17.4861216319985
18.4844888297392
19.3530992828408
19.8471625139248
20.0301975394326
20.1588938030083
20.3229198624021
20.3254162051777
19.9586755202076
19.289265040236
18.5532005621118
17.798201655438
16.7702192635968
15.2270166217306
13.2831747694905
11.3283338518376
9.61438726736996
8.04803884730383
6.45760166424458
4.96974086869881
3.97359306891772
3.68994496109651
3.89752120905703
4.18525363953929
4.42502368890651
4.8725527973681
5.78382850154911
7.05695277351656
8.36314768787203
9.58118101190246
10.9512896317796
12.7373719998435
14.834572195848
16.8308837456172
18.4388839813801
19.7418860042343
20.9620736157005
22.0940686633454
22.9087421434413
23.3151507120287
23.5754129155195
24.0609570568042
24.8559429494176
25.7221407429925
26.4566492486266
27.149326923016
27.9907854916058
28.904438756542
29.5332254418454
29.6400210686911
29.4032486293882
29.1943127445947
29.098976933878
28.7995259379547
27.9761053861115
26.6980236211721
25.2724955835254
23.7302664452205
21.6322466138525
18.4986950937162
14.3632940175438
9.77172354361489
5.23169924124436
0.806650037799507
-3.65186954680129
-7.96535054025944
-11.5103664364023
-13.7082898423323
-14.5339811159403
-14.4357568354436
-13.8033823995361
-12.6623581450075
-10.9343633138295
-8.85674886320985
-6.97364482951802
-5.70143138344066
-5.02991946905803
-4.72071758642789
-4.7016480826119
-5.1245664290931
-6.04423864844936
-7.20491655064628
-8.26791080081435
-9.19191370861284
-10.2426952151075
-11.5949405826377
-13.0487871025414
-14.2509380027927
-15.1395096225808
-16.0132456213049
-17.1042673547834
-18.1975719542136
-18.8098666265139
-18.7297460003091
-18.2424015763581
-17.7442500249912
-17.2180710131678
-16.2131411610866
-14.3412644252374
-11.6706884374609
-8.56325065900798
-5.21879595206138
-1.53805815132993
2.52472502983739
6.5785092897274
9.86224944536062
11.6760866482984
11.6903549927481
9.88340478494195
6.35135836282474
1.3172820705085
-4.70579355176055
-10.906249500778
-16.4199060625553
-20.5819292226089
-22.9591126746921
-23.2830429998937
-21.5407963866831
-18.1795182294112
-14.0847692093881
-10.1904346409825
-7.06619201351774
-4.92441390043234
-3.98071669601573
-4.62502639506403
-7.08988696000941
-11.0041758200056
-15.4710546153772
-19.7063560896892
-23.5411734422441
-27.2004129589474
-30.6476128556388
-33.3401540634242
-34.7311517582404
-34.8958048105264
-34.4728553350095
-33.9599781586683
-33.2190178698884
-31.7862995964765
-29.5707145262433
-27.049722243336
-24.7366583450986
-22.6249903097908
-20.3166069398866
-17.6351452029383
-14.9101953819428
-12.5860561378079
-10.7139523706419
-9.01943126092495
-7.43571454642081
-6.35303130531138
-6.2269633800851
-7.083865024242
-8.62750352821183
-10.828902971172
-14.1711347986266
-19.1232135379879
-25.4524165292533
-32.2712411109316
-38.8072749975506
-44.9294766822065
-50.7443654005472
-55.7909921728662
-58.9502192927698
-59.3270964506779
-57.1096989359039
-53.3651618996336
-49.0039163082759
-44.143662826659
-38.5716498137251
-32.6129284907183
-27.2237518980682
-23.1453672361615
-20.1648516322107
-17.405413509806
-14.2986310637772
-11.0972622365865
-8.42578730137774
-6.55186253438276
-5.2841467642578
-4.47514632637716
-4.32072831680043
-5.00464635916689
-6.17075566605564
-6.93014146645594
-6.3736972316968
-3.92738185529215
0.779853180527176
8.09551683844444
18.0680807397752
29.9747129745373
42.3806009218244
53.8664362974625
63.643768410689
71.3449392124038
76.3600317267305
77.7690022689384
75.1703423862838
69.4197627700173
62.2057249586017
54.7745769637307
47.2563250070722
39.3790440670056
31.6222440576063
25.2595387018696
21.1361973827486
18.6987132895423
16.5672107463865
14.0233678129301
11.6018110274391
10.0838147196966
9.22554969124224
7.8973462929334
5.48571442495388
2.74933352798735
0.990818668892879
0.573374399750087
0.668594648045702
0.527296705618612
0.575400054099397
1.8654998362736
4.5977893339838
7.69983173796368
10.0923880866054
12.0065659976796
14.5654300646775
18.106511039268
21.4711288929602
23.3249565168932
23.8824111220195
24.7181853551412
26.7513164242259
28.9960692193687
29.9120414335584
29.8473083449134
31.3404303247445
36.4029953654301
43.727752460422
49.295258652013
50.081021739827
46.8066801991119
42.5525692073582
38.8030082583015
33.6222565609895
24.31324671437
11.5840770341746
0.0744234515390154
-6.17664568766922
-9.00664531630675
-16.396588993339
-36.6171241541415
-71.2066078114099
-113.085464338781
-151.421453534777
-178.712566232819
-193.706086086855
-197.719413237175
-187.895424106795
-153.632101712661
-79.7499024510046
45.5223750609434
223.189797734639
441.047437605456
676.197703771821
899.540928155061
1080.06354464839
1189.61569259861
1209.51560084144
1137.13138601448
987.274587167581
785.085618711547
554.206736617105
309.552393859039
60.79860240726
-177.730731326921
-382.520587465575
-529.013705959014
-606.749498801918
-627.302916128041
-616.518225184584
-597.353643717283
-578.449503281552
-557.12102209888
-530.786391190485
-503.484533907626
-481.367250594246
-464.089420704736
-443.260333585787
-410.460455120194
-366.197028415787
-320.152370198202
-282.763028992154
-257.228122857577
-239.64075755619
-225.529931664821
-214.698056996344
-209.421806518796
-209.189888473454
-208.683782555848
-201.404462252438
-184.965518428379
-162.774657912261
-141.114571230699
-124.966015867875
-115.924035269473
-112.556366731513
-111.657712590003
-109.530727123477
-103.505982003582
-93.4203186198595
-81.7457809360863
-71.6914796629136
-64.7003277050776
-59.7031016642095
-54.7563639331836
-49.1418238483967
-43.6797905974647
-39.2567348975096
-35.5896454849036
-31.6563574221365
-26.977610508496
-21.9745209525083
-17.0350599942618
-11.6916156320504
-5.09729585503619
2.82439744931107
11.114907496038
18.7818502712618
25.763654216805
32.6142365912687
39.3712210677724
45.1518053450436
49.0528281108617
51.2070652781428
52.638506090552
54.1250699938586
55.5513644983843
56.5568408140566
57.5641887772895
59.765313862226
63.9972222462161
69.8820945031783
76.2742566856742
82.4094461098585
88.3231869021689
94.1215996377351
99.1844279815473
102.425757603611
103.328200727115
102.45838543156
100.837919489812
98.9713381250437
96.6835885576586
93.8176338536968
90.773375949478
88.1809704603777
86.1931796722213
84.3588958109972
82.2351642919959
79.9338599284058
77.9374016831786
76.501382891846
75.4521721442156
74.5814951020648
74.0194145429558
74.0435220545174
74.6008004461118
75.2263461297374
75.4896873613195
75.3684677552597
75.0552549172313
74.4948468723357
73.3278104766981
71.3519030190216
68.8793857482293
66.4840241752229
64.4575944186201
62.7051903951733
61.2191220578599
60.4613742387633
61.0643037400785
63.1594349777025
66.1731277559733
69.3550860854077
72.3644204122461
75.1775290871129
77.5015434548112
78.5645026663493
77.6782003668495
74.9335113500767
71.1572794129401
67.164617709893
63.2170189048677
59.3008189457021
55.7555831086922
53.3285854594491
52.5066559199207
52.9627286541709
53.8484616071684
54.5910619708232
55.2105079261568
55.806379370788
55.9502695029087
54.8418935445428
52.0826065649906
48.098579055215
43.6810489751292
39.2396491539977
34.7193198451622
30.2496838428701
26.6213672967389
24.8809672918353
25.4555179108044
27.8242716945174
31.0828196229867
34.6633181541788
38.3543197958273
41.7193300678111
43.7947308682632
43.5696924666172
40.7327054485775
35.820981023489
29.6412042045438
22.6786969161122
15.1234907800369
7.30322975037689
-0.165521549700372
-6.74734184498305
-12.3982032438424
-17.4907674686649
-22.3678374012985
-27.0828356916896
-31.5822359396206
-35.9914014223962
-40.5815816264081
-45.4833165580181
-50.565688336997
-55.6473073002993
-60.7289333763415
-65.9149857191081
-71.1434574607761
-76.1245793853448
-80.5976529327224
-84.5603331151838
-88.1512415795021
-91.350865793509
-93.931768009735
-95.7464740536396
-96.9482045114291
-97.7939138599953
-98.2462315686154
-97.9097041493781
-96.4394063738439
-93.9393291894345
-90.8550983308207
-87.5117716691983
-83.914541663267
-80.0827246778941
-76.458278565961
-73.7835901975516
-72.505546316589
-72.392666785865
-72.8200815806468
-73.360409834266
-73.9621572257386
-74.5599731886402
-74.7103221789121
-73.8055841300018
-71.6434566409857
-68.6342531527952
-65.3689596756856
-62.078117935943
-58.6365712583997
-55.051004045708
-51.7434295888651
-49.2250544396283
-47.5674826102235
-46.3551374729105
-45.1800772601737
-44.0323798545854
-43.0746094354519
-42.0981656050037
-40.3940254886084
-37.2635611487919
-32.5934551030478
-26.8435623361358
-20.5313678926855
-13.8955370713848
-7.13455195024728
-0.838851786449215
4.02992015958533
6.68945020449428
7.03207273627681
5.55212163085069
2.86952414954091
-0.572357093375281
-4.38019146280646
-7.98172003037546
-10.7064562058899
-12.1269633562226
-12.2526709637529
-11.3661780043759
-9.73843269398833
-7.55283524915011
-5.02971775616714
-2.47325467667762
-0.123103115773844
1.98001319597918
3.89861348166757
5.58498456860738
6.85256682287796
7.59738679363188
7.98265397944998
8.32494236725152
8.80807352496945
9.38211192926755
9.95894998403393
10.6161165543078
11.5069210070103
12.5738971213884
13.4425636962992
13.6566048321373
12.9884785143206
11.4848644095172
9.26952672320204
6.42682886602389
3.1270870607806
-0.226933445913744
-3.11006386276159
-5.1629418194986
-6.30966015757922
-6.56776462874961
-5.83406492560956
-3.97077317414043
-1.09114775051491
2.37646904253912
6.01221830328107
9.75215741332212
13.8063642395167
18.217119165002
22.6094517792702
26.477234811814
29.6725066186432
32.4818997589391
35.1728364681298
37.5627247516509
39.1517446648146
39.6640544882007
39.3362465634499
38.6143334856224
37.6604777325029
36.2935877761998
34.4256890689081
32.4330888091648
30.9950746865436
30.5938588307202
31.2499258807823
32.7219188850447
34.8218346064983
37.4271664339672
40.2425808993611
42.7106935790055
44.250840137469
44.5572960248092
43.6300699420125
41.5878629600472
38.5728559900488
34.845886077157
30.8231121536053
26.8556764452337
22.9565121322317
18.8464537040265
14.3266605741135
9.5436222746749
4.82121239259688
0.301864999289458
-4.08263398024685
-8.21992796109714
-11.5260383038904
-13.2373091495781
-13.0580584380143
-11.4392724626705
-9.15512606152063
-6.67883107011645
-4.08995147750589
-1.55972811571697
0.285201450677599
0.673413804470327
-0.640139686325492
-3.14502803522119
-6.07412212178475
-9.03921453941513
-12.0745839270718
-15.1191857339668
-17.6564065588254
-18.9953633619227
-18.8517709804619
-17.5259497743384
-15.5037498323028
-13.0115088919075
-10.0490023837458
-6.76916399347618
-3.64591321877964
-1.19198487343602
0.415047068196245
1.35283317693626
1.85753463580812
2.01918262282151
1.86958098730015
1.52356400271568
1.09581988235957
0.503399172093687
-0.512182246123778
-2.09675850783712
-4.07779270619162
-6.10589608083018
-7.92938729504855
-9.3893127350327
-10.1287614400575
-9.48759937430479
-6.89884417533366
-2.43978103718408
3.11241876759565
8.84073116342319
14.2389212511961
19.1358611114532
23.1784629509049
25.6453973619762
25.952183712234
24.2863370370671
21.56194866908
18.6680184027764
15.8429034054291
12.8544377508592
9.68193412489084
6.81177447979061
4.79210631529424
3.64628694296183
2.90817929629742
2.23533568232507
1.83078395307387
2.1722869304408
3.42796981119453
5.29070277830225
7.37855968148948
9.62941780427377
12.1892938277457
15.0031170962464
17.6922924769421
19.8736307127112
21.4638355180196
22.5591944259727
23.0935272899769
22.7934567875765
21.5282568059834
19.5811960177468
17.4528499152314
15.4439572837117
13.5752733398403
11.9341260790255
10.9179588932555
10.9454726116807
11.9361745547757
13.2409836674577
14.179833096186
14.5614806696745
14.5667116793851
14.1996929779283
13.0840445310039
10.9234982346243
8.03435638855733
5.19683919498485
2.91811088621834
0.976301134037442
-1.20149624873677
-3.80479762730075
-6.45438346354868
-8.74622866616819
-10.7660345922703
-12.8771950045448
-15.0566421164634
-16.6624284370133
-16.9727356630158
-15.8535951791218
-13.7657724394348
-11.1771715038622
-8.17111152620108
-4.70662538871559
-1.08241494750607
2.09806210933637
4.4494737116062
6.11342107315373
7.427598569016
8.39596960838094
8.67156462136663
8.05993446869523
6.827553534652
5.35702204283217
3.60319403962812
1.127346200756
-2.26185296017248
-6.0788567166088
-9.54839080347855
-12.366845977116
-14.8788853822416
-17.4381380915486
-19.7761947581175
-21.2074229338481
-21.4209020113524
-20.8440408453
-20.1070749341672
-19.2916186327484
-17.9137653613277
-15.6359000909366
-12.7756999388944
-9.97893814441765
-7.52216972807582
-5.15903933926424
-2.66391359617874
-0.30694265952463
1.36305636291656
2.08337283661643
1.99204835399714
1.1640099756857
-0.715263405156549
-3.99507457931177
-8.45016019372142
-13.2567574168923
-17.6319773701373
-21.2938260476683
-24.1219399296547
-25.5299571898553
-24.5578984617061
-20.7839300676104
-14.978214477131
-8.5945463074463
-2.61548449282511
2.88094323643669
7.96140695349334
11.9677609663703
13.8001146719955
13.1084229921101
10.8754338545673
8.53794666398145
6.61825399562897
4.48989611516464
1.4999793752889
-2.02039973976428
-5.13581823169458
-7.52695400075199
-9.90579805039514
-13.0387847627054
-16.6237159053259
-19.4781229640588
-20.8099787029127
-20.9614712721344
-20.738470527119
-20.2927197302658
-19.0625901352873
-16.8119634084525
-14.3102567021044
-12.6750456702487
-12.208638805487
-12.2625815485874
-12.2955723457525
-12.6793933439036
-14.1400703933428
-16.5810234468901
-18.9146051652957
-20.1964646139919
-20.5741185750328
-20.7647070140599
-20.7649135155609
-19.6008399974551
-16.5742820526263
-12.3904535203634
-8.58405377885011
-5.88109575895554
-3.62018117115097
-1.01868304342573
1.42968623793392
2.42948997827497
1.75337070288939
0.991247207675311
1.92399637947641
4.39453539011797
6.44100603506081
6.70194272326456
6.0992709217676
6.553276614711
8.27915718378507
9.24965746140745
7.86113556022468
5.7157175964171
6.9662823487314
14.6453241443154
27.9608030715374
43.2779792694781
57.0938867444314
67.3856546379234
72.5580420933462
70.7637645831483
61.6073131565668
48.066916502401
34.8280517010874
23.219149160023
8.10058071119117
-18.5722527929226
-59.6388596382077
-107.786956081198
-149.042066262397
-171.783444991054
-173.320117111153
-159.202202054112
-137.431138686698
-112.702578393656
-83.0557376349827
-38.3710875124953
38.5591678985009
165.359762436781
347.630615519419
567.997980213656
787.168610277238
959.956958212351
1056.22456386014
1071.32655194496
1019.50189561528
918.32975269116
778.311744851074
603.918783052369
400.662004971653
179.378130360876
-44.7008431529163
-254.123023826859
-429.998383313722
-554.233850377543
-616.468471225015
-622.253210453807
-593.751920353477
-558.765919669321
-535.04458497017
-522.556454619534
-509.619998347333
-486.14468696974
-451.781461948938
-413.490038111917
-377.792147522604
-346.44896421538
-318.395108916201
-293.568348839975
-273.641026590753
-259.647601983672
-250.144369896543
-241.996441504342
-232.298520300047
-219.205293293694
-201.780958094824
-180.434083941231
-157.942517405513
-139.062330138066
-127.684325317399
-123.689344019384
-122.850109528611
-120.279902675773
-114.124490398896
-105.971141190659
-98.1131570158588
-91.0306075415881
-83.6104789364744
-75.1262114041046
-66.2102424333392
-57.836756174377
-50.0150796228116
-42.0225761764923
-33.7216318463622
-26.027173416319
-19.8233688084889
-14.7797840300911
-9.66597345464745
-3.75857644798849
2.50874955506075
8.47686380104847
14.4957189651063
21.7873008735424
31.0680926029769
41.6789761612078
52.2993463535338
62.2779232703008
71.8670637272767
81.1305581211816
89.0401779617547
94.0297871960647
95.3987050435389
93.882051813254
90.7680393327768
86.720974504847
81.7075689726462
75.9200257614386
70.3396302945067
66.1415768435972
63.6814220415942
62.3169902577815
61.2292521736459
60.1958890543719
59.4612740650732
59.0662859642763
58.6145611572942
57.7463703929203
56.6113075117497
55.6799701127113
55.160089645524
54.7897904057022
54.2257156117666
53.4434489185688
52.6148714464808
51.703442894368
50.4153884265648
48.6199994489118
46.6597408306703
45.0927375669053
44.188909051318
43.8544370951891
44.0768116152955
45.2466058453089
47.8445658583468
51.8398537709615
56.5785418992039
61.3366263056743
65.8439692986364
70.114437153359
73.8368340567672
76.1926334081725
76.4444948569529
74.6354026877652
71.5530418209112
68.0051163670348
64.2856885871993
60.4274758894416
56.8082673824264
54.2339724740836
53.3160941409618
53.8892080018068
55.1863014583479
56.5601738234134
57.9011753654125
59.3386753965451
60.7233841545652
61.6047134089864
61.7154605505317
61.3054830116502
60.881184925
60.6829021918717
60.5439043965436
60.2519095033365
59.897760330571
59.7679238916162
59.9733627488245
60.3401625639146
60.6986622927202
61.153563346323
61.949015906374
63.1021291709297
64.3011163511418
65.2167846401327
65.8281055533323
66.3475808799006
66.8680165313321
67.2242041225096
67.2748105185672
67.2382143368282
67.613068668667
68.7238974867163
70.4056752565788
72.1775881590416
73.6652205477312
74.7524640916425
75.3102046122103
74.8853677485156
72.7815806657355
68.4875676495502
62.0044832330468
53.7562780791034
44.240553531381
33.823554350392
22.8556444516678
11.8944341811433
1.71602012698882
-6.95564203839518
-13.7744045934141
-18.8827989238759
-22.7494023750664
-25.908380937513
-28.8269507710262
-31.9684814938507
-35.902229214214
-41.2402673716666
-48.3526352259943
-57.0833460015067
-66.7677638696695
-76.5912271674705
-85.9672548795323
-94.5755065925065
-102.088759938508
-108.006765566481
-111.900782251451
-113.834822362743
-114.42377237403
-114.360476187293
-113.897119357986
-112.871937793981
-111.224263032552
-109.314725939598
-107.598357411409
-106.060818769491
-104.213761899463
-101.763796391692
-99.1214923491235
-96.9847687638959
-95.3899554957179
-93.4599277561162
-90.3841995312625
-86.5991433065452
-83.6297332924525
-82.4586410291404
-82.1172538893541
-80.2154594096837
-75.0850248884816
-67.3397335422019
-59.1697257484071
-52.1221638646679
-45.7534474501553
-38.5201720929384
-29.7898114236572
-20.7245190668059
-13.203400208818
-8.14674374974601
-5.07155711877191
-3.09937938879481
-2.0099707760736
-2.14615460240353
-3.53710289546467
-5.4989823349853
-7.20774886761538
-8.45050727511231
-9.6044007332726
-10.9512280521802
-12.2621462879024
-13.1471316199076
-13.6208169049804
-14.0827876270624
-14.7330058923912
-15.2127780139069
-14.9663554873151
-13.8723472905079
-12.3469028943925
-10.807353712555
-9.19253780121574
-7.1282358484665
-4.48001700055169
-1.56376171737124
1.23267833264229
3.89345025653969
6.70406219689735
9.77415666962338
12.7723292833965
15.1852166421088
16.738061420985
17.4605312939746
17.4020827148279
16.4603847968383
14.5812346870031
12.0375636007153
9.36662146646232
7.00476325142734
5.06835859956244
3.5284139685816
2.49521869767666
2.19451028109539
2.66011657302445
3.58197383793623
4.56234310214916
5.48884070946546
6.56200471126878
7.95462275093634
9.55154380151764
11.0999325415936
12.5536650035718
14.1481499147392
16.1131572942222
18.4149469126871
20.8680188122391
23.4486963436333
26.3672210219872
29.7825126640132
33.5294282193125
37.2153900834214
40.5499283731708
43.465993957359
45.8911056670677
47.5246754218713
47.9908737971641
47.2282635015862
45.6253285657761
43.7042780517197
41.7272348377975
39.6957026055256
37.696070832557
36.0857883399705
35.2252965855503
35.0729988579099
35.17069856064
35.0678601308803
34.6790031537882
34.1584628175351
33.4952180431904
32.3771807771611
30.5068219601345
27.9553476740757
25.0947827482342
22.1982198158853
19.2218047331146
16.0308063327177
12.7474491791503
9.74813860298006
7.30750282378906
5.34873519160426
3.61060877027319
1.99140888249953
0.610805050021639
-0.47562514735413
-1.49973589054494
-2.8092365116513
-4.49337862903801
-6.27531639525673
-7.80379159978041
-8.96898431268063
-9.8521148431534
-10.4087029352978
-10.3349535655348
-9.32246652303783
-7.39498527034949
-4.90924547651956
-2.22585231888761
0.541295920294175
3.41726490570986
6.28963364533448
8.84693207564437
10.8055426974749
12.1176019431261
12.8978976032683
13.1911315060874
12.8966412887906
11.9294247582553
10.3693338304604
8.38192061970776
6.02652893426731
3.23088665596372
-0.0221801668632793
-3.55653936086494
-7.12193696646391
-10.6281512525437
-14.1779442988824
-17.8365057853683
-21.4302265890845
-24.6472136199059
-27.3274893602657
-29.5793713954038
-31.5732071249248
-33.2727990079661
-34.4425242096779
-34.9164583262014
-34.7877620471299
-34.2866176628724
-33.5113823423524
-32.3530315638577
-30.6993764510044
-28.6606807217296
-26.550790736644
-24.6675255533417
-23.1364264446841
-21.9599213449954
-21.1451871948375
-20.7160695013661
-20.5964048610232
-20.5189371009606
-20.0686833502437
-18.8161293183451
-16.4432560109398
-12.8327156028502
-8.12963464778975
-2.74287274245402
2.75477668028106
7.77090439830112
11.7564658379055
14.1665877815535
14.4727247448974
12.3586355881701
7.97739385573227
1.97433451411923
-4.82465034408132
-11.7783387382307
-18.4826497187774
-24.5174693545264
-29.2900381503858
-32.2716302509491
-33.4080263325562
-33.2051751896385
-32.3421396714056
-31.2351961361366
-30.0388175075725
-29.012444761497
-28.7029092070227
-29.6208787790137
-31.756196611604
-34.5247271007461
-37.2260941753132
-39.4611375523079
-41.0300641453255
-41.5298208312315
-40.2876444401131
-36.8402645126769
-31.4273391929251
-24.8830960931297
-18.0258858329353
-11.2597876835889
-4.81532044107342
0.780421042263651
4.72293364577054
6.52260206024865
6.47894537475843
5.43727348376794
4.09348527895113
2.65837474842819
1.22036549883638
0.253778160461479
0.544093553136726
2.56148804540422
6.03419740852846
10.237556909971
14.6335669214792
19.0943774297277
23.5132975830493
27.3959286705798
30.0244310896445
31.0282512264929
30.6693876342614
29.5175365786465
27.9450112163846
26.0393611464553
23.9385905929174
22.0492688042907
20.811040763192
20.3099072908248
20.2508817478692
20.3212120974225
20.4733302788946
20.7995099342121
21.2376229279234
21.5567687046926
21.6503643511042
21.709212161389
21.9960584634324
22.4977564484981
22.9252287650244
23.0807089910546
23.1144932442858
23.3283632548373
23.7832455161655
24.2320566352631
24.463673737852
24.5866186593939
24.8512427108592
25.2230461499046
25.2634465617528
24.4887058341267
22.772173647757
20.3254294457446
17.3607675103019
13.9304755807455
10.1425796680695
6.39759929053059
3.25044182141724
1.02847373511701
-0.308711661242867
-0.90507957243765
-0.733754791153544
0.290562268172721
1.9921852204716
3.93445516236012
5.85012069085275
7.96680088490228
10.7346769953227
14.2220256706284
17.9306672852149
21.2898417404135
24.1993121363628
26.891288785653
29.2661882069445
30.59968650811
30.0996915174188
27.6926786362537
24.0673826576385
19.9125923528512
15.314351382269
10.0724633926006
4.48509705592851
-0.492239763804122
-4.00475535837941
-6.03765193371486
-7.17926663272063
-7.71875040874871
-7.30141021646694
-5.66991595072724
-3.55537766538585
-2.4668144075529
-3.462641484425
-6.31882811400727
-10.0915665195919
-14.348712819464
-19.4611511869563
-25.463246782983
-30.7902825703753
-32.4999085012195
-28.0286293937084
-16.9619553511008
-1.41915103540216
14.9360633439152
28.2949484632374
35.8337626002472
36.4949657003292
31.2527743150008
22.3500982852812
11.485513286814
-1.86521585585731
-20.3960221717322
-46.8577164122676
-81.3534929336852
-119.942362755484
-155.285093073287
-178.887493754419
-184.317340411923
-170.599828530523
-143.728915142269
-113.337369099064
-84.0258458217602
-46.537736407021
22.483399789621
147.794065026278
336.439493555395
566.550432512253
794.172509828071
974.157405854428
1079.73776596637
1107.53297953553
1068.07949685706
973.31300761284
831.502159242017
650.03772330218
439.118373201464
211.667170992798
-18.3140373620999
-234.972859377553
-418.749981529361
-549.259713294691
-614.971947890074
-622.84547142887
-597.694184643592
-568.827860293697
-553.441857331726
-549.897128217386
-545.229653023695
-528.739138632711
-499.596312799646
-463.934628672389
-427.15845388552
-390.02480492732
-351.196118381098
-311.898838638487
-277.171737880673
-252.672343934332
-240.428582265468
-237.177415689233
-236.095322749814
-230.297044845589
-216.070746142056
-194.468318110585
-170.51176075331
-150.172361277389
-136.72232743637
-128.946763182563
-122.598885816735
-113.857253080273
-101.868110912428
-88.5121622626614
-76.2254955863162
-66.2111035919588
-58.3646181605563
-52.2119810793797
-47.4511640833838
-43.7206818769079
-40.3392302450373
-36.5876045666625
-32.1563401150071
-27.1049374818883
-21.4050412665939
-14.7621440147921
-7.02186123910726
1.38036326886781
9.57591222599361
16.8825676879444
23.1357880329017
28.3885267308252
32.4946838957211
35.2200566207004
36.748747492513
37.8442480844091
39.3393172150391
41.529433301216
44.2094086356267
47.2686958606616
51.0295927447286
55.8587336834992
61.5671564537716
67.4341216223266
72.8984046937202
78.0772918611507
83.4596572062574
89.1547233807937
94.6353473149487
99.2792986384915
103.002971829266
106.18608415311
109.00407649208
111.028743308337
111.595787862593
110.469241132567
107.998163558269
104.641669337128
100.517920820604
95.530206249527
89.8378836583813
84.0194051458772
78.7209948626437
74.252566230951
70.605423293612
67.7685644620512
65.8511804383129
64.8504366415089
64.4361033773386
64.1114236020512
63.5845278692536
62.886376847411
62.114529346003
61.1897811103748
59.9797805386291
58.6113081317377
57.4971753715356
56.9680622408629
56.9447313329849
57.0679664689335
57.1243412146656
57.2276584711337
57.5459785371817
57.9689654758716
58.1851657449165
58.0811262243055
57.9262617301374
58.071727628447
58.5266851905917
58.9436689310163
59.0212236868983
58.8025377284506
58.5039696157499
58.1333741394347
57.4263900687922
56.1930250944194
54.612774719835
53.0780668427544
51.7758137943619
50.5335577101089
49.1041316710274
47.4980300256057
45.9391151677071
44.5410119188819
43.1691577689536
41.6821512896239
40.2162572902684
39.1098318496385
38.5488866553478
38.3937994320256
38.4071567365136
38.5668890615271
39.0403806246331
39.8617401256447
40.7660784445233
41.4302498885266
41.8160246874268
42.153829922073
42.5677339129004
42.8195620635241
42.50571791689
41.4569421770204
39.83458034498
37.8228877861423
35.346062844254
32.191826802524
28.3683986130204
24.2007297613406
20.0129310240191
15.7926646354865
11.2599428807823
6.23381299085529
0.811231079201251
-4.8554205592158
-10.8437908692392
-17.3858911569746
-24.5063955315817
-31.8612245881903
-39.0208563232968
-45.8559317246244
-52.5337259325192
-59.1366265407481
-65.4126914779953
-70.9980918638247
-75.8250035837978
-80.1720348856841
-84.2786265492601
-88.0294660766148
-91.1441455697744
-93.6532926603368
-96.0482824711675
-98.8797635021549
-102.265211169114
-105.873447044281
-109.349058989434
-112.599357735857
-115.578241759354
-117.88196459413
-118.741621932592
-117.512400199809
-114.140734619993
-109.114256365514
-103.015060375249
-96.2215813380902
-89.0366440228551
-81.9482425203282
-75.5906051656257
-70.4015899448581
-66.3790163214137
-63.2099315336657
-60.589702994352
-58.3645389830897
-56.4162846990417
-54.5398953237851
-52.5113130794985
-50.232241950682
-47.7279069673085
-45.0032293497435
-41.9796312229207
-38.6171050765582
-35.044272944109
-31.4881061320169
-28.0752450217905
-24.7736216351069
-21.5595251871118
-18.5695451043518
-15.9931148925271
-13.8176344115698
-11.7780205683584
-9.63009078746182
-7.43803351820563
-5.51355457998594
-4.07014236391039
-3.02018100342912
-2.15748144031874
-1.4581962145944
-1.06833450240821
-0.962159391957139
-0.721053266738451
0.224967820459913
2.12078385089168
4.7112758610912
7.54600924175251
10.3636831500297
13.0937333964176
15.5376134394381
17.2211028031632
17.6857053830873
16.903160944397
15.3103064661614
13.4147259405733
11.4343224763297
9.35916006780781
7.27737137942151
5.49815726634709
4.31064397728871
3.71167277127824
3.46973315697875
3.44140822931541
3.72776775115349
4.47683353117441
5.60145467284998
6.77997069878806
7.72996618616712
8.40511859543639
8.89892462742138
9.24069839966374
9.39148364717551
9.4427806152419
9.7205369281273
10.6105497824131
12.2872470298205
14.6486734281632
17.4856601244332
20.6298771586144
23.9131779989817
27.0805200616823
29.8751321846899
32.2433514209235
34.3820356704866
36.5202784395211
38.6804891319353
40.7046924272297
42.4738001094146
43.9730089205392
45.071629743112
45.3302956040791
44.2007266102289
41.5051440528181
37.668588840548
33.4080371013441
29.2248563184328
25.293712192293
21.840567584423
19.460652428309
18.8723436882074
20.3148542895619
23.2905350763964
26.9811744887847
30.8667104733071
34.8381541981763
38.7286902353499
41.9077864864604
43.5002472882884
43.0164705918404
40.67787652988
37.0991222160016
32.752173550158
27.8402440971741
22.640154477672
17.7775390592828
14.012189519695
11.7442074201219
10.7923358326998
10.6527102795405
10.8974134724884
11.2964885270454
11.6661704024494
11.7715036507724
11.454041510334
10.7942601115913
10.0604585014511
9.48534025866966
9.12144724988126
8.88375965350872
8.63270808000405
8.15830221590335
7.15764948464874
5.37257428087399
2.82384111439646
-0.127981963048054
-3.00635021071488
-5.48308678025764
-7.37717365570889
-8.44150788372287
-8.30657599904278
-6.76305114952046
-4.07980295505575
-0.921260430483628
2.11632627573921
4.83737140323635
7.26513317904871
9.1980737781638
10.1015601156179
9.5198163951971
7.52315972421442
4.63575484181557
1.3298810074605
-2.28333295018489
-6.19318251716854
-10.0266712595115
-13.0307708673686
-14.5961286709904
-14.7324400658417
-13.95476029827
-12.7573609346321
-11.3227080613331
-9.75364200563066
-8.41522939291422
-7.8429985522463
-8.27044681984755
-9.35983717536855
-10.4912794534942
-11.2769442770709
-11.7107989561596
-11.8554936931769
-11.5513775663181
-10.5542224208467
-8.89829212133456
-6.96206876040963
-5.10589704151
-3.32673997608016
-1.36845007836004
0.855979178614842
3.06701773043385
4.87946565472879
6.16440045207032
7.05186139834718
7.61561124998778
7.70784643450113
7.19731358217808
6.30277565779303
5.5575670421061
5.40015344129043
5.85692619996701
6.65553624155052
7.56243943398033
8.49539358792833
9.31796187780879
9.67723641591946
9.18501202051342
7.76012578297016
5.70482105208048
3.41218509759443
1.05959821499621
-1.37189403937835
-3.86252525954309
-6.27990948185558
-8.57306175293601
-10.9236350170365
-13.5718261326199
-16.4852648187404
-19.2936971919944
-21.5984237361063
-23.2828833759571
-24.4493203382619
-25.1047617048266
-25.0571494177527
-24.1952148593449
-22.7827167641289
-21.3307938217479
-20.1403558623115
-19.0531165749228
-17.7190302285016
-16.0560603085675
-14.350192657574
-12.9093679486938
-11.7420075552198
-10.6683656420149
-9.69114283860856
-9.11620817606378
-9.25033119524937
-10.054844952368
-11.1830105976101
-12.3327001950004
-13.4670093280453
-14.6683638989391
-15.8767689348697
-16.8696410409242
-17.465316999248
-17.6231018435386
-17.2929983185911
-16.2605753760076
-14.2656418432301
-11.2917303724018
-7.66690597212829
-3.85875624534864
-0.255454357076388
2.78425425415247
4.76076682215527
5.12971136582814
3.71143539949065
0.970648838335364
-2.21903810036531
-5.10918425196553
-7.31907452879
-8.58016944374276
-8.44631905807503
-6.49087893911116
-2.83260959008288
1.70136458094564
6.09993786412227
9.84815899623504
12.9942844383304
15.5762323720577
17.1838813675971
17.2545035108471
15.7372414803588
13.2535941807866
10.5057205991701
7.65673911417528
4.46184125253552
0.969212953901319
-2.13655822913537
-4.03362001588422
-4.5146121816779
-4.07717664065741
-3.28353092844259
-2.23374551544995
-0.797578426666362
0.786588702897006
1.83550399681646
1.85578350657273
1.10463699621527
0.343943377375396
0.0804310766758363
0.236752737295781
0.612198975726322
1.43963887318445
3.22662739208429
6.05200851775248
9.26782624814576
12.0694382780285
14.2564176791202
16.2199715279674
18.1718619197186
19.6168821740932
19.767246829814
18.3802539255771
15.9534164770577
13.0535513266529
9.68801515188951
5.56034887796367
0.870468770316316
-3.42605628853501
-6.30746516069428
-7.5120235471755
-7.52069408834213
-6.8087229125297
-5.38687243449573
-3.19121323193029
-0.689971483151771
1.23614990414507
2.09355631340456
2.24818167553799
2.44205291197859
2.96267027897488
3.5210045656078
3.93715340880933
4.64119690938839
6.24607361564923
8.73057278455374
11.3631651967185
13.5584317227662
15.5918302602091
18.2032848601571
21.5231124282356
24.6524993965843
26.4365079535274
26.4829958468427
25.2099455055038
22.973728005752
19.4851419155321
14.3027564024857
7.81611897945154
1.57671493413368
-2.32810358356127
-2.20180733473605
2.57192637764939
10.9617497238758
19.8718913647604
24.7404558305784
21.8764630084614
11.4151595325821
-1.87930277771915
-11.6363777801213
-14.8885804975749
-14.8837464281683
-19.1827035482874
-34.6862346711461
-63.5221937337646
-102.069478662573
-142.393312241772
-174.676936471106
-190.663934363616
-188.093867938563
-173.266727379086
-157.175509472743
-144.758286111262
-124.751377153649
-70.7350642482527
43.6437038876434
225.276783352704
453.512166941833
689.98851530683
897.557952783235
1052.69708020421
1144.18821307643
1164.9901922872
1109.1253671693
976.946864231018
781.049008097622
544.187147339275
290.198016827248
37.1310823302742
-201.157663118834
-409.078602245115
-568.484738435778
-666.276810657872
-703.363604685016
-695.286616962958
-662.989627525467
-621.970961826235
-578.825971686138
-535.823647157309
-496.351703068333
-464.91102544663
-442.736562566091
-425.208864389859
-404.811720833848
-377.069933537386
-343.899589695294
-311.727515761789
-286.647524642581
-270.701506723723
-261.339121618666
-253.339512069154
-241.548002849202
-223.2838867534
-199.617385654754
-174.738384411277
-153.401494293528
-137.96570037109
-127.235249111023
-117.946617604854
-107.439365254624
-95.1797456438661
-82.2314001222205
-69.8001649057274
-58.4462327977435
-48.3086748676545
-39.4992347544577
-32.025414754141
-25.5708351926527
-19.7183988593265
-14.4640147221842
-10.2945199809605
-7.5896722500909
-6.03109642416287
-4.78164379155422
-3.26070123071332
-1.57979105818785
-0.115496132475883
1.23059782999208
3.1621504037891
6.3654938097302
10.9140141564674
16.3924754676427
22.498213217263
29.3039127317128
36.8522758967785
44.6310660751965
51.6313975013136
56.9715241571274
60.4095285475217
62.2603210333722
62.9601243210763
62.8534866723886
62.3686422257973
62.1988113643198
63.1212767248265
65.5830517566578
69.4880331134458
74.3744868313847
79.7366637567187
85.1659052819529
90.2920926243474
94.7477689459282
98.268167232311
100.795019002535
102.429467587746
103.286167532712
103.426379135375
102.924711052355
101.943647815594
100.704911947395
99.4135875954771
98.254273000516
97.44924649717
97.2464729270139
97.7821172714015
98.9415305609997
100.374592210852
101.65566288033
102.43404551899
102.478600109226
101.677539233803
100.083725248317
97.9710605151326
95.7919446259586
94.026005162594
93.0455359390661
93.0903723880732
94.2859890441223
96.5919741490477
99.7169028379652
103.160579799477
106.425577418662
109.201246758021
111.306078733801
112.460967455385
112.209840028679
110.155877234173
106.283050607027
100.988514857162
94.7821717798775
88.022006793755
81.0087887637366
74.2843712393939
68.665254226066
64.8274122408681
62.8220509845584
62.0434782620816
61.6857616624621
61.1894031260191
60.2442178426923
58.4911394844676
55.4311368675938
50.7521721401441
44.7082929735713
38.0597559570987
31.571746696327
25.5722326877761
19.9824488647556
14.686479397088
9.77054237045596
5.40603567388607
1.6178920572187
-1.71471270321266
-4.61870027882321
-6.85891323011928
-8.0563662523665
-7.96035275578615
-6.59095137557723
-4.16266513896277
-0.946309570489518
2.77830923574793
6.71204776315223
10.5784114632885
14.2080489660515
17.5479614066962
20.5579023018199
23.1112638631258
25.0179842889038
26.1268655032135
26.3711862036053
25.7243137162168
24.1738329988635
21.7879129891215
18.7821439533319
15.4492804885216
11.9778056055342
8.33844542883141
4.33489642564122
-0.298450420243704
-5.90327630307277
-12.947183960808
-21.9031909019246
-32.9235789373937
-45.5931861068125
-59.0603238541741
-72.4515541836973
-85.1387883462698
-96.6053942105881
-106.178224342994
-113.098106071304
-116.982514556299
-118.181552421215
-117.562451300837
-115.89921895145
-113.524991119925
-110.60300546703
-107.621043227868
-105.43136155955
-104.710360117006
-105.434160178251
-106.96821073778
-108.644541797916
-110.14164585606
-111.271606355514
-111.543029086067
-110.151504387896
-106.50882050524
-100.740043595418
-93.5936716609912
-85.8838342396676
-78.0783550162321
-70.389939161105
-63.0929126614698
-56.5733029221819
-51.0406526030468
-46.3010925314291
-41.9184393919442
-37.6076050209014
-33.4431230634374
-29.7202094460554
-26.7030933696203
-24.5363905826019
-23.3001610398567
-23.0043173807032
-23.4757418035741
-24.3192333518019
-25.0761940228705
-25.4379348676814
-25.2840178390782
-24.5495822007552
-23.1561133157446
-21.1315350373765
-18.7357159880661
-16.3401283665194
-14.1189819817865
-11.8992074691643
-9.37536200418775
-6.46375578003891
-3.39270399488835
-0.445568777347264
2.30491918947185
4.94423706079199
7.44490315837295
9.56294854470606
11.0657509040361
12.0155469573525
12.7483001086938
13.5641627980335
14.4949705129648
15.3963047972901
16.2000450740108
16.9964700000421
17.8835034245414
18.8378407998544
19.8033363649389
20.8606615985769
22.2110579323452
23.960844588633
25.9784988700154
28.0113188651824
29.9028861158126
31.6219480594646
33.0858232265588
34.0651871050853
34.3593570572373
34.0418665168128
33.4254180426954
32.722683670856
31.7831643083944
30.2293883460514
27.8412477789122
24.7397123069049
21.1842499452028
17.2880624151356
13.0427815574255
8.61909035462331
4.52485864531896
1.35870422231845
-0.602850483692492
-1.53741391033457
-1.81702201854812
-1.68907017962027
-1.23328142359788
-0.534182741410534
0.247293754882197
1.02389934511504
1.93038497656642
3.23051798937898
5.06235194587024
7.30944498448621
9.70894586030398
12.0079600867222
13.9722864202869
15.3221315555257
15.8059441877103
15.4122391221166
14.4619862502656
13.4176943434985
12.6007633593886
12.1394880825112
12.164501807298
12.921231420006
14.5719378300644
16.9093828588667
19.3913004272616
21.5278997043499
23.1748479162598
24.3588895891447
24.8545773197508
24.0902906712341
21.5839725524454
17.4318953850149
12.2655109769703
6.72848551654063
1.11959216536563
-4.37291067673515
-9.19810790059943
-12.4292320838516
-13.355847506208
-12.0510780003967
-9.26663411557324
-5.78663655980463
-1.97945766256407
2.02067869757474
5.87973124420398
9.03409022282308
11.1422337808663
12.4316851505862
13.4673846719114
14.594971660933
15.7070100378236
16.547867656677
17.0980639657249
17.5360444160344
17.8852351332043
17.8830349436818
17.2876484029952
16.213593238073
15.0111604198242
13.7975557224244
12.22815720812
9.81909918109966
6.44388598839245
2.41705368461959
-1.88484925577575
-6.33278140075629
-10.8779559243001
-15.1562775126216
-18.438071787756
-20.0717994424942
-19.9497144126283
-18.4958944872037
-16.2499440813498
-13.547232201803
-10.5732836201681
-7.55610815240428
-4.74701449954586
-2.22127817212302
0.172836741643863
2.5914064522992
4.96528528322639
7.03821019600343
8.56053192479013
9.3152258650411
8.94499824064729
6.93110336195761
2.94931811211974
-2.70885921781679
-9.17863293033439
-15.5694953620548
-21.4315572356238
-26.6219678192114
-30.7996408509824
-33.2708379125212
-33.4783611413459
-31.5771660818364
-28.3588847405686
-24.5527340366311
-20.3015695458094
-15.4055317581563
-9.98152223924186
-4.68686960780637
-0.224462008906301
3.24710875587776
6.07930687986454
8.56691223430584
10.5966506218256
11.929161307768
12.6793781615526
13.31188361516
14.1321697131361
14.9345840850617
15.2612185026419
14.9185566708896
14.0723799612086
12.8294799091801
10.9240661953527
7.99655695317159
4.14265171642064
0.00251639093100309
-3.77855906543194
-7.07169719621417
-10.1260894814647
-12.9664217869167
-15.1141204833172
-15.9994063677627
-15.5429803128375
-14.1784157527956
-12.3138924743565
-9.93871855412925
-6.85947393055002
-3.21830347370203
0.402750282962216
3.4238663762327
5.68510888711585
7.3445840078296
8.47095428370103
8.9117959132647
8.57459970135177
7.64997308500314
6.392643103607
4.7331536190071
2.28962741229307
-1.16347273918022
-5.35244743236597
-9.7388715131119
-14.0159359626772
-18.1820459985286
-22.0772144943672
-25.0444938373285
-26.2921263888846
-25.6276618960395
-23.6817535846864
-21.3095311344472
-18.8657643222821
-16.1980494583918
-13.2764709574588
-10.5658514601038
-8.60719738952907
-7.34391148343784
-6.10394769000938
-4.32384111965873
-2.14069688221311
-0.138260871292864
1.39095894840715
2.71530835839785
4.16830229833813
5.61115465538989
6.60872447295871
7.08381790698831
7.5362588656694
8.47134963592113
9.74899559338593
10.7116927329096
10.9530671317141
10.7520433389929
10.6367072100334
10.6910224539619
10.5554738148544
10.135344758177
10.048593371264
11.1356700241143
13.5674250548975
16.6427313852314
19.5219733729165
21.9808153800656
24.290812974089
26.4911342511493
28.0832982237715
28.5679858932031
28.0890714394871
27.2945343503413
26.5608356668024
25.5632860042207
23.7021122007909
20.7671067825649
16.9643889543009
12.3656965469945
6.66765126433889
-0.29159544450085
-7.92623683068386
-15.104716341578
-21.015093134411
-25.6177923337299
-29.1037506490622
-31.1093234627507
-30.8220220306182
-27.9470688264233
-23.2865175423324
-18.0782749211687
-12.8316215844304
-7.11430311895387
-0.576672994510341
6.1074128511386
11.6423738402683
15.4014634120764
17.9809056775033
20.3111334575103
22.4685185529401
23.7068841647301
23.621965364213
22.8677615459419
22.4345438822061
22.4125606555756
21.8738009371731
20.0445114224463
17.2297812633633
14.2767635181202
11.3256676895386
7.58286856476502
2.49317151325725
-3.24250730598466
-8.24458754860943
-11.9639573855591
-15.1349666400417
-18.4946054517495
-21.409531355932
-22.2927732399444
-20.4003272819213
-16.7162269437353
-12.7247902270885
-8.64175944435459
-3.49998348510815
2.8798836195437
8.59792151324864
10.9849472992112
9.16881182997211
4.7928891602553
-0.0510244534656152
-5.09661901647304
-11.4250419988801
-18.7105591171467
-23.7240172993957
-22.4012095998963
-13.6025731443434
-0.582345071534093
11.3298513053153
18.3094486388428
19.5302464638396
16.1499063474245
10.0124098917668
3.44061571754206
-1.13597327109125
-3.237438745513
-6.71176602204213
-18.971382834109
-45.8786609812067
-85.8972641697338
-129.021441835345
-162.270386071547
-177.697994691057
-176.707254836287
-167.67418022964
-158.849734432558
-150.97328138661
-133.425781111784
-86.1125802397042
12.5376446557091
173.942070865113
390.005159669822
632.488660882039
862.67479361338
1045.43984855921
1158.71972950636
1194.01679564847
1151.52142441393
1036.52117562394
859.532971527712
636.877073545651
388.212435781509
132.437566167929
-113.732222374055
-333.647285369373
-509.679950856386
-627.651411239722
-684.344922982363
-690.38297568708
-664.179639870179
-621.890754550646
-572.661933092717
-522.383753942021
-479.299965180141
-452.818227980395
-445.486859878744
-447.449656931092
-441.551476694562
-416.273227603781
-374.863148385078
-332.192964189648
-302.596327156418
-289.824643986773
-286.793845946751
-282.9324844492
-271.31491460186
-250.700940662236
-223.776452174804
-195.096407384656
-169.745081447474
-151.504074733848
-140.55797698352
-133.007151628417
-123.662739394352
-110.093725719555
-94.0967374374508
-79.2855489010499
-67.5734902308197
-58.1748203162483
-49.5470057866694
-41.4396169968804
-34.6593666625918
-29.3170070488159
-24.075793952784
-17.3288370379997
-8.67713035511698
1.12496650547308
11.4415000036493
22.4188975980743
34.2396007857105
46.1620552641869
56.7987152032892
65.3507870303961
72.2078925005462
78.1737595442324
83.3869423843045
87.3297405310998
89.7778064103715
91.2619700602402
92.3219422196588
92.5510144533211
90.8167002229809
86.5353641829452
80.459923190454
74.0021462879166
67.9504886583002
62.1759847867017
56.5996270996407
52.0482015128009
49.7851863235799
50.2454244055464
52.5624873980515
55.4967192462236
58.6269990282556
62.3871008827268
67.0216605025358
71.8642726098344
75.8437755067996
78.521956525086
80.3380320356794
81.8233854463267
82.8757111675743
83.0375246211235
82.3663322294379
81.7134143088206
82.0116760038824
83.4410652473336
85.451906397039
87.4999540562364
89.4875918088199
91.394855378777
92.7100407999889
92.5343473637633
90.3272867786311
86.4037061931911
81.5968717624379
76.53149663978
71.3635564341932
66.1623843298726
61.2861924675107
57.2025270779829
54.0244087062038
51.4365422164684
49.1521683546261
47.3204647532607
46.3699809102339
46.5182243038279
47.5919604379607
49.3480058434032
51.7978489980068
55.0543234251101
58.9059439373946
62.7439464855742
66.0356312666473
68.8118629351474
71.574397633959
74.7244230805596
78.1785898653434
81.565297996575
84.6605135851186
87.4724571806152
89.899577627839
91.4610625429824
91.4971012793598
89.6311127918007
85.9792823923884
80.9422633769328
74.9123068744021
68.2329972139092
61.3276020733021
54.688695466819
48.6843213576889
43.4632339376878
39.1310332557441
35.9640607375042
34.3229605237771
34.3189690836356
35.6585016422185
37.9060292376049
40.8621649506823
44.5714125920059
48.9337462053752
53.4268653919225
57.3465478886141
60.3317210699217
62.56034416784
64.3752345348596
65.7708409209405
66.3137032351294
65.5265189142041
63.2342473511097
59.4932910164272
54.2910125552339
47.4663139718538
38.9594257765351
29.0443739179271
18.2300007355392
6.95537810038571
-4.55440222951543
-16.1641227903664
-27.6945826637014
-38.9997747653248
-50.1090253103686
-61.1378798567748
-71.9815658205164
-82.1587862338424
-91.0563420851281
-98.345096853225
-104.115115774917
-108.622121999784
-112.014379934995
-114.396535786202
-116.099997526934
-117.714676752233
-119.724659196783
-122.11843663345
-124.422546655536
-126.121351302158
-126.990821411409
-127.034633189754
-126.234455069647
-124.521658514723
-122.009076782238
-119.110214974878
-116.291339021506
-113.700438433376
-111.121122350363
-108.313129281952
-105.31749133695
-102.362483334787
-99.5373755347193
-96.7026816302118
-93.7675534400919
-90.9284110847468
-88.4586191487277
-86.2176474954929
-83.4773948274119
-79.3580871803963
-73.4638333032912
-66.0718780557546
-57.7616867046942
-49.0155842238277
-40.2842537574628
-32.3487479042257
-26.3688157714116
-23.3531758901571
-23.5045692478874
-26.1008504688249
-30.0153030284155
-34.3210423667266
-38.4261854357329
-41.7936674488461
-43.7569245037743
-43.7369468995164
-41.6117544959325
-37.7823232554461
-32.8375954963498
-27.174059219059
-20.9377399829671
-14.2634363541851
-7.48194477511383
-1.07106615176832
4.55384919888331
9.17684431208912
12.7647153541986
15.4080321965155
17.3268044248638
18.901424919094
20.6192809992309
22.9145486120136
25.9958702927735
29.7658626706027
33.8542705039749
37.7212681810792
40.7849318752803
42.5455339422225
42.6841633413194
41.1200920897666
38.0293374289401
33.8252603372571
29.073375546304
24.317929342533
19.8826415672749
15.7933145218647
11.9148294020261
8.1991928063361
4.8095642176462
2.00316736667702
-0.0744835815444276
-1.42550954641177
-2.01854154988294
-1.63641055875971
-0.0015679681397387
2.89995051806585
6.65341717425184
10.6353043796661
14.4227678220107
17.9720120040816
21.3929920642388
24.5920592988147
27.1831425527936
28.743913158772
29.1077678333438
28.3791076639746
26.7121039594769
24.1646377350166
20.8201767503278
17.0294877475418
13.4700540509156
10.9109986536076
9.86441138865499
10.3856894768199
12.1198054133683
14.4950859454191
16.9185061946245
18.8989837733255
20.0988515067936
20.3435320727111
19.6281478535795
18.1423059003112
16.2701760139935
14.4713541512298
13.0197092773559
11.7589750944358
10.1217694895491
7.47928976447274
3.56896975130471
-1.35958927244697
-6.76711556942805
-12.125648978444
-16.9659457380099
-20.6970471184601
-22.5532212782825
-21.9010863756197
-18.6831429437363
-13.5333031243044
-7.39636581032898
-0.997489832333393
5.3540431218747
11.5349215782548
17.3138104569175
22.3503303087195
26.4307243488706
29.5927428258655
31.9639279396521
33.5205787688225
34.0748228891534
33.506026587262
31.9572439248256
29.7819071834393
27.3364843733619
24.8602665463043
22.5045905427842
20.3504632997649
18.3037346534347
16.0016780678777
12.9411476464144
8.80219432053662
3.68025670687732
-1.99393447838765
-7.73039904912983
-13.1375103534049
-17.8340765436746
-21.3243406198159
-23.1023198629352
-22.9544940442042
-21.1463763103114
-18.2660010130361
-14.8614479150052
-11.2248213824965
-7.49977805104001
-3.93853037769431
-1.00233327977839
0.797612756576541
1.1439651671885
0.0148639880483827
-2.39764097334022
-5.80770001018374
-9.85388597723059
-14.0266985684186
-17.6369198507214
-19.9342141608119
-20.356569828415
-18.7699774529669
-15.5383709042255
-11.3669545234973
-7.01886404669828
-3.08862794374541
0.0576015729431489
2.23192945614136
3.4059349942783
3.7680047784527
3.74092297449187
3.83299827446574
4.37737017064388
5.37649739102132
6.59439738873189
7.79170219220251
8.86788118346218
9.81656576828181
10.6271568045497
11.2860986205423
11.8344235580888
12.3167900554221
12.6063345886726
12.3177383653815
10.9885353978999
8.40536031266353
4.75677425422911
0.48849553994782
-3.90523008608415
-7.87450693962587
-10.6662729761685
-11.3995474314205
-9.51071066134836
-5.20846401571881
0.565255938332136
6.69111900672942
12.399721879762
17.2798290057845
20.9210507390274
22.7867015951377
22.5808911448081
20.6710942890414
17.9611636686975
15.2382598546548
12.6788648168384
10.0469437643995
7.30569255667048
4.88791182387012
3.32043872732208
2.70635283469974
2.71806985649518
3.07203848596584
3.83103667884394
5.12010191222562
6.63125242302786
7.60095212796955
7.36407623636398
5.86268301269375
3.54884855075182
0.87898574844661
-1.93561378574998
-4.67354837711969
-6.81961485275166
-7.78341845074766
-7.45274919788827
-6.39571049025509
-5.40398525238117
-4.88154549305942
-4.77235985478531
