Value(μV)
-21.0768451690674
-29.7555465698242
-32.6166572570801
-24.7009181976318
-14.3055505752563
-2.5749990940094
4.00555419921875
-5.62685012817383
-24.4148063659668
-37.1944313049316
-45.9685020446777
-46.9222068786621
-43.5842437744141
-49.9740562438965
-54.6472053527832
-54.170352935791
-59.3203506469727
-56.6499824523926
-39.9601707458496
-35.8592491149902
-45.9685020446777
-47.6851692199707
-40.5323944091797
-34.810173034668
-31.3768424987793
-30.0416564941406
-29.0879535675049
-22.5074005126953
-11.3490705490112
-0.47685170173645
7.72499752044678
14.9731435775757
14.3055505752563
4.38703584671021
0
5.53147983551025
3.62407302856445
-9.15555286407471
-8.3925895690918
3.71944332122803
6.96203470230103
13.3518476486206
18.9786968231201
15.0685138702393
24.3194370269775
29.1833248138428
15.9268465042114
19.5509204864502
28.5157318115234
15.1638841629028
8.3925895690918
17.8342533111572
21.3629570007324
21.0768451690674
21.3629570007324
20.2185115814209
23.8425846099854
28.2296199798584
20.8861045837402
6.00833129882813
4.00555419921875
7.24814605712891
9.537034034729
20.409252166748
29.3740653991699
21.9351787567139
8.48795986175537
10.5861072540283
11.8259220123291
5.81759071350098
11.0629596710205
8.29721927642822
-1.62129580974579
3.33796191215515
11.9212923049927
2.67036962509155
-17.1666603088379
-31.2814712524414
-34.6194343566895
-18.4064750671387
0.9537034034729
2.1935179233551
0.0953703373670578
4.38703584671021
3.62407302856445
5.53147983551025
10.3953666687012
6.96203470230103
13.5425882339478
20.8861045837402
11.7305517196655
10.3953666687012
21.839807510376
29.5648059844971
22.9842510223389
16.8805503845215
24.7009181976318
28.3249912261963
24.5101776123047
19.1694374084473
12.2074031829834
17.1666603088379
30.995361328125
34.0472106933594
35.9546165466309
46.3499870300293
45.1101722717285
38.4342460632324
41.6768379211426
42.630542755127
40.1509132385254
38.8157272338867
31.8536930084229
19.074068069458
5.81759071350098
-20.8861045837402
-74.4842376708984
-142.864776611328
-187.688827514648
-183.301788330078
-176.625869750977
-191.980499267578
-181.966613769531
-129.703659057617
-58.0805358886719
32.04443359375
189.024017333984
401.032287597656
622.00537109375
883.701538085938
1117.07275390625
1199.47277832031
1178.58666992188
1121.74597167969
1006.25244140625
819.135864257813
587.672058105469
358.210998535156
144.486068725586
-86.3101577758789
-320.635070800781
-504.127624511719
-623.912780761719
-666.543334960938
-645.466430664063
-620.193298339844
-586.909057617188
-537.507263183594
-518.147033691406
-515.285949707031
-506.702606201172
-497.356323242188
-475.039672851563
-446.142456054688
-405.610046386719
-345.717468261719
-292.214721679688
-260.933258056641
-250.919357299805
-256.546203613281
-266.083251953125
-276.669342041016
-285.348052978516
-269.23046875
-231.368438720703
-191.694381713867
-154.976806640625
-136.951812744141
-136.76106262207
-136.284210205078
-133.899963378906
-132.755508422852
-129.226806640625
-120.357368469238
-113.967559814453
-103.381446838379
-80.3971939086914
-59.8925743103027
-43.2981338500977
-40.8185043334961
-48.8296127319336
-42.4398002624512
-41.1999855041504
-45.5870208740234
-33.0935096740723
-12.3981437683105
4.29166507720947
16.4036979675293
29.0879535675049
34.2379531860352
36.0499877929688
44.251838684082
43.1073951721191
45.1101722717285
57.0314636230469
53.5981292724609
51.0231323242188
62.5629425048828
69.1434936523438
72.2907180786133
73.3397903442383
67.0453491210938
60.0833129882813
61.7046089172363
73.6259002685547
84.9749755859375
85.1657104492188
78.2036819458008
68.1897964477539
65.3286819458008
77.1546020507813
89.2666397094727
91.6508941650391
97.849967956543
108.436073303223
102.713859558105
93.4629364013672
83.925895690918
65.4240493774414
65.9009017944336
84.5934906005859
94.2258987426758
94.8934860229492
95.9425582885742
96.0379333496094
91.7462692260742
95.3703384399414
97.9453353881836
80.9694213867188
68.1897964477539
70.0018310546875
74.1027526855469
89.3620071411133
105.288856506348
110.248115539551
124.267555236816
138.76383972168
134.853652954102
120.929588317871
108.245338439941
104.812004089355
102.046264648438
106.337928771973
119.403663635254
109.199035644531
89.9342269897461
80.6833038330078
67.9990539550781
62.3722038269043
66.9499816894531
70.0018310546875
71.8138656616211
79.3481216430664
88.4083023071289
83.4490509033203
63.8981285095215
54.6472053527832
48.2573928833008
18.787956237793
9.34629344940186
20.8861045837402
10.0138854980469
4.57777643203735
18.6925868988037
24.9870281219482
27.1805477142334
35.382396697998
33.1888771057129
19.2648086547852
19.8370304107666
30.3277683258057
26.6083240509033
26.6083240509033
37.1944313049316
39.7694320678711
44.7286911010742
48.2573928833008
41.8675804138184
30.5185089111328
17.6435127258301
22.6981410980225
37.1944313049316
35.7638778686523
30.5185089111328
29.4694347381592
26.8944358825684
23.6518440246582
19.2648086547852
21.0768451690674
22.7935104370117
16.9759197235107
11.5398111343384
-1.23981440067291
-14.9731435775757
-14.2101802825928
-13.1611070632935
-21.5536975860596
-36.5268402099609
-56.4592399597168
-66.0916442871094
-72.7675704956055
-89.7434921264648
-92.318489074707
-81.0647888183594
-76.8684921264648
-72.8629379272461
-72.9583129882813
-83.8305282592773
-92.6045989990234
-101.569412231445
-111.583297729492
-114.25366973877
-118.354591369629
-106.719413757324
-106.624038696289
-111.1064453125
-116.35181427002
-124.553665161133
-131.229583740234
-120.452735900879
-114.825889587402
-112.537002563477
-99.7573776245117
-101.092559814453
-97.9453353881836
-74.9610900878906
-66.1870193481445
-75.3425674438477
-75.7240524291992
-72.7675704956055
-80.111083984375
-80.3018264770508
-70.7647933959961
-69.4296035766602
-78.2990493774414
-76.3916397094727
-66.9499816894531
-70.5740509033203
-67.8083114624023
-58.3666496276855
-58.2712783813477
-52.5490570068359
-44.251838684082
-37.8620262145996
-23.5564746856689
-13.256477355957
-20.2185115814209
-26.3222141265869
-16.4036979675293
-13.6379585266113
-25.6546211242676
-31.6629524230957
-19.8370304107666
-6.48518323898315
-11.4444408416748
-8.29721927642822
5.81759071350098
-1.52592539787292
-3.91018390655518
13.4472179412842
10.7768487930298
-1.62129580974579
-1.71666610240936
-2.76573991775513
-1.23981440067291
3.8148136138916
11.8259220123291
16.4036979675293
-0.286111027002335
-7.43888664245605
10.4907369613647
22.2212886810303
33.5703582763672
40.913875579834
26.6083240509033
18.5018463134766
31.0907306671143
37.9573936462402
26.5129547119141
14.8777732849121
17.8342533111572
25.8453617095947
30.5185089111328
37.6712837219238
37.6712837219238
22.4120292663574
17.0712909698486
31.4722118377686
40.1509132385254
35.5731353759766
28.5157318115234
27.4666576385498
36.431468963623
43.0120239257813
37.2898025512695
24.4148063659668
15.2592544555664
12.7796258926392
16.1175880432129
27.1805477142334
41.5814666748047
63.4212760925293
76.0101623535156
74.0073852539063
78.6805267333984
77.8221969604492
71.8138656616211
64.756462097168
45.9685020446777
34.2379531860352
31.9490642547607
30.8999900817871
37.5759124755859
40.1509132385254
40.913875579834
44.8240585327148
33.3796195983887
25.5592517852783
32.6166572570801
32.1398048400879
32.8073959350586
28.4203605651855
12.8749961853027
9.72777462005615
9.9185152053833
3.91018390655518
0.0953703373670578
1.23981440067291
8.48795986175537
8.67870044708252
0.0953703373670578
-1.33518481254578
9.34629344940186
18.5018463134766
22.4120292663574
24.5101776123047
18.6925868988037
15.0685138702393
16.4990692138672
22.0305480957031
31.6629524230957
41.1999855041504
51.1185035705566
56.3638725280762
48.2573928833008
30.6138782501221
18.8833274841309
10.204626083374
-1.43055510520935
-7.0574049949646
-9.06018257141113
1.23981440067291
16.30832862854
18.4064750671387
21.9351787567139
16.7851791381836
8.58333015441895
18.2157344818115
16.30832862854
9.34629344940186
18.1203651428223
22.125919342041
13.4472179412842
-2.47962880134583
-9.34629344940186
-5.7222204208374
-5.81759071350098
-3.71944332122803
-2.1935179233551
-2.38425850868225
1.23981440067291
7.91573810577393
13.8286991119385
7.53425693511963
-1.81203651428223
0
2.47962880134583
-1.14444410800934
-13.256477355957
-21.7444381713867
-11.9212923049927
-1.9074068069458
1.62129580974579
6.86666440963745
8.86944198608398
4.10092449188232
-1.14444410800934
-7.34351634979248
-17.0712909698486
-27.2759170532227
-32.1398048400879
-27.8481388092041
-22.3166599273682
-22.3166599273682
-19.6462898254395
-4.29166507720947
9.44166374206543
0.47685170173645
-11.4444408416748
-12.588885307312
-12.0166625976563
-3.71944332122803
2.28888821601868
-0.47685170173645
4.10092449188232
-3.24259161949158
-3.91018390655518
-2.1935179233551
-5.05462789535522
-4.00555419921875
4.86388731002808
-0.286111027002335
-15.8314762115479
-16.9759197235107
-18.9786968231201
-34.5240631103516
-49.783317565918
-51.7860946655273
-47.1129493713379
-47.1129493713379
-40.2462844848633
-28.3249912261963
-29.1833248138428
-35.7638778686523
-42.4398002624512
-46.9222068786621
-40.5323944091797
-43.0120239257813
-50.7370223999023
-43.2027626037598
-40.8185043334961
-45.5870208740234
-35.6685066223145
-17.8342533111572
-16.5944385528564
-26.9898052215576
-25.3685111999512
-12.2074031829834
3.5287024974823
20.7907333374023
23.9379558563232
9.63240432739258
5.53147983551025
8.77407169342041
5.53147983551025
4.67314672470093
0
-8.67870044708252
-9.25092315673828
-4.95925760269165
-1.9074068069458
-0.190740674734116
-2.09814739227295
-7.82036781311035
-12.4935140609741
-19.8370304107666
-34.6194343566895
-46.8268356323242
-51.2138710021973
-40.4370231628418
-20.1231422424316
-14.8777732849121
-18.5018463134766
-15.2592544555664
-10.8722190856934
-6.77129411697388
1.23981440067291
13.0657367706299
21.0768451690674
16.8805503845215
9.9185152053833
13.6379585266113
25.2731399536133
30.4231376647949
26.1314735412598
27.657398223877
32.9981384277344
29.5648059844971
24.7009181976318
22.6027698516846
17.6435127258301
6.96203470230103
2.5749990940094
11.0629596710205
12.588885307312
6.1037015914917
2.28888821601868
6.38981294631958
20.0277709960938
16.6898097991943
11.2537002563477
22.0305480957031
10.9675893783569
-6.6759238243103
-13.0657367706299
-25.3685111999512
-19.7416610717773
-1.71666610240936
-4.38703584671021
-1.71666610240936
14.9731435775757
27.1805477142334
36.9083213806152
28.3249912261963
6.77129411697388
4.1962947845459
7.24814605712891
7.82036781311035
12.588885307312
11.3490705490112
2.8611102104187
-5.34073925018311
-8.58333015441895
-10.4907369613647
-9.72777462005615
-1.71666610240936
0.858333051204681
-7.6296272277832
-13.0657367706299
-6.29444265365601
4.67314672470093
10.0138854980469
5.7222204208374
-6.38981294631958
-20.9814739227295
-24.7962875366211
-14.5916624069214
-7.24814605712891
-8.77407169342041
-25.177770614624
-43.7749862670898
-32.6166572570801
-12.7796258926392
-12.8749961853027
-20.0277709960938
-16.9759197235107
-12.588885307312
-17.5481433868408
-17.0712909698486
-4.7685170173645
11.2537002563477
16.4036979675293
6.38981294631958
-8.29721927642822
-17.0712909698486
-19.9324016571045
-29.6601753234863
-34.4286918640137
-28.2296199798584
-20.5046234130859
-5.34073925018311
-3.43333220481873
-14.2101802825928
-0.47685170173645
21.4583263397217
27.5620288848877
23.1749935150146
14.7824029922485
6.77129411697388
6.77129411697388
14.687032699585
16.1175880432129
17.1666603088379
22.125919342041
27.657398223877
36.2407302856445
31.0907306671143
25.8453617095947
28.4203605651855
20.8861045837402
17.6435127258301
18.6925868988037
18.4064750671387
21.0768451690674
16.7851791381836
8.29721927642822
0.762962698936462
-17.5481433868408
-62.0860900878906
-131.801803588867
-185.686050415039
-198.942535400391
-202.566604614258
-208.765670776367
-201.422164916992
-167.470321655273
-112.918479919434
-47.6851692199707
90.7925643920898
304.136016845703
517.193359375
766.300659179688
1029.80895996094
1169.81262207031
1180.58947753906
1147.20983886719
1072.1533203125
913.647827148438
688.573852539063
448.526702880859
221.640670776367
-3.05185079574585
-235.564743041992
-446.619293212891
-594.252563476563
-649.090515136719
-648.995178222656
-632.49609375
-579.756286621094
-529.686889648438
-524.727600097656
-517.956298828125
-501.457244873047
-498.214660644531
-481.429473876953
-448.049865722656
-415.623931884766
-368.892486572266
-301.465637207031
-249.584182739258
-247.009185791016
-264.461944580078
-268.467498779297
-275.143432617188
-277.527679443359
-263.698974609375
-248.439727783203
-214.774002075195
-155.739761352539
-111.869407653809
-95.5610809326172
-92.6999740600586
-104.716636657715
-121.406440734863
-132.087921142578
-143.532363891602
-141.911071777344
-106.910148620605
-63.6120147705078
-41.1046180725098
-35.0009155273438
-38.4342460632324
-49.6879463195801
-57.9851684570313
-60.3694267272949
-61.7046089172363
-45.2055397033691
-20.5999927520752
-4.7685170173645
21.839807510376
44.9194297790527
45.2055397033691
39.197208404541
40.1509132385254
50.6416511535645
50.7370223999023
40.3416519165039
38.9110984802246
41.7722091674805
52.8351669311523
63.8981285095215
61.5138702392578
64.6610870361328
76.296272277832
82.0184936523438
83.6397857666016
92.318489074707
107.387001037598
118.545333862305
120.643478393555
118.640701293945
120.929588317871
120.83422088623
117.877738952637
130.085144042969
149.063842773438
146.488845825195
130.943481445313
124.458290100098
117.782371520996
104.430519104004
96.7055282592773
98.3268203735352
99.5666351318359
97.3731155395508
94.2258987426758
86.5009002685547
79.729606628418
75.5333099365234
64.2796096801758
52.7397994995117
50.1647987365723
53.9796104431152
55.1240577697754
65.2333145141602
88.0268249511719
101.283302307129
102.141632080078
99.7573776245117
93.4629364013672
80.3971939086914
76.3916397094727
77.7268295288086
70.7647933959961
81.3508987426758
97.6592254638672
97.849967956543
103.76293182373
109.294410705566
105.76570892334
103.572189331055
92.318489074707
81.3508987426758
89.5527496337891
101.569412231445
113.013854980469
124.076812744141
113.395332336426
96.6101531982422
99.948112487793
101.37866973877
83.925895690918
66.4731292724609
64.4703521728516
74.5796051025391
82.4953460693359
75.1518249511719
62.0860900878906
64.5657196044922
66.7592391967773
49.1157264709473
32.2351760864258
29.1833248138428
29.0879535675049
26.7990646362305
32.5212860107422
35.6685066223145
28.5157318115234
26.226842880249
23.1749935150146
18.5018463134766
14.1148099899292
5.62685012817383
3.43333220481873
4.7685170173645
8.77407169342041
25.2731399536133
31.3768424987793
14.7824029922485
-7.82036781311035
-29.5648059844971
-37.4805450439453
-39.4833221435547
-48.9249839782715
-39.864803314209
-20.409252166748
-19.4555492401123
-28.5157318115234
-35.0009155273438
-46.1592445373535
-70.8601608276367
-78.8712692260742
-71.2416458129883
-81.5416412353516
-93.9397811889648
-99.948112487793
-102.237007141113
-95.2749710083008
-95.084228515625
-100.424964904785
-100.329597473145
-99.8527450561523
-107.387001037598
-126.747184753418
-125.316627502441
-101.569412231445
-99.0897827148438
-103.953666687012
-94.1305236816406
-93.9397811889648
-109.771263122559
-114.921257019043
-102.713859558105
-98.899040222168
-104.907371520996
-98.2314529418945
-85.5471954345703
-70.9555358886719
-44.0610961914063
-43.0120239257813
-52.5490570068359
-57.7944259643555
-55.3147964477539
-55.1240577697754
-58.8434982299805
-51.6907234191895
-45.4916534423828
-59.6064605712891
-59.2249794006348
-45.1101722717285
-46.4453544616699
-44.5379486083984
-39.864803314209
-44.0610961914063
-40.8185043334961
-30.0416564941406
-27.0851764678955
-30.1370277404785
-24.5101776123047
-14.687032699585
-6.29444265365601
0.667592406272888
-1.71666610240936
-1.14444410800934
13.256477355957
25.0823993682861
14.687032699585
-10.4907369613647
-22.4120292663574
-21.7444381713867
-22.4120292663574
-16.2129573822021
-10.5861072540283
-12.3981437683105
-3.8148136138916
5.43610954284668
-1.43055510520935
-12.3981437683105
-14.5916624069214
-14.7824029922485
-14.5916624069214
-5.53147983551025
-2.09814739227295
-7.0574049949646
-6.96203470230103
-6.29444265365601
-4.38703584671021
-2.95648050308228
-1.71666610240936
9.9185152053833
18.2157344818115
11.3490705490112
5.62685012817383
9.82314491271973
14.8777732849121
17.8342533111572
21.2675857543945
18.3111057281494
11.0629596710205
7.0574049949646
9.25092315673828
13.9240694046021
6.29444265365601
0.47685170173645
5.05462789535522
3.5287024974823
8.3925895690918
11.4444408416748
0.47685170173645
0.9537034034729
8.67870044708252
6.6759238243103
7.72499752044678
11.4444408416748
17.1666603088379
30.3277683258057
30.0416564941406
18.5972156524658
18.787956237793
20.409252166748
20.9814739227295
28.8018417358398
35.6685066223145
28.9925842285156
21.3629570007324
26.6083240509033
25.8453617095947
19.5509204864502
19.2648086547852
21.1722145080566
23.4611034393311
16.022216796875
3.91018390655518
8.10647869110107
28.5157318115234
41.1999855041504
38.0527648925781
28.4203605651855
19.4555492401123
18.5018463134766
17.357400894165
18.787956237793
32.9981384277344
40.8185043334961
35.382396697998
30.1370277404785
22.7935104370117
10.9675893783569
3.05185079574585
-1.14444410800934
4.29166507720947
15.2592544555664
12.3981437683105
14.687032699585
29.8509159088135
35.7638778686523
29.278694152832
21.3629570007324
21.4583263397217
24.7009181976318
29.9462871551514
37.8620262145996
38.8157272338867
39.864803314209
48.066650390625
57.2222023010254
60.1786842346191
53.4073905944824
44.7286911010742
47.3036880493164
46.7314682006836
24.5101776123047
5.24536848068237
14.4962921142578
24.0333251953125
13.9240694046021
18.9786968231201
36.5268402099609
39.9601707458496
44.8240585327148
40.2462844848633
19.074068069458
5.34073925018311
-4.67314672470093
-5.7222204208374
-1.04907369613647
-11.2537002563477
-17.357400894165
-17.4527721405029
-15.5453653335571
-5.53147983551025
-13.1611070632935
-26.9898052215576
-17.2620315551758
-4.95925760269165
-4.00555419921875
-5.1499981880188
-8.20184898376465
-14.4962921142578
-22.6981410980225
-23.1749935150146
-20.9814739227295
-23.8425846099854
-21.0768451690674
-25.3685111999512
-32.3305435180664
-24.891658782959
-16.8805503845215
-4.48240613937378
4.10092449188232
-5.24536848068237
-14.2101802825928
-15.0685138702393
-10.1092557907104
-7.91573810577393
-4.29166507720947
0.47685170173645
2.38425850868225
12.302773475647
7.53425693511963
2.09814739227295
22.5074005126953
32.9981384277344
38.3388748168945
50.5462799072266
46.2546157836914
35.0009155273438
33.6657295227051
38.148136138916
30.8046188354492
17.738883972168
16.30832862854
16.2129573822021
11.8259220123291
1.14444410800934
-12.4935140609741
-17.0712909698486
-9.44166374206543
-0.0953703373670578
-8.77407169342041
-18.2157344818115
-10.2999963760376
-10.204626083374
-19.4555492401123
-25.4638805389404
-26.3222141265869
-14.9731435775757
-5.05462789535522
-17.8342533111572
-30.4231376647949
-17.738883972168
-8.77407169342041
-15.35462474823
-12.302773475647
-12.1120328903198
-25.5592517852783
-28.9925842285156
-30.8046188354492
-42.1536903381348
-43.0120239257813
-40.6277656555176
-44.4425773620605
-45.3962821960449
-48.9249839782715
-43.4888763427734
-34.4286918640137
-43.1073951721191
-37.9573936462402
-20.8861045837402
-26.7990646362305
-38.3388748168945
-38.148136138916
-30.70924949646
-29.0879535675049
-34.6194343566895
-33.6657295227051
-32.3305435180664
-40.3416519165039
-46.9222068786621
-38.0527648925781
-28.2296199798584
-34.5240631103516
-37.7666549682617
-27.657398223877
-24.2240657806396
-33.3796195983887
-43.5842437744141
-47.4944305419922
-42.3444290161133
-30.995361328125
-25.2731399536133
-29.278694152832
-41.3907279968262
-44.9194297790527
-26.9898052215576
-12.1120328903198
-18.8833274841309
-28.7064723968506
-23.2703628540039
-13.256477355957
-5.7222204208374
4.1962947845459
7.15277528762817
7.0574049949646
11.2537002563477
7.43888664245605
7.0574049949646
13.9240694046021
10.2999963760376
2.5749990940094
6.19907188415527
18.4064750671387
20.409252166748
12.1120328903198
15.9268465042114
31.2814712524414
31.8536930084229
16.4990692138672
10.2999963760376
7.82036781311035
4.29166507720947
8.29721927642822
7.91573810577393
-0.572222054004669
-10.3953666687012
-3.24259161949158
21.1722145080566
29.3740653991699
20.5999927520752
20.1231422424316
31.3768424987793
23.6518440246582
5.1499981880188
16.2129573822021
30.2323970794678
34.7148017883301
43.3935050964355
34.5240631103516
22.8888816833496
20.9814739227295
22.6981410980225
30.8999900817871
29.1833248138428
26.7990646362305
33.9518394470215
25.5592517852783
14.1148099899292
20.0277709960938
21.6490669250488
19.2648086547852
18.5972156524658
18.9786968231201
25.7499923706055
25.177770614624
21.7444381713867
18.1203651428223
2.38425850868225
-7.53425693511963
-8.29721927642822
-6.1037015914917
10.5861072540283
20.8861045837402
1.71666610240936
-12.302773475647
-6.96203470230103
-10.4907369613647
-19.074068069458
-20.7907333374023
-13.8286991119385
0.9537034034729
5.34073925018311
4.10092449188232
8.58333015441895
11.4444408416748
12.0166625976563
12.6842555999756
16.4036979675293
24.2240657806396
23.7472152709961
10.5861072540283
-0.667592406272888
-2.67036962509155
2.67036962509155
13.0657367706299
29.9462871551514
52.9305381774902
58.3666496276855
44.6333198547363
44.0610961914063
47.3990592956543
31.1861019134521
13.8286991119385
9.63240432739258
-0.381481349468231
-9.537034034729
8.10647869110107
25.4638805389404
14.8777732849121
-2.5749990940094
-5.7222204208374
1.81203651428223
1.9074068069458
-17.357400894165
-53.9796104431152
-110.248115539551
-180.536056518555
-224.215667724609
-225.932342529297
-219.065673828125
-215.82307434082
-197.511978149414
-154.595321655273
-94.5120086669922
12.0166625976563
201.136047363281
421.250793457031
654.717407226563
919.942321777344
1122.22277832031
1193.46447753906
1187.93298339844
1125.08386230469
974.589477539063
762.390502929688
524.155395507813
280.293426513672
56.1731300354004
-165.753646850586
-377.857299804688
-542.561889648438
-640.507202148438
-659.199768066406
-640.507202148438
-616.187744140625
-572.126647949219
-528.256286621094
-499.263732910156
-481.620208740234
-475.421142578125
-465.121154785156
-448.049865722656
-420.010986328125
-365.554504394531
-302.228607177734
-260.170288085938
-245.67399597168
-245.864730834961
-259.693420410156
-277.146209716797
-277.813812255859
-260.837890625
-225.836959838867
-185.018463134766
-145.344390869141
-103.286079406738
-78.394416809082
-76.2009048461914
-83.5444183349609
-94.1305236816406
-107.196258544922
-115.49348449707
-103.095336914063
-72.7675704956055
-44.0610961914063
-19.8370304107666
0
-1.04907369613647
-13.5425882339478
-13.7333288192749
-16.6898097991943
-22.3166599273682
-11.2537002563477
-4.86388731002808
-8.0111083984375
3.24259161949158
18.3111057281494
18.787956237793
9.9185152053833
11.8259220123291
27.0851764678955
25.177770614624
13.9240694046021
23.0796222686768
32.5212860107422
26.4175834655762
30.0416564941406
48.4481315612793
55.6962776184082
48.4481315612793
49.0203552246094
61.4184989929199
65.137939453125
54.2657241821289
50.7370223999023
69.3342361450195
87.9314498901367
83.2583084106445
72.9583129882813
77.9175643920898
91.7462692260742
102.237007141113
107.86385345459
117.305519104004
121.787925720215
107.196258544922
93.8444137573242
90.3157119750977
85.9286727905273
83.925895690918
81.6370086669922
75.0564575195313
79.1573791503906
91.5555267333984
89.5527496337891
90.7925643920898
102.332374572754
87.4546051025391
69.2388687133789
74.3888626098633
74.7703475952148
76.4870147705078
92.0323791503906
99.4712677001953
88.8851547241211
77.5360870361328
67.6175689697266
56.6499824523926
56.936092376709
63.5166473388672
63.1351661682129
62.9444236755371
72.5768280029297
77.9175643920898
66.854606628418
48.066650390625
40.6277656555176
48.1620216369629
52.8351669311523
56.7453536987305
61.4184989929199
63.2305335998535
70.7647933959961
79.9203414916992
78.9666442871094
64.1842422485352
43.7749862670898
35.9546165466309
43.9657249450684
52.8351669311523
61.2277565002441
69.2388687133789
65.5194244384766
66.854606628418
68.1897964477539
50.4509086608887
40.0555419921875
40.2462844848633
39.197208404541
45.7777633666992
51.404613494873
54.4564628601074
51.404613494873
28.3249912261963
6.6759238243103
4.1962947845459
3.24259161949158
-6.19907188415527
-11.4444408416748
-4.57777643203735
-2.47962880134583
-6.38981294631958
-0.762962698936462
8.48795986175537
10.0138854980469
5.62685012817383
0
-4.86388731002808
-15.7361059188843
-29.8509159088135
-29.0879535675049
-19.2648086547852
-10.4907369613647
0.762962698936462
2.38425850868225
-2.95648050308228
0.381481349468231
-1.62129580974579
-19.360179901123
-27.8481388092041
-21.839807510376
-22.9842510223389
-41.3907279968262
-62.5629425048828
-65.6147918701172
-66.5684967041016
-76.7731246948242
-88.0268249511719
-105.384223937988
-113.967559814453
-109.485153198242
-117.877738952637
-124.362922668457
-111.297187805176
-109.00830078125
-121.597183227539
-124.553665161133
-128.559219360352
-134.090698242188
-124.744407653809
-110.820335388184
-99.4712677001953
-89.8388595581055
-81.5416412353516
-70.3833084106445
-59.1296119689941
-49.6879463195801
-53.9796104431152
-61.5138702392578
-57.6990547180176
-62.5629425048828
-61.4184989929199
-40.6277656555176
-27.4666576385498
-24.5101776123047
-27.943510055542
-32.9981384277344
-19.074068069458
2.38425850868225
7.0574049949646
-2.95648050308228
-18.0249938964844
-32.8073959350586
-36.0499877929688
-17.0712909698486
2.00277709960938
6.00833129882813
10.5861072540283
31.9490642547607
26.7036952972412
40.7231369018555
49.4972076416016
46.7314682006836
38.6249885559082
41.2953567504883
52.1675758361816
60.4647941589355
63.6120147705078
59.6064605712891
61.7999801635742
68.5712738037109
69.0481262207031
63.1351661682129
54.2657241821289
63.039794921875
79.3481216430664
79.06201171875
65.805534362793
48.2573928833008
45.1101722717285
40.8185043334961
20.1231422424316
17.6435127258301
20.7907333374023
10.8722190856934
16.30832862854
25.5592517852783
20.2185115814209
18.2157344818115
27.5620288848877
27.3712882995605
2.67036962509155
-16.7851791381836
-15.9268465042114
-18.9786968231201
-36.0499877929688
-44.5379486083984
-49.4972076416016
-67.1407165527344
-69.4296035766602
-55.9823913574219
-57.0314636230469
-58.4620170593262
-39.197208404541
-16.30832862854
-15.2592544555664
-31.4722118377686
-38.6249885559082
-35.0009155273438
-32.9027671813965
-27.0851764678955
-25.9407329559326
-28.1342506408691
-23.2703628540039
-23.4611034393311
-23.8425846099854
-17.5481433868408
-8.29721927642822
-0.572222054004669
7.43888664245605
18.5018463134766
27.3712882995605
33.3796195983887
30.1370277404785
16.30832862854
-2.76573991775513
-11.1583299636841
3.05185079574585
12.4935140609741
8.48795986175537
10.2999963760376
10.8722190856934
6.6759238243103
3.05185079574585
0.190740674734116
5.43610954284668
10.1092557907104
11.8259220123291
11.1583299636841
0.381481349468231
-2.1935179233551
8.86944198608398
17.6435127258301
14.3055505752563
2.95648050308228
0.381481349468231
1.33518481254578
-8.58333015441895
-18.0249938964844
-18.2157344818115
-19.1694374084473
-20.0277709960938
-20.6953639984131
-23.3657341003418
-19.2648086547852
-16.4036979675293
-29.6601753234863
-45.4916534423828
-55.5055389404297
-66.1870193481445
-70.0971984863281
-66.6638641357422
-58.4620170593262
-54.2657241821289
-57.2222023010254
-51.7860946655273
-55.9823913574219
-66.7592391967773
-61.7046089172363
-59.5110931396484
-53.9796104431152
-33.3796195983887
-15.2592544555664
-11.7305517196655
-22.8888816833496
-29.3740653991699
-36.6222114562988
-63.4212760925293
-78.8712692260742
-66.6638641357422
-63.6120147705078
-68.4759063720703
-43.8703575134277
-16.022216796875
-19.4555492401123
-25.7499923706055
-19.9324016571045
-16.6898097991943
-20.0277709960938
-21.4583263397217
-23.3657341003418
-36.2407302856445
-38.8157272338867
-24.4148063659668
-20.6953639984131
-22.5074005126953
-21.2675857543945
-19.6462898254395
-16.5944385528564
-19.8370304107666
-19.5509204864502
-10.7768487930298
2.00277709960938
17.357400894165
19.5509204864502
20.9814739227295
27.0851764678955
21.4583263397217
29.9462871551514
52.9305381774902
54.5518341064453
48.3527641296387
50.9277610778809
54.8379440307617
71.5277557373047
88.4083023071289
80.0157165527344
70.0018310546875
70.7647933959961
68.7620162963867
63.4212760925293
55.4101676940918
48.3527641296387
43.9657249450684
41.5814666748047
39.3879508972168
35.4777679443359
33.1888771057129
39.864803314209
50.355541229248
48.1620216369629
43.3935050964355
49.8786888122559
53.5981292724609
41.3907279968262
25.3685111999512
25.177770614624
35.9546165466309
45.7777633666992
58.5573883056641
69.3342361450195
71.5277557373047
61.0370178222656
45.8731346130371
42.1536903381348
38.9110984802246
31.3768424987793
30.8999900817871
31.8536930084229
34.6194343566895
42.4398002624512
50.1647987365723
51.404613494873
52.3583183288574
59.8925743103027
62.9444236755371
58.1759071350098
50.355541229248
49.6879463195801
56.4592399597168
55.4101676940918
58.8434982299805
78.7759017944336
77.1546020507813
54.9333152770996
59.9879455566406
74.2934951782227
75.247200012207
82.4953460693359
84.3073806762695
76.4870147705078
72.9583129882813
68.6666412353516
59.0342407226563
57.7944259643555
63.6120147705078
52.7397994995117
47.9712791442871
61.2277565002441
58.7481307983398
54.5518341064453
62.2768325805664
70.0018310546875
76.5823822021484
70.9555358886719
59.9879455566406
54.5518341064453
45.7777633666992
36.0499877929688
34.0472106933594
40.4370231628418
37.4805450439453
21.3629570007324
20.1231422424316
24.0333251953125
19.8370304107666
19.2648086547852
20.0277709960938
30.4231376647949
30.6138782501221
4.95925760269165
3.71944332122803
25.6546211242676
26.9898052215576
22.8888816833496
16.022216796875
-5.1499981880188
-18.4064750671387
-21.7444381713867
-30.1370277404785
-28.3249912261963
-19.2648086547852
-23.1749935150146
-24.891658782959
-34.5240631103516
-55.0286865234375
-46.7314682006836
-30.2323970794678
-32.9981384277344
-22.6027698516846
-6.86666440963745
-20.5999927520752
-34.0472106933594
-39.6740608215332
-58.8434982299805
-68.7620162963867
-77.8221969604492
-94.1305236816406
-90.220344543457
-71.8138656616211
-57.9851684570313
-53.5027618408203
-56.4592399597168
-62.1814613342285
-68.4759063720703
-77.1546020507813
-79.8249740600586
-70.1925735473633
-69.0481262207031
-82.2092361450195
-98.3268203735352
-108.817558288574
-99.7573776245117
-83.7351608276367
-81.9231185913086
-76.296272277832
-62.9444236755371
-60.3694267272949
-70.9555358886719
-82.7814559936523
-82.876823425293
-80.778678894043
-91.7462692260742
-94.8934860229492
-78.2990493774414
-76.8684921264648
-88.0268249511719
-83.925895690918
-82.5907135009766
-87.6453399658203
-86.2147903442383
-83.2583084106445
-79.06201171875
-80.4925689697266
-84.8796005249023
-81.3508987426758
-74.2934951782227
-65.9962768554688
-62.5629425048828
-70.3833084106445
-83.5444183349609
-110.915702819824
-166.421249389648
-226.123077392578
-252.1591796875
-244.148071289063
-226.027709960938
-216.013824462891
-199.610122680664
-148.777725219727
-77.5360870361328
16.4036979675293
179.963836669922
381.004516601563
576.132202148438
812.746032714844
1020.27191162109
1074.06079101563
1044.87744140625
1009.78112792969
914.696899414063
743.697937011719
534.932250976563
330.648956298828
131.324951171875
-92.8907089233398
-299.844360351563
-443.948944091797
-526.158142089844
-549.333129882813
-542.6572265625
-536.458190917969
-524.441528320313
-499.549835205078
-489.154479980469
-492.110961914063
-486.388732910156
-467.410034179688
-436.700775146484
-403.225799560547
-356.97119140625
-293.359161376953
-230.605484008789
-190.931427001953
-177.198089599609
-181.394393920898
-203.329559326172
-227.553634643555
-231.559188842773
-212.199005126953
-188.737899780273
-148.777725219727
-93.2721939086914
-59.9879455566406
-48.734245300293
-62.2768325805664
-89.0758972167969
-99.948112487793
-106.528671264648
-109.389778137207
-96.9916381835938
-77.4407196044922
-46.8268356323242
-16.9759197235107
-4.00555419921875
1.33518481254578
3.43333220481873
12.3981437683105
27.4666576385498
35.1916542053223
35.9546165466309
25.3685111999512
20.0277709960938
34.0472106933594
39.2925796508789
34.1425819396973
36.431468963623
42.4398002624512
41.962947845459
35.1916542053223
48.4481315612793
70.2879409790039
71.0509033203125
68.5712738037109
67.8083114624023
62.6583137512207
59.9879455566406
63.9934997558594
70.8601608276367
65.5194244384766
64.2796096801758
74.9610900878906
77.9175643920898
77.4407196044922
77.0592346191406
84.5934906005859
91.5555267333984
85.2610855102539
104.716636657715
134.472183227539
133.041625976563
125.888847351074
117.114776611328
99.7573776245117
98.4221878051758
105.002746582031
103.76293182373
104.239784240723
110.248115539551
117.400886535645
119.117553710938
113.872184753418
108.912925720215
107.482376098633
109.866630554199
119.117553710938
124.362922668457
117.686996459961
113.586074829102
121.406440734863
127.986999511719
116.065704345703
93.0814514160156
86.1194152832031
102.332374572754
118.640701293945
119.975891113281
117.114776611328
123.218475341797
140.003662109375
147.824020385742
137.524032592773
129.608291625977
119.59440612793
96.2286758422852
78.7759017944336
72.4814605712891
73.3397903442383
95.4657135009766
117.114776611328
112.918479919434
119.022186279297
132.46940612793
106.051818847656
80.2064590454102
92.1277465820313
100.329597473145
90.6018218994141
80.5879364013672
76.8684921264648
78.5851593017578
73.9120101928711
65.0425720214844
66.9499816894531
67.9990539550781
59.0342407226563
52.8351669311523
50.2601699829102
50.9277610778809
58.3666496276855
69.1434936523438
71.3370132446289
53.3120193481445
39.7694320678711
42.3444290161133
33.2842483520508
20.5999927520752
21.6490669250488
26.9898052215576
36.431468963623
49.1157264709473
52.2629470825195
46.4453544616699
47.7805404663086
51.1185035705566
39.6740608215332
18.5018463134766
4.67314672470093
8.10647869110107
16.2129573822021
13.8286991119385
3.8148136138916
-3.91018390655518
-11.7305517196655
-34.9055442810059
-56.8407211303711
-61.1323890686035
-71.6231231689453
-85.7379379272461
-94.8934860229492
-104.239784240723
-94.8934860229492
-88.2175674438477
-108.054595947266
-123.409217834473
-126.365699768066
-125.221252441406
-116.828666687012
-116.161071777344
-121.597183227539
-113.681442260742
-97.2777481079102
-92.5092315673828
-105.956443786621
-114.635147094727
-97.3731155395508
-82.6860809326172
-89.4573822021484
-103.572189331055
-116.637924194336
-111.487930297852
-91.0786743164063
-82.6860809326172
-85.8333053588867
-82.1138610839844
-77.345344543457
-81.6370086669922
-81.4462738037109
-72.0046081542969
-67.3314590454102
-69.7157211303711
-73.4351654052734
-71.3370132446289
-80.2064590454102
-101.187927246094
-102.999969482422
-95.9425582885742
-97.6592254638672
-90.4110794067383
-76.7731246948242
-85.0703430175781
-95.2749710083008
-84.8796005249023
-82.3046035766602
-85.0703430175781
-79.5388641357422
-81.827751159668
-92.6045989990234
-87.5499725341797
-71.9092330932617
-70.7647933959961
-48.4481315612793
-49.6879463195801
-49.4018363952637
-52.0722045898438
-46.1592445373535
-40.6277656555176
-26.5129547119141
-9.44166374206543
-16.5944385528564
-30.70924949646
-28.2296199798584
-24.6055469512939
-27.2759170532227
-37.5759124755859
-51.3092422485352
-55.5055389404297
-39.3879508972168
-17.2620315551758
-17.5481433868408
-19.1694374084473
-5.7222204208374
2.28888821601868
10.3953666687012
15.9268465042114
9.06018257141113
5.05462789535522
6.77129411697388
4.48240613937378
-2.95648050308228
-8.48795986175537
-5.7222204208374
4.1962947845459
12.3981437683105
12.9703664779663
13.0657367706299
23.6518440246582
31.5675830841064
25.0823993682861
24.4148063659668
22.3166599273682
12.1120328903198
4.86388731002808
-4.57777643203735
5.7222204208374
31.0907306671143
34.1425819396973
28.1342506408691
34.1425819396973
35.382396697998
20.5999927520752
8.77407169342041
3.71944332122803
0.286111027002335
8.67870044708252
14.9731435775757
14.0194396972656
20.1231422424316
32.6166572570801
45.3962821960449
47.7805404663086
46.0638732910156
46.2546157836914
30.6138782501221
7.43888664245605
2.00277709960938
9.537034034729
23.5564746856689
36.6222114562988
33.4749908447266
27.7527694702148
26.7990646362305
21.7444381713867
18.9786968231201
19.4555492401123
20.2185115814209
29.6601753234863
36.1453590393066
30.995361328125
30.8999900817871
39.4833221435547
46.2546157836914
50.2601699829102
57.3175735473633
56.6499824523926
49.783317565918
43.2027626037598
30.8999900817871
33.9518394470215
55.9823913574219
62.2768325805664
49.4972076416016
34.2379531860352
25.177770614624
20.7907333374023
16.6898097991943
27.0851764678955
43.5842437744141
35.6685066223145
22.4120292663574
30.995361328125
38.7203598022461
36.8129501342773
36.7175827026367
31.0907306671143
26.3222141265869
24.7009181976318
19.074068069458
18.1203651428223
10.0138854980469
-8.20184898376465
-11.1583299636841
-14.3055505752563
-31.5675830841064
-29.9462871551514
-14.0194396972656
-16.30832862854
-24.7962875366211
-22.9842510223389
-14.2101802825928
-2.95648050308228
-2.28888821601868
-3.8148136138916
4.7685170173645
1.62129580974579
-6.00833129882813
-7.24814605712891
-16.2129573822021
-17.6435127258301
-5.81759071350098
7.43888664245605
11.3490705490112
13.4472179412842
30.1370277404785
27.657398223877
10.3953666687012
11.2537002563477
7.34351634979248
3.91018390655518
6.77129411697388
-3.5287024974823
-14.4009208679199
-14.7824029922485
-12.0166625976563
-3.71944332122803
2.38425850868225
-2.5749990940094
-1.62129580974579
5.05462789535522
-1.04907369613647
-10.0138854980469
-6.77129411697388
4.57777643203735
11.0629596710205
5.05462789535522
-5.81759071350098
-10.4907369613647
2.5749990940094
13.256477355957
8.0111083984375
9.72777462005615
7.82036781311035
-4.95925760269165
-11.0629596710205
-8.67870044708252
-13.1611070632935
-15.8314762115479
-0.858333051204681
4.48240613937378
1.81203651428223
10.6814785003662
15.2592544555664
18.0249938964844
22.8888816833496
27.1805477142334
35.0009155273438
32.5212860107422
20.409252166748
24.4148063659668
37.0036926269531
31.3768424987793
17.6435127258301
8.10647869110107
-5.7222204208374
-17.357400894165
-16.2129573822021
-15.2592544555664
-22.3166599273682
-28.8972129821777
-27.5620288848877
-30.995361328125
-42.8212814331055
-36.2407302856445
-27.4666576385498
-44.3472061157227
-57.9851684570313
-51.7860946655273
-41.0092468261719
-33.3796195983887
-25.7499923706055
-23.3657341003418
-26.1314735412598
-21.5536975860596
-15.6407356262207
-7.72499752044678
-2.38425850868225
-15.0685138702393
-37.5759124755859
-42.630542755127
-25.2731399536133
-10.8722190856934
-13.256477355957
-12.2074031829834
3.8148136138916
7.43888664245605
4.1962947845459
10.3953666687012
11.7305517196655
1.81203651428223
-5.24536848068237
-7.91573810577393
-6.19907188415527
-3.71944332122803
1.04907369613647
4.95925760269165
9.06018257141113
12.302773475647
14.1148099899292
25.0823993682861
33.5703582763672
26.1314735412598
14.5916624069214
5.91296100616455
4.57777643203735
14.4962921142578
15.6407356262207
7.53425693511963
12.302773475647
15.2592544555664
8.10647869110107
8.0111083984375
-1.43055510520935
-24.1286964416504
-29.278694152832
-25.177770614624
-19.074068069458
0.9537034034729
13.4472179412842
13.1611070632935
14.8777732849121
9.44166374206543
-4.10092449188232
-5.24536848068237
12.1120328903198
22.9842510223389
24.7009181976318
31.1861019134521
25.8453617095947
4.38703584671021
-13.3518476486206
-13.9240694046021
-11.635181427002
-18.2157344818115
-20.8861045837402
-25.5592517852783
-45.4916534423828
-81.3508987426758
-134.56755065918
-194.36474609375
-218.493453979492
-200.086975097656
-184.923095703125
-181.871231079102
-165.467544555664
-124.744407653809
-62.8490524291992
37.5759124755859
214.392517089844
431.455413818359
651.093322753906
895.14599609375
1079.11535644531
1119.83850097656
1098.38024902344
1041.82556152344
892.666381835938
681.993286132813
471.415588378906
272.282318115234
68.6666412353516
-149.63606262207
-348.769317626953
-494.304473876953
-584.143310546875
-615.997009277344
-607.318298339844
-587.86279296875
-550.096130371094
-497.547058105469
-473.513732910156
-470.843353271484
-462.641510009766
-450.243377685547
-429.834106445313
-403.130432128906
-357.829528808594
-291.642486572266
-231.559188842773
-190.645309448242
-178.151794433594
-192.45735168457
-214.487899780273
-234.611038208008
-233.275848388672
-206.381408691406
-176.530502319336
-147.919403076172
-123.313850402832
-109.485153198242
-105.384223937988
-115.398109436035
-118.831443786621
-110.724967956543
-107.291633605957
-93.9397811889648
-65.137939453125
-40.3416519165039
-30.70924949646
-18.5018463134766
2.76573991775513
10.0138854980469
2.95648050308228
-2.76573991775513
-4.48240613937378
-9.25092315673828
-10.6814785003662
5.81759071350098
22.125919342041
21.6490669250488
27.657398223877
31.9490642547607
11.8259220123291
5.7222204208374
26.9898052215576
36.0499877929688
34.7148017883301
43.2027626037598
47.3990592956543
49.5925750732422
57.7944259643555
51.9768333435059
48.8296127319336
52.0722045898438
44.0610961914063
48.4481315612793
57.7944259643555
55.4101676940918
68.5712738037109
86.0240478515625
73.8166427612305
57.4129447937012
58.652759552002
63.039794921875
70.7647933959961
78.9666442871094
81.2555313110352
79.5388641357422
70.0018310546875
62.7536849975586
63.8027572631836
67.6175689697266
77.0592346191406
91.5555267333984
104.335151672363
108.245338439941
107.100891113281
107.768486022949
97.3731155395508
77.9175643920898
74.8657150268555
81.5416412353516
76.9638671875
76.9638671875
97.9453353881836
114.921257019043
131.992553710938
130.27587890625
136.188842773438
122.455513000488
106.719413757324
101.283302307129
98.5175628662109
94.5120086669922
96.5147857666016
102.809226989746
102.904594421387
97.2777481079102
96.7055282592773
95.1795959472656
88.6944122314453
85.2610855102539
90.6971969604492
100.806449890137
99.8527450561523
96.13330078125
96.9916381835938
90.4110794067383
88.4083023071289
85.0703430175781
63.8027572631836
47.017578125
44.8240585327148
46.2546157836914
55.7916488647461
66.2823867797852
67.903678894043
68.6666412353516
56.4592399597168
30.2323970794678
14.4962921142578
10.6814785003662
6.48518323898315
-9.15555286407471
-24.4148063659668
-23.6518440246582
-26.1314735412598
-31.1861019134521
-17.1666603088379
-1.62129580974579
-9.15555286407471
-24.891658782959
-32.9981384277344
-22.3166599273682
7.34351634979248
24.891658782959
18.0249938964844
0.572222054004669
-10.0138854980469
-5.1499981880188
-8.3925895690918
-22.9842510223389
-25.3685111999512
-17.357400894165
-10.204626083374
-6.29444265365601
-12.1120328903198
-24.3194370269775
-32.9981384277344
-49.0203552246094
-68.6666412353516
-80.0157165527344
-92.6999740600586
-100.615707397461
-97.182373046875
-91.4601593017578
-86.0240478515625
-95.9425582885742
-110.724967956543
-98.6129302978516
-88.5990447998047
-100.329597473145
-95.084228515625
-83.7351608276367
-90.6018218994141
-97.4684906005859
-93.2721939086914
-82.3999710083008
-79.8249740600586
-89.7434921264648
-98.1360778808594
-97.5638580322266
-90.6971969604492
-94.5120086669922
-112.918479919434
-118.354591369629
-109.199035644531
-97.5638580322266
-82.2092361450195
-72.3860855102539
-75.5333099365234
-86.6916351318359
-81.3508987426758
-59.7972030639648
-42.2490615844727
-27.943510055542
-19.2648086547852
-21.9351787567139
-25.9407329559326
-20.6953639984131
-18.4064750671387
-18.787956237793
-10.4907369613647
-2.76573991775513
-3.62407302856445
-10.1092557907104
-8.86944198608398
-6.96203470230103
-9.25092315673828
4.57777643203735
26.0361022949219
34.2379531860352
30.995361328125
26.9898052215576
27.657398223877
19.9324016571045
6.77129411697388
12.4935140609741
27.8481388092041
27.0851764678955
22.0305480957031
24.7962875366211
27.0851764678955
32.4259147644043
39.1018409729004
31.5675830841064
19.8370304107666
25.5592517852783
35.1916542053223
35.1916542053223
33.761100769043
24.891658782959
21.3629570007324
32.1398048400879
32.4259147644043
28.4203605651855
25.6546211242676
14.5916624069214
5.91296100616455
4.7685170173645
7.34351634979248
3.05185079574585
-7.53425693511963
-11.635181427002
-14.4009208679199
-15.1638841629028
-1.81203651428223
8.48795986175537
2.09814739227295
-11.7305517196655
-28.9925842285156
-35.6685066223145
-25.0823993682861
-5.53147983551025
10.1092557907104
-1.14444410800934
-13.3518476486206
0
2.28888821601868
-9.9185152053833
-9.82314491271973
-5.43610954284668
-1.43055510520935
16.7851791381836
30.995361328125
25.9407329559326
24.7962875366211
15.6407356262207
0.858333051204681
5.43610954284668
10.204626083374
14.7824029922485
25.3685111999512
31.6629524230957
35.1916542053223
27.3712882995605
19.7416610717773
27.1805477142334
28.9925842285156
21.7444381713867
14.0194396972656
6.77129411697388
7.15277528762817
7.34351634979248
10.8722190856934
22.6027698516846
20.409252166748
15.9268465042114
19.7416610717773
14.1148099899292
9.9185152053833
18.3111057281494
25.2731399536133
12.302773475647
-6.6759238243103
0.286111027002335
16.8805503845215
20.5046234130859
22.5074005126953
19.8370304107666
18.3111057281494
24.9870281219482
19.2648086547852
18.1203651428223
31.1861019134521
30.995361328125
24.6055469512939
25.9407329559326
24.9870281219482
16.7851791381836
12.0166625976563
8.0111083984375
5.62685012817383
17.738883972168
25.0823993682861
21.6490669250488
26.9898052215576
27.1805477142334
15.4499950408936
6.86666440963745
6.1037015914917
14.5916624069214
22.125919342041
16.7851791381836
14.8777732849121
25.6546211242676
28.0388793945313
17.4527721405029
8.29721927642822
1.04907369613647
0.286111027002335
5.81759071350098
-4.00555419921875
-26.226842880249
-28.3249912261963
-18.5018463134766
-23.4611034393311
-28.0388793945313
-21.0768451690674
-13.0657367706299
-8.77407169342041
-12.9703664779663
-16.6898097991943
-10.6814785003662
-4.95925760269165
-4.00555419921875
-3.71944332122803
-4.95925760269165
-12.588885307312
-18.3111057281494
-8.29721927642822
0.9537034034729
-7.72499752044678
-8.96481227874756
-7.0574049949646
-20.9814739227295
-21.1722145080566
-12.7796258926392
-12.3981437683105
-2.67036962509155
1.52592539787292
-2.8611102104187
1.9074068069458
5.34073925018311
6.1037015914917
13.3518476486206
12.302773475647
8.96481227874756
18.4064750671387
16.6898097991943
5.81759071350098
4.57777643203735
-0.0953703373670578
-5.53147983551025
-1.04907369613647
4.7685170173645
-2.38425850868225
-20.9814739227295
-22.2212886810303
-12.0166625976563
-16.2129573822021
-20.6953639984131
-21.5536975860596
-30.0416564941406
-27.0851764678955
-13.9240694046021
-17.4527721405029
-22.7935104370117
-14.2101802825928
-12.9703664779663
-24.891658782959
-16.8805503845215
1.23981440067291
-12.4935140609741
-25.2731399536133
-8.20184898376465
12.7796258926392
21.9351787567139
6.86666440963745
-14.4009208679199
-20.1231422424316
-20.409252166748
-12.4935140609741
-4.95925760269165
-8.0111083984375
-7.82036781311035
-5.7222204208374
-9.06018257141113
-5.24536848068237
-0.762962698936462
5.53147983551025
24.891658782959
29.278694152832
21.839807510376
16.7851791381836
3.05185079574585
-9.44166374206543
-12.8749961853027
-10.0138854980469
-6.86666440963745
-2.1935179233551
1.04907369613647
-2.8611102104187
-0.858333051204681
11.9212923049927
12.1120328903198
-4.38703584671021
-13.3518476486206
-9.537034034729
-5.1499981880188
-5.81759071350098
-6.6759238243103
-5.05462789535522
-5.91296100616455
-10.2999963760376
-20.2185115814209
-27.657398223877
-29.7555465698242
-29.1833248138428
-22.125919342041
-10.5861072540283
-2.38425850868225
-9.9185152053833
-8.96481227874756
8.29721927642822
19.4555492401123
32.6166572570801
37.9573936462402
17.1666603088379
-6.86666440963745
-13.0657367706299
-13.5425882339478
-21.1722145080566
-29.5648059844971
-29.4694347381592
-22.8888816833496
-20.0277709960938
-20.5999927520752
-19.9324016571045
-17.4527721405029
-19.4555492401123
-31.4722118377686
-33.761100769043
-21.1722145080566
-6.77129411697388
16.9759197235107
31.2814712524414
21.0768451690674
25.4638805389404
39.197208404541
16.30832862854
-15.4499950408936
-23.7472152709961
-33.8564720153809
-38.3388748168945
-24.3194370269775
-23.9379558563232
-41.2953567504883
-37.2898025512695
-14.7824029922485
-2.5749990940094
0
10.0138854980469
20.0277709960938
35.7638778686523
46.4453544616699
26.5129547119141
0.190740674734116
-4.95925760269165
-10.0138854980469
-11.0629596710205
7.15277528762817
15.9268465042114
6.58055353164673
2.67036962509155
2.95648050308228
4.48240613937378
-2.09814739227295
-43.9657249450684
-117.49626159668
-190.740676879883
-223.166595458984
-207.621231079102
-193.029571533203
-192.743453979492
-172.906433105469
-123.027740478516
-53.3120193481445
63.6120147705078
259.598052978516
475.135040283203
695.917358398438
954.75244140625
1135.95617675781
1166.95153808594
1136.5283203125
1084.64685058594
950.079345703125
727.198852539063
497.451690673828
287.446197509766
83.3536758422852
-122.264778137207
-325.498962402344
-476.374847412109
-558.870178222656
-594.252563476563
-589.007202148438
-557.34423828125
-522.438720703125
-505.558166503906
-497.260955810547
-485.14892578125
-486.865570068359
-498.500762939453
-489.154479980469
-443.567443847656
-379.001739501953
-321.588775634766
-267.895294189453
-222.689743041992
-209.147155761719
-217.158264160156
-223.738815307617
-217.158264160156
-200.9453125
-191.122161865234
-175.1953125
-149.159210205078
-134.090698242188
-124.362922668457
-114.444404602051
-109.580520629883
-112.060150146484
-124.172180175781
-127.891624450684
-109.294410705566
-92.8907089233398
-73.3397903442383
-29.8509159088135
-6.6759238243103
-6.38981294631958
11.0629596710205
12.0166625976563
0.286111027002335
4.86388731002808
-2.47962880134583
-9.82314491271973
2.8611102104187
23.5564746856689
40.3416519165039
46.5407257080078
43.5842437744141
32.9981384277344
26.0361022949219
28.3249912261963
34.7148017883301
43.3935050964355
44.1564674377441
49.6879463195801
71.2416458129883
83.6397857666016
75.0564575195313
63.6120147705078
64.1842422485352
61.6092376708984
44.9194297790527
37.1944313049316
44.3472061157227
55.3147964477539
67.5222015380859
73.1490478515625
77.345344543457
86.4055252075195
84.2120132446289
69.9064559936523
57.6990547180176
58.5573883056641
70.6694183349609
72.3860855102539
62.4675712585449
60.274055480957
64.0888671875
68.0944213867188
78.1083068847656
87.7407150268555
94.2258987426758
101.474044799805
92.4138565063477
70.7647933959961
61.5138702392578
60.4647941589355
48.5435028076172
38.0527648925781
53.4073905944824
76.5823822021484
90.3157119750977
103.76293182373
108.817558288574
102.904594421387
90.3157119750977
73.0536804199219
66.5684967041016
69.7157211303711
75.0564575195313
82.6860809326172
89.9342269897461
104.907371520996
118.163848876953
116.542556762695
105.002746582031
89.1712646484375
78.9666442871094
73.3397903442383
61.7046089172363
63.2305335998535
82.2092361450195
88.8851547241211
80.2064590454102
64.756462097168
55.3147964477539
53.5981292724609
41.3907279968262
40.4370231628418
52.3583183288574
49.4018363952637
43.5842437744141
37.099063873291
22.0305480957031
4.95925760269165
-9.537034034729
-14.2101802825928
-12.0166625976563
-8.20184898376465
10.1092557907104
33.0935096740723
32.04443359375
23.4611034393311
25.4638805389404
16.4036979675293
-1.9074068069458
-12.588885307312
-15.8314762115479
-20.5999927520752
-19.5509204864502
-8.86944198608398
-9.06018257141113
-1.33518481254578
14.4962921142578
7.72499752044678
12.588885307312
21.5536975860596
8.0111083984375
12.6842555999756
24.891658782959
8.3925895690918
-6.58055353164673
5.24536848068237
17.4527721405029
19.4555492401123
13.7333288192749
-8.48795986175537
-21.9351787567139
-26.3222141265869
-39.4833221435547
-42.7259140014648
-38.5296173095703
-51.5953521728516
-64.3749771118164
-58.7481307983398
-62.1814613342285
-75.3425674438477
-91.3647842407227
-108.912925720215
-114.062927246094
-129.226806640625
-122.93236541748
-110.534225463867
-91.269416809082
-79.729606628418
-86.6916351318359
-97.182373046875
-92.8907089233398
-79.9203414916992
-76.4870147705078
-67.903678894043
-56.1731300354004
-70.2879409790039
-71.1462707519531
-51.1185035705566
-53.121280670166
-55.7916488647461
-46.9222068786621
-47.8759117126465
-50.7370223999023
-43.0120239257813
-27.1805477142334
-14.7824029922485
-9.63240432739258
-16.4036979675293
-28.8972129821777
-23.1749935150146
-15.35462474823
-11.635181427002
6.38981294631958
14.7824029922485
5.1499981880188
-1.9074068069458
-6.96203470230103
-15.0685138702393
-13.5425882339478
-3.147221326828
-2.09814739227295
5.24536848068237
19.7416610717773
17.0712909698486
4.86388731002808
-10.204626083374
-22.0305480957031
-33.761100769043
-38.7203598022461
-16.4036979675293
-0.572222054004669
-4.48240613937378
2.28888821601868
14.3055505752563
19.2648086547852
18.5972156524658
10.1092557907104
1.81203651428223
4.10092449188232
6.48518323898315
-11.5398111343384
-34.4286918640137
-26.7990646362305
-10.3953666687012
-23.5564746856689
-40.5323944091797
-33.4749908447266
-23.4611034393311
-14.2101802825928
-3.5287024974823
-0.381481349468231
2.00277709960938
1.81203651428223
8.48795986175537
16.5944385528564
9.82314491271973
11.9212923049927
15.1638841629028
1.62129580974579
-8.58333015441895
-7.6296272277832
-8.86944198608398
-13.8286991119385
-5.7222204208374
6.58055353164673
-1.23981440067291
-9.44166374206543
5.62685012817383
24.7962875366211
27.943510055542
28.9925842285156
47.5897979736328
64.5657196044922
53.8842430114746
40.0555419921875
49.3064651489258
55.219425201416
42.5351715087891
37.8620262145996
44.7286911010742
43.5842437744141
30.995361328125
14.7824029922485
3.33796191215515
3.43333220481873
12.302773475647
16.2129573822021
7.53425693511963
-7.24814605712891
-14.4962921142578
-4.29166507720947
3.62407302856445
0.572222054004669
0.9537034034729
-4.38703584671021
-7.72499752044678
2.67036962509155
15.7361059188843
25.7499923706055
19.6462898254395
3.62407302856445
2.47962880134583
8.48795986175537
4.86388731002808
-2.38425850868225
3.43333220481873
8.3925895690918
0
-1.14444410800934
5.34073925018311
-0.286111027002335
-11.0629596710205
-8.29721927642822
-6.86666440963745
-5.62685012817383
14.7824029922485
32.8073959350586
32.5212860107422
19.8370304107666
8.86944198608398
-1.43055510520935
-8.96481227874756
17.2620315551758
20.6953639984131
3.05185079574585
-14.7824029922485
-17.738883972168
-17.738883972168
-28.6111011505127
-36.8129501342773
-23.9379558563232
-0.47685170173645
9.9185152053833
5.05462789535522
-7.6296272277832
-12.2074031829834
-2.95648050308228
-6.29444265365601
-16.7851791381836
-16.5944385528564
-15.35462474823
-1.52592539787292
18.787956237793
17.5481433868408
9.9185152053833
8.96481227874756
11.3490705490112
17.6435127258301
14.1148099899292
4.57777643203735
5.1499981880188
8.58333015441895
11.5398111343384
18.0249938964844
22.8888816833496
19.1694374084473
12.3981437683105
14.4009208679199
18.3111057281494
20.3138828277588
20.3138828277588
14.7824029922485
15.1638841629028
30.3277683258057
35.4777679443359
18.1203651428223
15.8314762115479
27.3712882995605
27.5620288848877
30.0416564941406
31.8536930084229
27.4666576385498
33.1888771057129
47.5897979736328
48.6388740539551
40.0555419921875
34.2379531860352
20.2185115814209
4.95925760269165
-9.9185152053833
-26.0361022949219
-20.7907333374023
-14.0194396972656
-19.7416610717773
-11.8259220123291
-9.34629344940186
-21.6490669250488
-19.4555492401123
-11.2537002563477
-11.4444408416748
-17.2620315551758
-25.7499923706055
-26.7990646362305
-17.2620315551758
-14.1148099899292
-28.2296199798584
-39.6740608215332
-33.2842483520508
-27.1805477142334
-21.7444381713867
-9.9185152053833
-10.9675893783569
-27.1805477142334
-36.8129501342773
-29.1833248138428
-10.5861072540283
-0.381481349468231
-8.48795986175537
-20.9814739227295
-26.8944358825684
-32.1398048400879
-43.1073951721191
-41.6768379211426
-27.7527694702148
-28.9925842285156
-30.995361328125
-23.1749935150146
-15.2592544555664
-0.190740674734116
13.256477355957
13.1611070632935
4.95925760269165
-3.5287024974823
-14.9731435775757
-29.9462871551514
-38.3388748168945
-39.2925796508789
-39.9601707458496
-38.5296173095703
-27.4666576385498
-8.58333015441895
3.8148136138916
10.204626083374
11.3490705490112
8.96481227874756
10.8722190856934
12.1120328903198
16.8805503845215
26.0361022949219
15.9268465042114
-3.43333220481873
-2.5749990940094
-4.7685170173645
-18.1203651428223
-14.1148099899292
-6.29444265365601
-8.3925895690918
-6.77129411697388
-7.91573810577393
-18.5018463134766
-18.4064750671387
-14.2101802825928
-16.022216796875
-4.7685170173645
1.14444410800934
-10.8722190856934
-12.0166625976563
4.67314672470093
13.7333288192749
-0.286111027002335
-14.687032699585
-10.9675893783569
-3.24259161949158
-4.95925760269165
-10.7768487930298
-16.4990692138672
-14.3055505752563
-5.1499981880188
-2.8611102104187
6.19907188415527
16.5944385528564
11.1583299636841
16.5944385528564
30.6138782501221
26.0361022949219
12.3981437683105
3.5287024974823
1.33518481254578
3.91018390655518
-2.1935179233551
-1.14444410800934
25.177770614624
39.864803314209
31.7583236694336
32.1398048400879
38.7203598022461
31.8536930084229
13.5425882339478
-7.91573810577393
-16.022216796875
-8.10647869110107
-10.1092557907104
-17.9296245574951
-18.3111057281494
-14.3055505752563
-4.95925760269165
-6.86666440963745
-13.8286991119385
-8.29721927642822
-2.1935179233551
10.204626083374
28.2296199798584
24.5101776123047
9.34629344940186
13.256477355957
16.6898097991943
2.5749990940094
-5.62685012817383
-11.7305517196655
-16.8805503845215
-9.9185152053833
-9.72777462005615
-20.3138828277588
-17.738883972168
-4.00555419921875
0
8.20184898376465
20.0277709960938
19.2648086547852
15.8314762115479
4.1962947845459
-27.2759170532227
-88.8851547241211
-158.505508422852
-183.301788330078
-171.761978149414
-166.421249389648
-173.001800537109
-160.41291809082
-113.20458984375
-55.6962776184082
52.7397994995117
264.652679443359
500.312805175781
726.435852050781
987.846008300781
1173.24597167969
1207.10241699219
1191.27087402344
1137.1005859375
981.837646484375
758.098815917969
517.288696289063
277.241577148438
41.3907279968262
-190.16845703125
-403.70263671875
-578.421081542969
-665.589599609375
-662.346984863281
-642.223876953125
-606.555358886719
-542.085021972656
-505.367431640625
-496.497985839844
-489.440582275391
-492.683166503906
-489.535949707031
-465.884124755859
-422.109130859375
-360.023040771484
-300.321197509766
-251.682327270508
-223.261962890625
-232.98974609375
-250.442504882813
-251.968444824219
-249.011962890625
-242.336029052734
-213.62956237793
-195.318450927734
-170.236053466797
-139.431442260742
-125.984222412109
-123.313850402832
-124.744407653809
-137.714767456055
-151.066619873047
-147.34716796875
-121.883293151855
-93.8444137573242
-77.4407196044922
-50.5462799072266
-27.7527694702148
-30.1370277404785
-35.6685066223145
-40.3416519165039
-43.0120239257813
-35.0009155273438
-26.8944358825684
-14.4962921142578
3.62407302856445
13.6379585266113
18.787956237793
19.6462898254395
18.5972156524658
20.3138828277588
22.5074005126953
22.0305480957031
19.9324016571045
32.7120246887207
49.4972076416016
55.4101676940918
60.8462753295898
51.9768333435059
34.0472106933594
33.6657295227051
42.0583190917969
47.017578125
50.1647987365723
59.1296119689941
72.1953506469727
74.6749725341797
82.4953460693359
105.002746582031
114.444404602051
119.59440612793
146.202728271484
164.51383972168
159.936065673828
152.974029541016
132.183288574219
106.433296203613
97.4684906005859
92.0323791503906
92.6999740600586
99.3758926391602
100.615707397461
106.528671264648
124.553665161133
130.561996459961
113.586074829102
96.6101531982422
83.3536758422852
85.1657104492188
102.332374572754
102.141632080078
94.3212661743164
92.318489074707
89.6481170654297
90.8879318237305
84.7842330932617
71.3370132446289
63.8027572631836
55.0286865234375
45.0148010253906
48.4481315612793
70.2879409790039
86.0240478515625
84.7842330932617
78.1083068847656
72.2907180786133
72.9583129882813
71.3370132446289
65.2333145141602
73.4351654052734
85.9286727905273
86.7870101928711
83.4490509033203
83.6397857666016
87.8360824584961
83.6397857666016
61.323127746582
41.0092468261719
35.0009155273438
37.099063873291
46.0638732910156
53.4073905944824
47.3990592956543
31.6629524230957
22.5074005126953
24.4148063659668
30.8046188354492
33.2842483520508
17.2620315551758
0.381481349468231
1.71666610240936
4.29166507720947
14.2101802825928
26.0361022949219
24.9870281219482
28.3249912261963
29.1833248138428
23.0796222686768
16.2129573822021
4.1962947845459
5.53147983551025
8.0111083984375
2.38425850868225
16.4036979675293
23.2703628540039
10.0138854980469
-0.47685170173645
-6.1037015914917
-4.48240613937378
-4.48240613937378
-19.360179901123
-33.4749908447266
-26.8944358825684
-13.6379585266113
-8.3925895690918
-10.2999963760376
-15.9268465042114
-18.2157344818115
-28.3249912261963
-45.2055397033691
-52.5490570068359
-54.6472053527832
-60.4647941589355
-61.6092376708984
-53.9796104431152
-57.6036834716797
-69.1434936523438
-64.9472045898438
-63.8981285095215
-71.1462707519531
-74.6749725341797
-100.615707397461
-134.281433105469
-132.850875854492
-111.1064453125
-98.5175628662109
-96.9916381835938
-97.3731155395508
-97.3731155395508
-98.8036727905273
-96.2286758422852
-100.52033996582
-108.436073303223
-97.4684906005859
-87.9314498901367
-87.7407150268555
-81.6370086669922
-75.247200012207
-68.0944213867188
-68.0944213867188
-83.1629333496094
-75.4379425048828
-61.6092376708984
-38.148136138916
-21.9351787567139
-30.995361328125
-40.7231369018555
-37.1944313049316
-45.8731346130371
-58.7481307983398
-59.1296119689941
-55.0286865234375
-47.5897979736328
-45.7777633666992
-32.2351760864258
-7.91573810577393
-10.9675893783569
-11.7305517196655
7.24814605712891
14.687032699585
11.7305517196655
3.8148136138916
1.43055510520935
4.86388731002808
-2.1935179233551
-6.1037015914917
-6.6759238243103
-16.30832862854
-25.2731399536133
-24.891658782959
-20.8861045837402
-14.9731435775757
-2.95648050308228
-4.1962947845459
-19.5509204864502
-23.4611034393311
-21.839807510376
-12.9703664779663
-0.762962698936462
2.67036962509155
12.0166625976563
23.7472152709961
26.1314735412598
31.4722118377686
38.3388748168945
26.226842880249
12.1120328903198
19.1694374084473
24.4148063659668
17.8342533111572
23.9379558563232
40.2462844848633
41.6768379211426
34.3333206176758
34.9055442810059
40.0555419921875
46.9222068786621
50.7370223999023
42.4398002624512
31.8536930084229
33.8564720153809
35.4777679443359
28.7064723968506
31.4722118377686
39.4833221435547
36.6222114562988
28.3249912261963
23.3657341003418
15.5453653335571
3.33796191215515
-6.6759238243103
-5.34073925018311
3.91018390655518
2.76573991775513
-3.05185079574585
2.67036962509155
4.67314672470093
0
4.67314672470093
7.72499752044678
10.7768487930298
19.4555492401123
22.6027698516846
25.7499923706055
33.2842483520508
28.4203605651855
10.8722190856934
2.8611102104187
4.95925760269165
2.76573991775513
2.67036962509155
5.7222204208374
7.53425693511963
19.4555492401123
32.1398048400879
37.1944313049316
32.4259147644043
15.2592544555664
12.8749961853027
26.1314735412598
25.177770614624
18.5018463134766
15.8314762115479
7.0574049949646
3.24259161949158
11.9212923049927
18.3111057281494
15.5453653335571
5.05462789535522
1.43055510520935
16.4036979675293
20.5999927520752
8.48795986175537
2.76573991775513
-5.43610954284668
-17.6435127258301
-20.409252166748
-8.48795986175537
11.4444408416748
17.8342533111572
11.4444408416748
19.8370304107666
28.9925842285156
27.1805477142334
35.382396697998
28.8972129821777
10.2999963760376
9.63240432739258
8.29721927642822
4.57777643203735
6.38981294631958
7.91573810577393
20.3138828277588
43.7749862670898
53.8842430114746
40.8185043334961
26.5129547119141
25.5592517852783
22.125919342041
15.7361059188843
18.3111057281494
17.2620315551758
14.0194396972656
20.7907333374023
41.5814666748047
64.4703521728516
57.2222023010254
24.3194370269775
5.62685012817383
3.33796191215515
3.147221326828
7.0574049949646
6.48518323898315
2.95648050308228
10.2999963760376
10.204626083374
-5.81759071350098
-7.24814605712891
-7.24814605712891
-22.5074005126953
-20.8861045837402
-18.3111057281494
-21.2675857543945
-16.5944385528564
-20.6953639984131
-10.2999963760376
6.1037015914917
-6.58055353164673
-14.4009208679199
-0.190740674734116
2.38425850868225
-0.286111027002335
5.1499981880188
-0.572222054004669
-9.06018257141113
-7.82036781311035
-18.0249938964844
-36.7175827026367
-37.5759124755859
-27.0851764678955
-15.4499950408936
-3.5287024974823
-3.33796191215515
-9.9185152053833
-15.4499950408936
-21.839807510376
-23.6518440246582
-27.3712882995605
-26.4175834655762
-12.3981437683105
-5.53147983551025
-5.81759071350098
-0.190740674734116
4.7685170173645
2.1935179233551
-4.48240613937378
-5.05462789535522
4.00555419921875
12.4935140609741
10.1092557907104
9.06018257141113
15.5453653335571
5.53147983551025
-16.30832862854
-22.7935104370117
-28.2296199798584
-39.6740608215332
-33.8564720153809
-18.1203651428223
-12.6842555999756
-11.0629596710205
-3.5287024974823
5.1499981880188
8.96481227874756
-2.95648050308228
-15.7361059188843
-12.9703664779663
-17.1666603088379
-26.7990646362305
-31.0907306671143
-31.8536930084229
-33.3796195983887
-41.8675804138184
-38.4342460632324
-17.5481433868408
-14.4009208679199
-26.1314735412598
-20.8861045837402
-22.6027698516846
-41.962947845459
-48.8296127319336
-42.5351715087891
-27.8481388092041
-15.35462474823
-20.6953639984131
-23.8425846099854
-16.4036979675293
-17.4527721405029
-21.7444381713867
-9.15555286407471
6.19907188415527
1.23981440067291
-5.24536848068237
-2.38425850868225
-6.6759238243103
-22.6981410980225
-30.8046188354492
-22.8888816833496
-21.3629570007324
-27.0851764678955
-29.1833248138428
-42.3444290161133
-56.8407211303711
-57.6990547180176
-64.4703521728516
-75.3425674438477
-68.6666412353516
-44.9194297790527
-28.8972129821777
-34.7148017883301
-45.2055397033691
-39.864803314209
-24.891658782959
-24.891658782959
-27.0851764678955
-13.3518476486206
-9.9185152053833
-22.9842510223389
-27.7527694702148
-10.6814785003662
11.9212923049927
13.6379585266113
-0.0953703373670578
-14.7824029922485
-11.635181427002
-7.15277528762817
-20.409252166748
-10.5861072540283
7.82036781311035
4.7685170173645
18.0249938964844
38.148136138916
44.1564674377441
56.6499824523926
64.4703521728516
69.7157211303711
79.3481216430664
75.3425674438477
68.2851638793945
66.3777542114258
63.1351661682129
51.8814659118652
36.7175827026367
36.7175827026367
37.5759124755859
33.8564720153809
28.8972129821777
15.0685138702393
11.0629596710205
10.0138854980469
7.82036781311035
12.8749961853027
9.63240432739258
4.57777643203735
1.43055510520935
-1.43055510520935
1.52592539787292
6.86666440963745
10.5861072540283
8.48795986175537
3.5287024974823
4.67314672470093
4.38703584671021
-5.05462789535522
-3.8148136138916
7.82036781311035
9.63240432739258
8.96481227874756
10.2999963760376
17.8342533111572
31.1861019134521
39.0064697265625
42.8212814331055
45.0148010253906
48.066650390625
41.7722091674805
20.5999927520752
23.0796222686768
43.5842437744141
38.4342460632324
35.1916542053223
41.3907279968262
27.1805477142334
18.1203651428223
26.7036952972412
24.4148063659668
11.4444408416748
13.3518476486206
25.0823993682861
29.3740653991699
19.5509204864502
-17.738883972168
-86.6916351318359
-164.990692138672
-196.081420898438
-188.547164916992
-192.075866699219
-186.830490112305
-172.429580688477
-142.769393920898
-84.5934906005859
14.8777732849121
209.719375610352
447.096160888672
681.32568359375
943.403381347656
1137.00524902344
1189.07739257813
1175.34411621094
1130.42468261719
988.036743164063
751.422912597656
515.762817382813
304.898986816406
86.5009002685547
-140.861999511719
-366.508209228516
-548.95166015625
-628.967407226563
-636.120178222656
-624.294250488281
-589.197937011719
-546.090576171875
-527.111877441406
-517.384094238281
-498.977630615234
-497.451690673828
-504.604461669922
-474.276702880859
-417.340606689453
-364.123962402344
-308.904541015625
-261.505462646484
-224.120300292969
-204.187896728516
-219.256408691406
-237.949005126953
-242.812881469727
-244.529556274414
-237.853622436523
-211.53141784668
-171.666610717773
-132.374038696289
-101.474044799805
-91.6508941650391
-98.1360778808594
-116.44718170166
-144.676803588867
-141.052734375
-111.297187805176
-100.901817321777
-90.3157119750977
-64.2796096801758
-43.4888763427734
-33.0935096740723
-39.0064697265625
-50.9277610778809
-55.1240577697754
-55.9823913574219
-49.0203552246094
-39.3879508972168
-30.5185089111328
-14.5916624069214
-1.33518481254578
2.5749990940094
-0.381481349468231
-0.190740674734116
9.82314491271973
16.9759197235107
21.2675857543945
28.3249912261963
35.2870254516602
42.7259140014648
52.2629470825195
55.7916488647461
53.3120193481445
57.2222023010254
64.5657196044922
65.0425720214844
59.7972030639648
64.9472045898438
69.0481262207031
61.0370178222656
65.805534362793
73.7212753295898
80.778678894043
95.2749710083008
101.474044799805
110.343482971191
115.49348449707
113.013854980469
111.678665161133
96.13330078125
86.5962677001953
87.3592300415039
77.5360870361328
80.2064590454102
92.986083984375
92.8907089233398
90.0296020507813
92.1277465820313
92.1277465820313
83.0675659179688
67.8083114624023
57.3175735473633
59.0342407226563
65.0425720214844
74.8657150268555
88.0268249511719
88.4083023071289
85.7379379272461
92.4138565063477
88.5036773681641
68.2851638793945
53.9796104431152
45.4916534423828
40.4370231628418
60.7509078979492
87.0731201171875
87.7407150268555
77.2499771118164
77.2499771118164
71.9092330932617
46.5407257080078
40.2462844848633
63.8027572631836
74.5796051025391
70.0018310546875
74.4842376708984
85.8333053588867
90.6018218994141
88.4083023071289
82.9721984863281
74.1027526855469
58.5573883056641
45.2055397033691
41.962947845459
34.9055442810059
37.4805450439453
57.9851684570313
70.0971984863281
73.7212753295898
70.4786834716797
60.6555366516113
53.8842430114746
40.913875579834
28.1342506408691
27.4666576385498
36.6222114562988
49.1157264709473
50.355541229248
43.7749862670898
41.962947845459
33.1888771057129
15.2592544555664
10.2999963760376
17.738883972168
29.0879535675049
43.2981338500977
49.5925750732422
50.0694274902344
46.4453544616699
44.5379486083984
43.1073951721191
28.1342506408691
13.4472179412842
3.147221326828
-7.24814605712891
-10.9675893783569
-18.0249938964844
-21.7444381713867
-12.9703664779663
-19.074068069458
-33.761100769043
-27.657398223877
-27.7527694702148
-46.0638732910156
-55.6009063720703
-62.8490524291992
-66.3777542114258
-64.3749771118164
-72.9583129882813
-76.9638671875
-72.7675704956055
-84.1166381835938
-94.2258987426758
-88.7897872924805
-84.4981231689453
-82.9721984863281
-93.8444137573242
-106.719413757324
-104.525894165039
-109.389778137207
-109.580520629883
-91.4601593017578
-79.3481216430664
-74.6749725341797
-73.1490478515625
-73.9120101928711
-70.6694183349609
-71.3370132446289
-71.0509033203125
-68.1897964477539
-78.2036819458008
-89.3620071411133
-87.5499725341797
-88.8851547241211
-90.6018218994141
-75.5333099365234
-55.5055389404297
-45.6823921203613
-49.5925750732422
-56.6499824523926
-49.2110939025879
-44.5379486083984
-57.6990547180176
-67.903678894043
-62.5629425048828
-48.734245300293
-37.099063873291
-35.6685066223145
-45.300910949707
-47.2083168029785
-38.5296173095703
-41.6768379211426
-40.7231369018555
-21.839807510376
-10.204626083374
-3.24259161949158
-0.572222054004669
-7.72499752044678
-3.05185079574585
5.62685012817383
6.58055353164673
1.71666610240936
-3.147221326828
4.86388731002808
8.77407169342041
-3.24259161949158
-14.4962921142578
-17.6435127258301
-17.5481433868408
-17.2620315551758
-11.7305517196655
-1.33518481254578
2.47962880134583
0.190740674734116
2.00277709960938
5.53147983551025
6.00833129882813
6.6759238243103
4.1962947845459
1.14444410800934
1.23981440067291
-4.7685170173645
0.762962698936462
22.5074005126953
22.6027698516846
11.635181427002
16.9759197235107
15.9268465042114
7.53425693511963
10.0138854980469
13.7333288192749
11.5398111343384
7.91573810577393
1.81203651428223
-0.47685170173645
2.5749990940094
2.1935179233551
-0.47685170173645
-5.7222204208374
-11.3490705490112
-8.29721927642822
-1.9074068069458
-1.33518481254578
-5.43610954284668
-0.47685170173645
16.9759197235107
23.7472152709961
18.8833274841309
18.1203651428223
19.074068069458
19.8370304107666
25.3685111999512
39.864803314209
57.9851684570313
56.1731300354004
41.8675804138184
38.9110984802246
33.5703582763672
24.7962875366211
23.2703628540039
20.2185115814209
26.4175834655762
39.7694320678711
37.4805450439453
24.6055469512939
25.8453617095947
44.9194297790527
52.8351669311523
48.066650390625
51.7860946655273
47.6851692199707
32.4259147644043
25.3685111999512
24.891658782959
27.657398223877
40.1509132385254
46.1592445373535
38.2435073852539
35.2870254516602
23.8425846099854
2.28888821601868
-3.71944332122803
-1.9074068069458
-1.43055510520935
-4.95925760269165
-14.9731435775757
-14.1148099899292
-7.6296272277832
-10.7768487930298
-12.0166625976563
-6.77129411697388
-0.858333051204681
-6.96203470230103
-9.537034034729
7.0574049949646
13.3518476486206
7.53425693511963
-6.29444265365601
-21.1722145080566
-19.5509204864502
-18.4064750671387
-25.6546211242676
-31.9490642547607
-22.5074005126953
-4.86388731002808
-6.19907188415527
-14.1148099899292
-6.77129411697388
2.5749990940094
-1.81203651428223
-13.7333288192749
-9.06018257141113
2.8611102104187
-4.10092449188232
-9.34629344940186
-3.71944332122803
-1.23981440067291
1.62129580974579
3.43333220481873
1.81203651428223
-3.71944332122803
-5.1499981880188
-0.9537034034729
-0.9537034034729
-4.1962947845459
-9.72777462005615
-14.4009208679199
-10.8722190856934
-7.15277528762817
-3.147221326828
6.6759238243103
2.76573991775513
0
18.5018463134766
21.6490669250488
18.5972156524658
33.3796195983887
34.9055442810059
19.074068069458
11.0629596710205
13.9240694046021
18.787956237793
12.588885307312
-0.0953703373670578
5.1499981880188
9.25092315673828
-1.62129580974579
-3.8148136138916
-4.7685170173645
-7.43888664245605
-1.9074068069458
7.34351634979248
19.2648086547852
23.1749935150146
17.738883972168
10.8722190856934
-0.381481349468231
5.34073925018311
20.5046234130859
18.2157344818115
22.9842510223389
32.04443359375
26.5129547119141
25.4638805389404
25.0823993682861
8.3925895690918
-0.667592406272888
7.6296272277832
9.25092315673828
8.20184898376465
17.357400894165
16.30832862854
7.43888664245605
16.2129573822021
19.8370304107666
3.62407302856445
2.95648050308228
16.6898097991943
17.8342533111572
12.2074031829834
-0.572222054004669
-14.2101802825928
-14.687032699585
-12.302773475647
-5.91296100616455
0.286111027002335
-0.667592406272888
-6.77129411697388
-20.5046234130859
-21.839807510376
-8.3925895690918
-8.29721927642822
-15.0685138702393
-15.9268465042114
-20.1231422424316
-17.8342533111572
-3.62407302856445
1.52592539787292
-4.29166507720947
1.81203651428223
15.2592544555664
9.537034034729
1.43055510520935
14.2101802825928
28.3249912261963
17.738883972168
-0.572222054004669
-8.67870044708252
-13.256477355957
-14.9731435775757
-16.1175880432129
-15.4499950408936
-13.5425882339478
-16.7851791381836
-19.9324016571045
-19.5509204864502
-18.6925868988037
-20.9814739227295
-23.1749935150146
-21.0768451690674
-17.9296245574951
-12.7796258926392
-10.9675893783569
-18.2157344818115
-18.0249938964844
-5.7222204208374
-1.23981440067291
0.572222054004669
6.00833129882813
2.67036962509155
6.6759238243103
13.0657367706299
0.286111027002335
-10.2999963760376
-14.3055505752563
-26.8944358825684
-30.6138782501221
-24.7009181976318
-28.3249912261963
-27.4666576385498
-15.1638841629028
0.572222054004669
5.34073925018311
-16.6898097991943
-27.0851764678955
-6.58055353164673
10.6814785003662
10.0138854980469
2.00277709960938
12.9703664779663
23.8425846099854
10.5861072540283
6.48518323898315
13.9240694046021
7.24814605712891
0.381481349468231
1.43055510520935
-10.7768487930298
-22.0305480957031
-19.5509204864502
-26.1314735412598
-36.431468963623
-37.6712837219238
-28.4203605651855
-13.256477355957
-5.34073925018311
-3.71944332122803
1.71666610240936
4.67314672470093
-8.96481227874756
-25.2731399536133
-30.3277683258057
-27.5620288848877
-11.4444408416748
-1.14444410800934
-16.5944385528564
-31.9490642547607
-34.9055442810059
-27.657398223877
-12.0166625976563
-4.7685170173645
-6.96203470230103
-14.4009208679199
-19.9324016571045
-15.8314762115479
-8.48795986175537
-3.05185079574585
-2.09814739227295
-0.762962698936462
2.28888821601868
5.62685012817383
7.6296272277832
4.7685170173645
-2.5749990940094
-4.1962947845459
2.95648050308228
7.91573810577393
3.8148136138916
0.858333051204681
9.63240432739258
17.2620315551758
19.2648086547852
29.3740653991699
37.6712837219238
36.7175827026367
42.2490615844727
48.2573928833008
36.5268402099609
28.3249912261963
41.1046180725098
44.3472061157227
38.9110984802246
41.6768379211426
36.6222114562988
32.9981384277344
29.4694347381592
-7.6296272277832
-77.9175643920898
-150.971252441406
-186.258270263672
-174.146240234375
-156.598098754883
-161.652725219727
-170.9990234375
-137.524032592773
-62.7536849975586
25.2731399536133
175.1953125
373.088775634766
566.118347167969
807.023803710938
1033.90991210938
1104.77001953125
1075.58666992188
1032.86083984375
939.207092285156
770.687744140625
560.396118164063
355.826751708984
155.167541503906
-75.247200012207
-287.732330322266
-441.564666748047
-554.769287109375
-599.497985839844
-583.38037109375
-565.450744628906
-542.6572265625
-501.552612304688
-482.287811279297
-490.775756835938
-489.440582275391
-482.860015869141
-463.976715087891
-425.923950195313
-383.293395996094
-322.54248046875
-259.598052978516
-223.834182739258
-219.92399597168
-234.706405639648
-239.379547119141
-241.859176635742
-251.110107421875
-232.79899597168
-197.702713012695
-174.909210205078
-143.15087890625
-107.100891113281
-87.9314498901367
-84.0212707519531
-100.806449890137
-114.34903717041
-111.869407653809
-122.93236541748
-123.886070251465
-95.5610809326172
-72.4814605712891
-54.3610954284668
-36.2407302856445
-32.04443359375
-30.6138782501221
-33.1888771057129
-48.734245300293
-45.2055397033691
-16.022216796875
3.43333220481873
4.67314672470093
9.15555286407471
18.2157344818115
16.7851791381836
18.787956237793
33.0935096740723
38.2435073852539
41.1999855041504
55.1240577697754
72.7675704956055
96.7055282592773
110.629592895508
100.138854980469
91.5555267333984
92.8907089233398
83.7351608276367
76.2009048461914
77.5360870361328
76.9638671875
73.8166427612305
70.2879409790039
63.8981285095215
60.8462753295898
63.8981285095215
67.6175689697266
71.0509033203125
69.3342361450195
59.7972030639648
52.2629470825195
51.5953521728516
54.0749816894531
54.8379440307617
48.9249839782715
47.5897979736328
55.3147964477539
61.6092376708984
64.5657196044922
67.7129440307617
68.7620162963867
50.6416511535645
25.5592517852783
15.0685138702393
19.360179901123
42.630542755127
57.3175735473633
52.5490570068359
63.8981285095215
80.4925689697266
77.1546020507813
70.2879409790039
70.8601608276367
70.3833084106445
65.6147918701172
61.0370178222656
61.2277565002441
63.8027572631836
70.4786834716797
84.6888580322266
83.925895690918
72.7675704956055
70.2879409790039
64.9472045898438
51.0231323242188
31.7583236694336
20.409252166748
35.0962867736816
60.4647941589355
68.3805313110352
64.8518295288086
74.198127746582
89.9342269897461
81.9231185913086
63.9934997558594
58.9388694763184
55.219425201416
54.0749816894531
51.3092422485352
46.3499870300293
58.9388694763184
76.9638671875
79.5388641357422
70.8601608276367
58.1759071350098
49.1157264709473
50.7370223999023
58.5573883056641
68.5712738037109
80.111083984375
78.394416809082
73.3397903442383
82.6860809326172
84.0212707519531
72.5768280029297
57.1268348693848
49.1157264709473
62.4675712585449
74.4842376708984
74.9610900878906
81.5416412353516
91.0786743164063
80.3971939086914
61.7999801635742
53.4073905944824
39.3879508972168
28.7064723968506
25.3685111999512
8.96481227874756
-0.572222054004669
0.9537034034729
-8.86944198608398
-9.06018257141113
-5.43610954284668
-22.7935104370117
-40.4370231628418
-53.8842430114746
-58.9388694763184
-44.6333198547363
-39.197208404541
-49.6879463195801
-56.1731300354004
-59.2249794006348
-65.3286819458008
-83.3536758422852
-103.858299255371
-111.774040222168
-117.686996459961
-117.877738952637
-111.678665161133
-122.741630554199
-133.804580688477
-124.93514251709
-113.490707397461
-112.155517578125
-107.95922088623
-98.4221878051758
-89.9342269897461
-74.9610900878906
-72.9583129882813
-95.084228515625
-103.667556762695
-96.0379333496094
-92.1277465820313
-87.2638626098633
-82.9721984863281
-82.7814559936523
-98.0407104492188
-116.065704345703
-97.3731155395508
-58.9388694763184
-39.0064697265625
-26.5129547119141
-20.5046234130859
-31.4722118377686
-27.7527694702148
-15.35462474823
-19.9324016571045
-25.4638805389404
-26.4175834655762
-18.0249938964844
-3.33796191215515
8.48795986175537
17.9296245574951
15.35462474823
6.58055353164673
0.190740674734116
-5.24536848068237
-16.8805503845215
-34.4286918640137
-39.7694320678711
-25.4638805389404
-13.3518476486206
-21.4583263397217
-22.6027698516846
-9.25092315673828
-3.33796191215515
4.7685170173645
6.86666440963745
4.67314672470093
10.8722190856934
4.10092449188232
-10.9675893783569
-21.0768451690674
-14.3055505752563
-8.0111083984375
5.81759071350098
14.1148099899292
18.8833274841309
23.3657341003418
28.9925842285156
27.943510055542
16.5944385528564
6.48518323898315
4.10092449188232
5.53147983551025
11.635181427002
10.5861072540283
1.71666610240936
2.47962880134583
4.00555419921875
-1.71666610240936
2.8611102104187
13.8286991119385
10.9675893783569
-1.14444410800934
-2.1935179233551
12.1120328903198
24.4148063659668
22.4120292663574
13.8286991119385
6.19907188415527
2.95648050308228
7.34351634979248
14.5916624069214
15.6407356262207
25.177770614624
43.9657249450684
53.9796104431152
66.5684967041016
76.0101623535156
64.6610870361328
40.7231369018555
20.8861045837402
21.2675857543945
31.0907306671143
29.7555465698242
33.8564720153809
43.9657249450684
37.099063873291
31.6629524230957
38.2435073852539
45.4916534423828
53.5027618408203
50.1647987365723
30.6138782501221
25.2731399536133
36.6222114562988
36.8129501342773
28.2296199798584
23.2703628540039
19.2648086547852
12.1120328903198
10.5861072540283
10.6814785003662
4.86388731002808
7.6296272277832
20.2185115814209
13.9240694046021
-3.05185079574585
1.43055510520935
8.10647869110107
6.29444265365601
4.00555419921875
-2.95648050308228
-4.38703584671021
-12.4935140609741
-27.3712882995605
-17.9296245574951
-10.4907369613647
-16.5944385528564
-9.15555286407471
-1.14444410800934
3.33796191215515
8.10647869110107
0
-11.9212923049927
-10.8722190856934
-5.24536848068237
-0.858333051204681
13.8286991119385
21.7444381713867
12.302773475647
10.4907369613647
18.5972156524658
20.8861045837402
16.4990692138672
5.43610954284668
-6.96203470230103
-5.34073925018311
6.86666440963745
6.38981294631958
-11.0629596710205
-23.4611034393311
-26.4175834655762
-30.8046188354492
-31.5675830841064
-22.6981410980225
-16.30832862854
-21.1722145080566
-20.409252166748
-19.6462898254395
-33.9518394470215
-45.1101722717285
-47.9712791442871
-47.4944305419922
-40.7231369018555
-34.3333206176758
-30.2323970794678
-29.7555465698242
-24.6055469512939
-13.3518476486206
-12.1120328903198
-14.5916624069214
-18.3111057281494
-35.4777679443359
-47.9712791442871
-39.2925796508789
-24.9870281219482
-14.5916624069214
-7.91573810577393
-5.7222204208374
-8.3925895690918
-5.62685012817383
9.9185152053833
14.8777732849121
10.0138854980469
12.9703664779663
10.204626083374
-0.47685170173645
-4.29166507720947
-1.43055510520935
-2.8611102104187
-7.15277528762817
-12.1120328903198
-21.7444381713867
-34.1425819396973
-39.4833221435547
-35.382396697998
-31.0907306671143
-29.9462871551514
-35.7638778686523
-41.4860992431641
-38.5296173095703
-36.8129501342773
-35.8592491149902
-35.1916542053223
-33.761100769043
-23.6518440246582
-19.2648086547852
-28.1342506408691
-40.4370231628418
-45.9685020446777
-43.0120239257813
-42.3444290161133
-37.3851737976074
-24.7009181976318
-22.6981410980225
-19.6462898254395
-4.29166507720947
-1.33518481254578
0.381481349468231
14.4962921142578
18.6925868988037
17.1666603088379
13.4472179412842
7.34351634979248
10.2999963760376
6.00833129882813
-5.53147983551025
-11.0629596710205
-14.9731435775757
-6.58055353164673
8.48795986175537
19.9324016571045
32.2351760864258
39.9601707458496
41.2953567504883
39.4833221435547
37.099063873291
31.9490642547607
19.6462898254395
8.0111083984375
7.0574049949646
10.0138854980469
16.30832862854
29.8509159088135
34.1425819396973
28.1342506408691
20.6953639984131
10.7768487930298
12.3981437683105
21.839807510376
18.9786968231201
11.3490705490112
15.2592544555664
25.6546211242676
27.657398223877
24.1286964416504
27.1805477142334
32.4259147644043
30.8999900817871
23.6518440246582
11.9212923049927
7.53425693511963
15.1638841629028
14.9731435775757
16.4990692138672
30.4231376647949
27.657398223877
26.1314735412598
21.4583263397217
6.6759238243103
-0.667592406272888
2.38425850868225
5.62685012817383
9.25092315673828
2.76573991775513
-11.9212923049927
-16.1175880432129
-6.29444265365601
6.48518323898315
5.34073925018311
-7.0574049949646
0
15.9268465042114
20.8861045837402
33.3796195983887
38.8157272338867
30.6138782501221
29.4694347381592
32.6166572570801
29.0879535675049
17.5481433868408
16.30832862854
21.7444381713867
8.58333015441895
-1.43055510520935
3.43333220481873
-2.8611102104187
-14.4009208679199
-7.91573810577393
2.67036962509155
2.67036962509155
5.43610954284668
3.8148136138916
-10.5861072540283
-15.2592544555664
-21.1722145080566
-32.1398048400879
-20.8861045837402
-10.8722190856934
-9.63240432739258
0
-2.00277709960938
-11.1583299636841
-9.15555286407471
-12.4935140609741
-18.3111057281494
-10.8722190856934
-2.38425850868225
0
1.9074068069458
8.29721927642822
17.357400894165
20.6953639984131
21.3629570007324
8.58333015441895
-12.6842555999756
-31.7583236694336
-83.2583084106445
-155.358276367188
-193.792526245117
-192.648086547852
-176.435134887695
-164.036987304688
-160.508285522461
-143.246246337891
-84.3073806762695
10.7768487930298
161.461990356445
366.698944091797
569.742431640625
798.726623535156
1031.71630859375
1138.05432128906
1129.18481445313
1085.6005859375
991.8515625
818.46826171875
596.636840820313
381.576721191406
180.059204101563
-37.5759124755859
-250.442504882813
-425.923950195313
-555.818359375
-605.697021484375
-596.25537109375
-578.89794921875
-541.894287109375
-506.225769042969
-512.615600585938
-529.877624511719
-533.215576171875
-531.88037109375
-511.757232666016
-470.366516113281
-425.25634765625
-366.603576660156
-293.931396484375
-235.850845336914
-207.716598510742
-212.294372558594
-234.801773071289
-253.494369506836
-256.260101318359
-241.47770690918
-216.872146606445
-177.102722167969
-135.711990356445
-116.35181427002
-100.615707397461
-86.5962677001953
-100.52033996582
-124.649032592773
-125.221252441406
-105.574966430664
-86.3101577758789
-64.3749771118164
-31.0907306671143
-15.35462474823
-20.9814739227295
-22.125919342041
-28.5157318115234
-43.1073951721191
-40.1509132385254
-34.4286918640137
-40.2462844848633
-22.8888816833496
12.6842555999756
33.0935096740723
34.3333206176758
29.278694152832
27.1805477142334
29.6601753234863
32.3305435180664
32.9981384277344
34.3333206176758
36.8129501342773
39.7694320678711
42.7259140014648
47.7805404663086
58.8434982299805
67.0453491210938
64.5657196044922
66.0916442871094
76.2009048461914
79.5388641357422
81.3508987426758
87.5499725341797
90.5064544677734
98.7083053588867
103.190704345703
105.956443786621
120.83422088623
119.975891113281
107.86385345459
111.869407653809
117.59162902832
107.673110961914
91.9370040893555
90.5064544677734
92.7953414916992
81.827751159668
71.9092330932617
68.2851638793945
68.7620162963867
79.9203414916992
76.5823822021484
84.5934906005859
81.16015625
61.7046089172363
47.2083168029785
50.4509086608887
54.6472053527832
58.2712783813477
75.0564575195313
78.1083068847656
63.9934997558594
58.4620170593262
46.7314682006836
38.0527648925781
47.9712791442871
57.4129447937012
61.6092376708984
65.9962768554688
73.8166427612305
85.8333053588867
83.6397857666016
60.9416465759277
43.7749862670898
41.8675804138184
41.3907279968262
45.4916534423828
58.7481307983398
59.9879455566406
56.936092376709
69.6203460693359
75.1518249511719
71.1462707519531
67.4268264770508
49.4972076416016
38.3388748168945
33.0935096740723
19.1694374084473
26.7990646362305
53.2166481018066
69.8110885620117
68.2851638793945
63.7073860168457
52.5490570068359
24.0333251953125
10.8722190856934
16.4990692138672
18.9786968231201
36.0499877929688
59.8925743103027
69.5249786376953
73.2444229125977
62.7536849975586
40.0555419921875
30.8999900817871
32.1398048400879
28.2296199798584
22.7935104370117
28.5157318115234
45.2055397033691
55.3147964477539
42.8212814331055
27.2759170532227
22.7935104370117
12.8749961853027
10.6814785003662
13.4472179412842
-1.23981440067291
-13.6379585266113
-13.8286991119385
-16.8805503845215
-26.5129547119141
-27.943510055542
-19.8370304107666
-25.5592517852783
-44.1564674377441
-63.039794921875
-80.6833038330078
-86.2147903442383
-83.5444183349609
-77.5360870361328
-69.3342361450195
-71.7184982299805
-79.8249740600586
-87.8360824584961
-101.37866973877
-106.433296203613
-101.760154724121
-111.1064453125
-121.311073303223
-111.774040222168
-100.997192382813
-101.187927246094
-106.147186279297
-108.912925720215
-114.158294677734
-122.074035644531
-112.060150146484
-96.7055282592773
-92.5092315673828
-78.7759017944336
-70.8601608276367
-74.9610900878906
-61.1323890686035
-48.2573928833008
-55.1240577697754
-58.3666496276855
-51.9768333435059
-52.7397994995117
-52.0722045898438
-49.3064651489258
-48.2573928833008
-40.2462844848633
-41.3907279968262
-47.1129493713379
-38.9110984802246
-25.7499923706055
-16.6898097991943
-15.4499950408936
-27.8481388092041
-37.8620262145996
-23.8425846099854
-4.10092449188232
8.20184898376465
12.1120328903198
4.48240613937378
-2.09814739227295
-11.2537002563477
-17.6435127258301
-8.20184898376465
-0.9537034034729
-2.67036962509155
-7.82036781311035
-9.63240432739258
3.5287024974823
12.4935140609741
10.1092557907104
14.9731435775757
14.9731435775757
13.5425882339478
28.7064723968506
35.6685066223145
22.3166599273682
13.3518476486206
9.9185152053833
-2.09814739227295
-8.10647869110107
-2.1935179233551
8.77407169342041
21.9351787567139
20.9814739227295
12.9703664779663
14.4009208679199
9.15555286407471
-3.43333220481873
-6.38981294631958
-5.34073925018311
-2.8611102104187
9.34629344940186
17.357400894165
17.738883972168
22.2212886810303
17.0712909698486
6.58055353164673
7.0574049949646
9.25092315673828
9.72777462005615
14.8777732849121
22.125919342041
24.0333251953125
20.5999927520752
21.4583263397217
30.1370277404785
36.9083213806152
31.0907306671143
28.8018417358398
40.3416519165039
46.5407257080078
52.3583183288574
59.0342407226563
49.4018363952637
34.810173034668
31.2814712524414
31.3768424987793
29.0879535675049
33.2842483520508
38.148136138916
36.2407302856445
36.9083213806152
33.9518394470215
31.5675830841064
32.7120246887207
15.6407356262207
0.286111027002335
7.24814605712891
17.357400894165
28.8972129821777
39.5786895751953
45.9685020446777
61.99072265625
66.5684967041016
46.2546157836914
34.6194343566895
28.8972129821777
18.1203651428223
21.7444381713867
19.7416610717773
1.81203651428223
4.29166507720947
13.0657367706299
2.38425850868225
4.00555419921875
15.9268465042114
6.77129411697388
-4.48240613937378
7.0574049949646
10.4907369613647
19.074068069458
25.0823993682861
22.4120292663574
22.2212886810303
15.7361059188843
3.71944332122803
-0.9537034034729
-12.2074031829834
-20.5046234130859
-16.9759197235107
-10.204626083374
-1.14444410800934
3.62407302856445
1.14444410800934
-2.67036962509155
2.67036962509155
4.7685170173645
-6.00833129882813
-7.91573810577393
-2.28888821601868
3.43333220481873
6.96203470230103
5.1499981880188
13.0657367706299
12.588885307312
4.86388731002808
11.1583299636841
-0.381481349468231
-18.3111057281494
-11.0629596710205
-8.58333015441895
-21.2675857543945
-29.3740653991699
-26.226842880249
-13.5425882339478
-10.1092557907104
-16.8805503845215
-10.0138854980469
-0.667592406272888
-5.91296100616455
-6.86666440963745
-4.1962947845459
-10.2999963760376
-11.1583299636841
-7.34351634979248
-11.7305517196655
-16.022216796875
-22.6981410980225
-26.3222141265869
-9.25092315673828
13.1611070632935
17.9296245574951
13.7333288192749
8.3925895690918
5.62685012817383
3.05185079574585
-7.0574049949646
-9.15555286407471
-0.190740674734116
3.62407302856445
1.43055510520935
1.14444410800934
8.58333015441895
18.0249938964844
17.8342533111572
10.1092557907104
6.48518323898315
7.0574049949646
6.38981294631958
7.91573810577393
11.1583299636841
4.86388731002808
-6.96203470230103
-12.2074031829834
-18.5018463134766
-20.0277709960938
-12.588885307312
-10.6814785003662
-8.48795986175537
-5.81759071350098
-14.2101802825928
-21.839807510376
-19.5509204864502
-23.5564746856689
-33.5703582763672
-30.8046188354492
-19.2648086547852
-14.8777732849121
-25.4638805389404
-32.4259147644043
-30.6138782501221
-32.6166572570801
-28.8972129821777
-19.074068069458
-11.9212923049927
0.9537034034729
9.72777462005615
1.52592539787292
-12.3981437683105
-22.2212886810303
-17.6435127258301
-11.0629596710205
-20.5999927520752
-21.7444381713867
-11.7305517196655
-13.7333288192749
-23.7472152709961
-26.0361022949219
-20.9814739227295
-18.9786968231201
-14.5916624069214
-13.9240694046021
-16.6898097991943
-8.0111083984375
-2.1935179233551
0.381481349468231
8.29721927642822
6.58055353164673
4.00555419921875
7.34351634979248
0.190740674734116
-16.4990692138672
-23.0796222686768
-19.9324016571045
-23.1749935150146
-19.2648086547852
-3.71944332122803
6.19907188415527
12.2074031829834
12.4935140609741
15.8314762115479
29.1833248138428
32.5212860107422
17.9296245574951
-3.71944332122803
-6.1037015914917
8.10647869110107
-0.381481349468231
-17.0712909698486
-11.7305517196655
-0.858333051204681
6.48518323898315
11.9212923049927
10.7768487930298
2.67036962509155
-7.0574049949646
-4.29166507720947
0.381481349468231
-12.8749961853027
-18.0249938964844
-0.9537034034729
11.1583299636841
10.9675893783569
3.43333220481873
-4.38703584671021
-14.4009208679199
-19.8370304107666
-3.147221326828
6.48518323898315
4.00555419921875
16.30832862854
31.5675830841064
32.7120246887207
20.2185115814209
10.7768487930298
7.91573810577393
0.9537034034729
4.57777643203735
12.8749961853027
8.96481227874756
7.82036781311035
6.58055353164673
2.1935179233551
0.286111027002335
-8.77407169342041
-15.0685138702393
-13.5425882339478
-14.2101802825928
-15.1638841629028
-12.2074031829834
1.23981440067291
12.8749961853027
8.96481227874756
-4.7685170173645
-8.77407169342041
3.05185079574585
10.0138854980469
16.5944385528564
20.7907333374023
11.2537002563477
4.00555419921875
0.47685170173645
2.67036962509155
12.588885307312
11.4444408416748
7.24814605712891
19.4555492401123
30.995361328125
25.7499923706055
24.3194370269775
23.6518440246582
7.72499752044678
9.72777462005615
29.7555465698242
34.810173034668
23.6518440246582
1.04907369613647
-16.022216796875
-13.256477355957
-7.34351634979248
-8.86944198608398
-11.7305517196655
-15.0685138702393
-19.074068069458
-16.022216796875
-11.4444408416748
5.81759071350098
9.34629344940186
-18.6925868988037
-62.2768325805664
-120.452735900879
-184.732345581055
-213.343444824219
-210.100860595703
-207.907333374023
-208.574935913086
-194.078643798828
-138.382369995117
-63.7073860168457
39.9601707458496
232.322143554688
461.878570556641
688.859985351563
940.828430175781
1126.60986328125
1180.01721191406
1178.30053710938
1125.56079101563
962.572814941406
724.14697265625
477.328552246094
248.344360351563
27.5620288848877
-204.569381713867
-416.768371582031
-573.366455078125
-664.635925292969
-686.857177734375
-672.265502929688
-639.362731933594
-578.039611816406
-528.160949707031
-521.580383300781
-513.950744628906
-495.830383300781
-488.010040283203
-473.704467773438
-434.697998046875
-382.43505859375
-333.796203613281
-281.151763916016
-240.333251953125
-236.041595458984
-253.875839233398
-268.372131347656
-269.802703857422
-256.164733886719
-228.69807434082
-193.124938964844
-146.870330810547
-105.86107635498
-94.416633605957
-97.849967956543
-98.3268203735352
-91.5555267333984
-89.3620071411133
-96.7055282592773
-91.8416366577148
-67.1407165527344
-32.8073959350586
-10.3953666687012
-6.6759238243103
-0.286111027002335
1.14444410800934
-16.4990692138672
-27.5620288848877
-27.4666576385498
-20.9814739227295
-9.06018257141113
4.67314672470093
19.8370304107666
19.360179901123
12.302773475647
15.8314762115479
16.8805503845215
5.43610954284668
0
13.3518476486206
27.3712882995605
48.2573928833008
68.3805313110352
63.3259048461914
58.7481307983398
68.3805313110352
69.5249786376953
61.8953514099121
67.3314590454102
70.0971984863281
53.121280670166
49.6879463195801
67.2360916137695
77.9175643920898
82.3999710083008
88.5990447998047
97.849967956543
106.814781188965
102.809226989746
100.901817321777
108.722190856934
104.049041748047
92.2231216430664
91.6508941650391
95.6564483642578
97.0870056152344
97.9453353881836
100.711082458496
106.910148620605
110.152740478516
110.057373046875
110.152740478516
99.948112487793
85.9286727905273
91.269416809082
105.098114013672
109.866630554199
104.430519104004
92.986083984375
91.0786743164063
99.948112487793
106.051818847656
103.667556762695
98.899040222168
91.1740417480469
82.0184936523438
92.2231216430664
107.005523681641
112.25089263916
126.174957275391
135.330505371094
126.365699768066
113.013854980469
98.3268203735352
84.0212707519531
80.111083984375
84.3073806762695
86.3101577758789
78.2990493774414
72.3860855102539
84.6888580322266
85.5471954345703
66.0916442871094
60.6555366516113
53.6935005187988
37.3851737976074
41.962947845459
55.1240577697754
52.5490570068359
51.2138710021973
58.8434982299805
59.6064605712891
46.8268356323242
22.4120292663574
0.0953703373670578
-12.0166625976563
-18.3111057281494
-15.5453653335571
-5.81759071350098
14.3055505752563
31.4722118377686
26.226842880249
9.34629344940186
-4.1962947845459
-17.9296245574951
-26.8944358825684
-21.839807510376
-2.00277709960938
5.24536848068237
18.5018463134766
43.1073951721191
48.3527641296387
33.6657295227051
16.4990692138672
22.0305480957031
38.6249885559082
26.9898052215576
6.48518323898315
6.38981294631958
15.0685138702393
22.9842510223389
29.278694152832
26.5129547119141
17.357400894165
3.5287024974823
-8.3925895690918
-14.4962921142578
-31.2814712524414
-45.1101722717285
-44.5379486083984
-53.5981292724609
-66.6638641357422
-72.7675704956055
-82.4953460693359
-100.424964904785
-124.458290100098
-132.56477355957
-118.44995880127
-111.964782714844
-114.921257019043
-105.76570892334
-91.7462692260742
-94.702751159668
-105.86107635498
-107.95922088623
-111.392555236816
-118.44995880127
-117.782371520996
-106.147186279297
-95.4657135009766
-95.4657135009766
-104.812004089355
-108.149963378906
-95.4657135009766
-94.6073760986328
-95.4657135009766
-79.3481216430664
-68.9527587890625
-63.6120147705078
-52.6444282531738
-41.8675804138184
-43.1073951721191
-43.4888763427734
-34.1425819396973
-33.3796195983887
-24.3194370269775
-10.5861072540283
-18.0249938964844
-26.1314735412598
-26.3222141265869
-27.3712882995605
-27.7527694702148
-30.70924949646
-28.0388793945313
-19.4555492401123
-12.8749961853027
-10.204626083374
-16.9759197235107
-19.5509204864502
-11.9212923049927
-9.63240432739258
-16.8805503845215
-23.3657341003418
-18.8833274841309
-9.72777462005615
4.29166507720947
18.4064750671387
23.6518440246582
27.7527694702148
22.125919342041
11.1583299636841
9.34629344940186
5.53147983551025
1.33518481254578
2.5749990940094
13.4472179412842
25.9407329559326
18.1203651428223
11.0629596710205
21.9351787567139
27.657398223877
26.6083240509033
26.5129547119141
30.5185089111328
37.7666549682617
29.3740653991699
20.6953639984131
31.9490642547607
38.5296173095703
36.9083213806152
38.148136138916
30.0416564941406
21.2675857543945
30.8046188354492
43.1073951721191
37.1944313049316
22.2212886810303
14.3055505752563
22.125919342041
38.6249885559082
32.1398048400879
6.96203470230103
-4.38703584671021
-5.34073925018311
-4.95925760269165
-1.71666610240936
-0.47685170173645
1.71666610240936
3.8148136138916
4.1962947845459
5.05462789535522
3.43333220481873
-2.67036962509155
-4.86388731002808
3.5287024974823
10.7768487930298
8.20184898376465
13.3518476486206
27.7527694702148
28.3249912261963
15.0685138702393
8.96481227874756
8.3925895690918
8.58333015441895
9.72777462005615
9.537034034729
15.9268465042114
17.357400894165
25.177770614624
37.6712837219238
18.6925868988037
6.29444265365601
18.0249938964844
18.0249938964844
16.2129573822021
16.4990692138672
9.63240432739258
14.0194396972656
22.8888816833496
25.5592517852783
26.7990646362305
15.35462474823
-0.0953703373670578
-6.00833129882813
-15.6407356262207
-31.9490642547607
-36.6222114562988
-29.3740653991699
-15.0685138702393
3.05185079574585
10.6814785003662
14.0194396972656
22.4120292663574
25.4638805389404
24.4148063659668
15.7361059188843
15.7361059188843
22.0305480957031
15.9268465042114
18.0249938964844
27.3712882995605
14.1148099899292
2.1935179233551
6.96203470230103
5.81759071350098
0.9537034034729
10.3953666687012
22.6981410980225
21.3629570007324
10.8722190856934
-1.9074068069458
-8.20184898376465
-15.2592544555664
-24.891658782959
-20.0277709960938
-12.588885307312
-14.9731435775757
-22.6981410980225
-20.7907333374023
-9.44166374206543
-15.9268465042114
-16.6898097991943
1.23981440067291
1.81203651428223
-1.23981440067291
0.9537034034729
-0.9537034034729
4.7685170173645
16.022216796875
16.30832862854
2.8611102104187
-1.62129580974579
-1.04907369613647
-7.72499752044678
-5.24536848068237
-10.5861072540283
-28.1342506408691
-28.3249912261963
-20.2185115814209
-18.0249938964844
-24.891658782959
-44.6333198547363
-51.1185035705566
-39.2925796508789
-29.5648059844971
-14.4962921142578
4.00555419921875
6.00833129882813
0.762962698936462
1.04907369613647
-2.38425850868225
-2.1935179233551
8.3925895690918
17.357400894165
24.0333251953125
25.7499923706055
14.9731435775757
7.15277528762817
7.53425693511963
3.71944332122803
0.9537034034729
3.71944332122803
5.53147983551025
6.96203470230103
11.5398111343384
13.1611070632935
9.537034034729
-1.71666610240936
-18.6925868988037
-23.7472152709961
-25.177770614624
-31.9490642547607
-21.0768451690674
-5.62685012817383
-4.67314672470093
-1.14444410800934
-0.286111027002335
-11.7305517196655
-12.4935140609741
-3.5287024974823
-0.190740674734116
12.0166625976563
21.0768451690674
8.67870044708252
-0.47685170173645
-1.71666610240936
-5.53147983551025
-3.71944332122803
1.04907369613647
2.76573991775513
1.23981440067291
-6.58055353164673
-10.5861072540283
-11.5398111343384
-20.2185115814209
-31.3768424987793
-34.6194343566895
-23.3657341003418
-25.2731399536133
-41.6768379211426
-30.0416564941406
-8.48795986175537
-13.9240694046021
-25.8453617095947
-20.9814739227295
-3.8148136138916
10.2999963760376
9.44166374206543
4.57777643203735
0.762962698936462
-5.43610954284668
-7.43888664245605
-6.58055353164673
-6.1037015914917
-0.381481349468231
9.44166374206543
13.0657367706299
9.72777462005615
7.91573810577393
4.29166507720947
5.05462789535522
16.8805503845215
17.9296245574951
3.33796191215515
-2.09814739227295
7.53425693511963
10.8722190856934
5.62685012817383
10.3953666687012
17.6435127258301
22.5074005126953
25.5592517852783
23.6518440246582
22.125919342041
25.0823993682861
23.7472152709961
10.9675893783569
12.9703664779663
34.1425819396973
41.4860992431641
35.1916542053223
23.7472152709961
7.34351634979248
-5.34073925018311
-6.29444265365601
0.9537034034729
-6.6759238243103
-18.6925868988037
-14.5916624069214
-17.5481433868408
-32.7120246887207
-42.3444290161133
-40.7231369018555
-30.8046188354492
-18.8833274841309
-13.8286991119385
-13.4472179412842
-9.72777462005615
-8.10647869110107
-3.24259161949158
14.4009208679199
21.1722145080566
18.8833274841309
24.7962875366211
21.839807510376
12.1120328903198
7.24814605712891
3.33796191215515
10.0138854980469
30.70924949646
40.0555419921875
29.9462871551514
24.1286964416504
23.5564746856689
11.4444408416748
-2.67036962509155
-4.1962947845459
-3.91018390655518
-16.7851791381836
-29.3740653991699
-26.0361022949219
-18.0249938964844
-21.9351787567139
-31.9490642547607
-24.0333251953125
2.00277709960938
15.9268465042114
4.1962947845459
-15.7361059188843
-24.6055469512939
-20.0277709960938
-8.29721927642822
2.76573991775513
12.9703664779663
15.4499950408936
10.2999963760376
4.67314672470093
-7.72499752044678
-18.9786968231201
-15.35462474823
-8.20184898376465
-6.48518323898315
-3.05185079574585
-7.53425693511963
-20.7907333374023
-14.9731435775757
3.05185079574585
4.7685170173645
-4.67314672470093
1.81203651428223
15.9268465042114
8.86944198608398
-6.58055353164673
-37.5759124755859
-106.719413757324
-181.299011230469
-216.299926757813
-208.193450927734
-187.974945068359
-180.917541503906
-178.342529296875
-144.009216308594
-80.0157165527344
1.23981440067291
160.126800537109
387.489685058594
628.681274414063
901.345092773438
1128.51721191406
1211.01257324219
1200.42651367188
1147.01904296875
1026.37561035156
825.048828125
577.467407226563
331.698028564453
109.580520629883
-106.814781188965
-329.695251464844
-513.473937988281
-630.016479492188
-681.421081542969
-669.690551757813
-627.536865234375
-578.516479492188
-532.834106445313
-500.217437744141
-486.102630615234
-493.827606201172
-496.974853515625
-488.677612304688
-472.655395507813
-427.831329345703
-357.924896240234
-295.934173583984
-264.080474853516
-253.494369506836
-271.137878417969
-305.661926269531
-305.566558837891
-279.816589355469
-249.298065185547
-206.858261108398
-166.802719116211
-136.379592895508
-111.774040222168
-99.3758926391602
-99.0897827148438
-106.910148620605
-116.542556762695
-107.577743530273
-90.9833068847656
-81.9231185913086
-58.9388694763184
-29.4694347381592
-9.34629344940186
4.1962947845459
0.47685170173645
-12.302773475647
-13.6379585266113
-6.29444265365601
-4.7685170173645
-0.286111027002335
22.9842510223389
41.7722091674805
47.7805404663086
60.0833129882813
77.0592346191406
98.899040222168
103.858299255371
89.3620071411133
91.5555267333984
95.6564483642578
90.3157119750977
93.367561340332
89.9342269897461
80.3018264770508
77.2499771118164
69.4296035766602
62.2768325805664
62.9444236755371
62.6583137512207
61.2277565002441
56.5546112060547
55.1240577697754
57.8897972106934
52.9305381774902
48.3527641296387
50.6416511535645
61.2277565002441
75.3425674438477
79.3481216430664
76.5823822021484
87.0731201171875
100.711082458496
93.5583038330078
87.1684875488281
79.5388641357422
59.6064605712891
68.1897964477539
94.7981185913086
100.997192382813
100.615707397461
94.1305236816406
79.8249740600586
82.6860809326172
90.7925643920898
84.8796005249023
81.2555313110352
82.5907135009766
85.1657104492188
87.2638626098633
80.4925689697266
70.8601608276367
58.4620170593262
45.4916534423828
48.5435028076172
47.9712791442871
38.4342460632324
37.7666549682617
43.1073951721191
56.7453536987305
63.5166473388672
58.7481307983398
55.4101676940918
52.0722045898438
61.7046089172363
71.8138656616211
66.9499816894531
71.6231231689453
85.7379379272461
87.2638626098633
87.7407150268555
94.1305236816406
88.8851547241211
79.9203414916992
76.4870147705078
78.2990493774414
88.4083023071289
87.3592300415039
80.4925689697266
87.0731201171875
88.4083023071289
76.0101623535156
62.5629425048828
53.0259094238281
40.4370231628418
27.0851764678955
24.5101776123047
28.9925842285156
31.3768424987793
34.1425819396973
47.5897979736328
62.9444236755371
60.8462753295898
53.9796104431152
58.3666496276855
52.0722045898438
41.7722091674805
45.8731346130371
61.2277565002441
65.9009017944336
71.8138656616211
87.8360824584961
86.3101577758789
65.2333145141602
48.9249839782715
39.4833221435547
28.2296199798584
21.3629570007324
24.0333251953125
17.6435127258301
2.00277709960938
-7.0574049949646
-17.9296245574951
-39.197208404541
-57.4129447937012
-67.8083114624023
-74.198127746582
-82.3999710083008
-97.9453353881836
-102.904594421387
-96.0379333496094
-99.2805252075195
-96.2286758422852
-87.2638626098633
-102.237007141113
-125.316627502441
-128.177734375
-127.796257019043
-140.671249389648
-137.714767456055
-122.360145568848
-122.93236541748
-125.221252441406
-124.649032592773
-119.68977355957
-109.675888061523
-111.487930297852
-115.49348449707
-107.100891113281
-90.220344543457
-79.5388641357422
-89.1712646484375
-103.667556762695
-111.774040222168
-110.343482971191
-101.37866973877
-97.9453353881836
-89.1712646484375
-80.6833038330078
-84.2120132446289
-75.7240524291992
-49.8786888122559
-31.1861019134521
-31.4722118377686
-37.1944313049316
-33.6657295227051
-22.9842510223389
-20.5046234130859
-34.5240631103516
-39.9601707458496
-30.8046188354492
-34.4286918640137
-43.2027626037598
-36.6222114562988
-29.278694152832
-32.04443359375
-37.9573936462402
-41.5814666748047
-36.5268402099609
-28.7064723968506
-21.0768451690674
-10.2999963760376
-5.62685012817383
-7.0574049949646
-3.147221326828
10.5861072540283
27.0851764678955
28.3249912261963
20.5046234130859
23.0796222686768
22.8888816833496
20.5046234130859
24.6055469512939
26.6083240509033
28.4203605651855
27.3712882995605
35.382396697998
55.6962776184082
60.5601654052734
53.5981292724609
45.1101722717285
26.7990646362305
12.8749961853027
21.2675857543945
24.7962875366211
9.537034034729
6.38981294631958
12.2074031829834
17.2620315551758
18.787956237793
4.48240613937378
-3.8148136138916
-4.10092449188232
-11.2537002563477
-9.44166374206543
1.14444410800934
7.15277528762817
10.9675893783569
20.5999927520752
25.3685111999512
21.5536975860596
36.8129501342773
49.5925750732422
28.7064723968506
14.1148099899292
19.074068069458
16.1175880432129
16.30832862854
25.3685111999512
20.7907333374023
11.8259220123291
14.3055505752563
17.9296245574951
18.5972156524658
14.8777732849121
11.1583299636841
13.4472179412842
17.2620315551758
19.074068069458
20.0277709960938
21.7444381713867
22.9842510223389
20.2185115814209
17.0712909698486
8.96481227874756
-0.47685170173645
6.00833129882813
14.687032699585
10.9675893783569
1.04907369613647
-10.9675893783569
-15.6407356262207
-16.7851791381836
-19.4555492401123
-15.1638841629028
-14.3055505752563
-21.7444381713867
-25.0823993682861
-19.4555492401123
-2.38425850868225
13.0657367706299
20.2185115814209
28.4203605651855
26.226842880249
17.738883972168
21.0768451690674
30.4231376647949
36.6222114562988
35.0962867736816
25.8453617095947
22.8888816833496
29.5648059844971
33.4749908447266
29.6601753234863
27.657398223877
28.0388793945313
14.4009208679199
3.43333220481873
13.3518476486206
14.7824029922485
2.09814739227295
-1.52592539787292
-4.48240613937378
-16.7851791381836
-29.9462871551514
-29.6601753234863
-16.2129573822021
-13.8286991119385
-21.6490669250488
-20.5046234130859
-10.4907369613647
-8.77407169342041
-13.5425882339478
-12.0166625976563
-11.635181427002
-6.6759238243103
10.9675893783569
16.022216796875
-3.05185079574585
-14.7824029922485
-13.4472179412842
-16.2129573822021
-12.2074031829834
-9.9185152053833
-22.7935104370117
-21.9351787567139
-8.77407169342041
-15.35462474823
-20.6953639984131
-18.9786968231201
-18.9786968231201
-3.62407302856445
10.1092557907104
10.204626083374
14.1148099899292
18.3111057281494
12.9703664779663
10.1092557907104
9.34629344940186
6.38981294631958
-1.81203651428223
-3.71944332122803
-2.1935179233551
2.5749990940094
2.76573991775513
6.48518323898315
19.8370304107666
30.8046188354492
20.5999927520752
3.8148136138916
-1.04907369613647
-2.95648050308228
-5.43610954284668
-12.7796258926392
-23.2703628540039
-19.4555492401123
-8.10647869110107
-4.10092449188232
4.1962947845459
15.1638841629028
20.1231422424316
20.0277709960938
13.1611070632935
15.5453653335571
22.4120292663574
14.1148099899292
10.5861072540283
16.4990692138672
10.4907369613647
4.86388731002808
2.1935179233551
-2.1935179233551
2.8611102104187
4.1962947845459
2.00277709960938
11.4444408416748
13.7333288192749
7.0574049949646
5.34073925018311
-6.1037015914917
-11.5398111343384
7.24814605712891
14.3055505752563
0.381481349468231
-10.1092557907104
-8.96481227874756
-7.15277528762817
-11.1583299636841
-11.2537002563477
-15.1638841629028
-18.4064750671387
1.71666610240936
15.1638841629028
1.81203651428223
-3.5287024974823
-1.71666610240936
-14.1148099899292
-28.3249912261963
-31.9490642547607
-28.6111011505127
-27.3712882995605
-28.3249912261963
-23.5564746856689
-17.738883972168
-19.6462898254395
-25.6546211242676
-22.4120292663574
-14.4009208679199
-6.1037015914917
4.86388731002808
10.9675893783569
13.8286991119385
8.77407169342041
-0.9537034034729
-1.52592539787292
-6.29444265365601
-14.5916624069214
-11.0629596710205
1.43055510520935
11.1583299636841
