Value(bpm)
54.6619217081851
54.6987568065593
54.7351697448047
54.770686286613
54.8048298069916
54.8371214855118
54.8670805836985
54.8942248073617
54.9180707544431
54.9381344486482
54.9539319587768
54.9649801032376
54.9707972387447
54.9709041316483
54.9648249097426
54.9520880917387
54.932227690882
54.9047843884464
54.8693067720576
54.8253526329891
54.7724903157605
54.7103001125406
54.6383865531779
54.5571276959714
54.4681472046225
54.3731703956831
54.2739040922489
54.1720335202232
54.0692202871703
53.9671014095965
53.8672893508661
53.7713730310245
53.6809197713971
53.5974781407607
53.5225816759953
53.4577534582933
53.4045115361386
53.3643751983596
53.3388721146511
53.3295463771773
53.337957778615
53.3650197772882
53.4105681675746
53.4743720940524
53.5562357267396
53.6559966985782
53.7735247206542
53.9087203603157
54.0615139691091
54.2318647490078
54.4197599467829
54.6252141675818
54.8482687998681
55.0889915448414
55.3474760443227
55.6238416018655
55.9182329925513
56.2308144890273
56.560772301874
56.9051182518481
57.2604468074513
57.6231809801765
57.9895576243642
58.355617081883
58.7171978230544
59.0699367963279
59.4092762309541
59.7304776311883
60.0286436488615
60.2987484151747
60.5356767452465
60.7342723955032
60.8893952533005
60.9961353783227
61.0537177247736
61.0659194464564
61.0369550092236
60.9712011280312
60.8731413536771
60.7473160898913
60.5982787973901
60.4305588610387
60.2486313480459
60.0568936766611
59.8596490500221
59.6610963894473
59.4653264240887
59.2763235564167
59.0979731215703
58.9340675481731
58.7868018561886
58.6548342813285
58.5363760287779
58.4296850330686
58.3330584687641
58.244826391898
58.1633464394705
58.0869995290395
58.0141865122925
57.9433257457666
57.8728515487972
57.8012135234968
57.7268767142308
57.6483225847575
57.5640507900549
57.4725817169421
57.3725028195847
57.2635767847801
57.1468192774875
57.0232995059738
56.8940747352072
56.7601881118163
56.6226668957345
56.4825210870912
56.3407424346243
56.1983038102335
56.0561589332378
55.9152424273959
55.7764701937564
55.640740082869
55.5089328507762
55.3819133844619
55.2605321840377
55.1456270915377
55.0380286154909
54.9385698288293
54.848079842108
54.7673841867687
54.6973077663138
54.6386780530168
54.5923285404315
54.5591024663019
54.5398568252303
54.5354666957209
54.5468299120575
54.5748721180204
54.6205522468355
54.6848684801471
54.7688647484282
54.8736378463344
55.0003452493866
55.1500357228267
55.3214005592287
55.5113808482011
55.716828872834
55.9345256510059
56.1611635795559
56.3933326046229
56.6275101803269
56.8600553430312
57.0872072754469
57.3050887605109
57.5097149254214
57.6970076473128
57.8628159297864
58.0029424605265
58.1131764223458
58.1893347109732
58.2289437570345
58.2341793954142
58.2081213709563
58.153946139688
58.0748947164885
57.9742435770147
57.8552789668201
57.7212748460252
57.5754745869181
57.4210764472579
57.2612227653442
57.098992764577
56.9373988149043
56.7793859752731
56.6278346336409
56.4855660677635
56.3553502656164
56.239122744586
56.1364077719837
56.0463044291912
55.9679396844341
55.9004646877415
55.8430514049207
55.7948895626622
55.755183881258
55.7231515752415
55.6980201056133
55.6790251702588
55.6654089217461
55.6564184039431
55.6513042008479
55.6493192927118
55.6497181159567
55.6517558245741
55.654867456705
55.6596444377701
55.6671369346242
55.6783980164736
55.6944837404337
55.716454781024
55.745378468315
55.7823312435071
55.8284015443668
55.884693137332
55.9523289182808
56.0324552100371
56.1262465917488
56.2349113034835
56.3596972788987
56.5018988699002
56.6628643400752
56.8434096635776
57.0412282153542
57.2529188230408
57.4749952684137
57.7038708657945
57.9358464815937
58.1671029750894
58.3936984440387
58.6115706930037
58.8165453492295
59.0043500260747
59.1706348729512
59.3109997496638
59.4210281193853
59.496327567629
59.5325766265349
59.5261852798193
59.4785059733858
59.3933025202255
59.2744618815333
59.1259354074106
58.9516980092473
58.7557124067564
58.5418987342837
58.3141096090637
58.0761106118194
57.8315660094823
57.5840294607935
57.3369393865962
57.0936186551678
56.8572782258046
56.6310244076989
56.4178694226785
56.2205942948896
56.0406164247367
55.8786733114204
55.7355077820554
55.6118792048808
55.5085693509104
55.4263885734931
55.3661823624878
55.3288383392182
55.3152937691914
55.3265436820532
55.3636497028042
55.4277497153789
55.5200684998728
55.6419295086949
55.7947679755952
55.9801455859611
56.1995081759281
56.4509085472344
56.7298444988392
57.0316453334036
57.351481511149
57.6843257859921
58.0249218976196
58.3677617014893
58.7070718466598
59.0368112806693
59.3506809543479
59.6421470971461
59.9044793133883
60.1308044908134
60.3141770979771
60.4476658677246
60.5252203506317
60.547680409339
60.5196184558776
60.4458867481358
60.3315127769246
60.1816289133349
60.0014094693438
59.7960161153143
59.5705521920879
59.3300261022314
59.0793236748095
58.8231891750295
58.5662144736383
58.3128357970069
58.0673374411102
57.8338618437895
57.6164249110313
57.4180705368152
57.2391768481581
57.0796551872779
56.9394519440063
56.8185487823991
56.7169630311918
56.6347482436219
56.5719949337089
56.5288314977698
56.5054253317861
56.50198415725
56.5187575703444
56.5560388317919
56.6141669174855
56.6935288531453
56.7945623597942
56.9177548678794
57.0629761294595
57.2287039077289
57.4132376369886
57.6148659939722
57.8318552123882
58.0624383140658
58.3048052553198
58.5570940144155
58.8173826715495
59.0836825565607
59.3539325615
59.6259947348725
59.8976512913486
60.1666031843789
60.4304703986786
60.6868043275584
60.9335480587426
61.1692427014432
61.3924497283689
61.6017090798239
61.7955448458295
61.9724716882715
62.1310019934459
62.2696537322281
62.3869589906542
62.4814731181988
62.5517844247464
62.596524340568
62.6143779369472
62.6040946889624
62.5644993741793
62.4954822581676
62.4005741704899
62.2841415343875
62.1505390277434
62.0040831766479
61.8490321223976
61.6895714700996
61.5298060289167
61.3737571918242
61.2253656744759
61.0884993356465
60.9669658328596
60.8645299235868
60.784935302861
60.7319309712651
60.7092920784894
60.7191464667965
60.7600788253684
60.8302992887641
60.9280891542026
61.0517842758505
61.1997597666575
61.3704158292961
61.5621645749171
61.7734177213237
62.0025750917537
62.2480138625247
62.5080785329004
62.7810716141319
63.0652450569942
63.3587924411516
63.6597563795124
63.9658178283275
64.2745067884891
64.5832559345958
64.8893983723495
65.1901675271568
65.4826993778996
65.7640372497937
66.0311393708953
66.2808893767298
66.5101099154042
66.7155794603848
66.8940523792083
67.0422822336212
67.1574416482882
67.2401946301945
67.2930802731582
67.3187540721447
67.3199506504543
67.2994626798787
67.2601217466918
67.204781372808
67.1363023400867
67.0575404106451
66.9713364884477
66.880509228161
66.7878500667271
66.6961206313886
66.6080584673027
66.5267066818187
66.4555835383826
66.3982259893911
66.3581607131662
66.3389207539469
66.3440659474466
66.3772072731552
66.4420353767739
66.5423536297595
66.6821162420011
66.8654721240189
67.0968154149733
67.3808438634313
67.7226164704644
68.1235357482878
68.5748118826672
69.0657097679247
69.5849680026255
70.1206718690145
70.6601611806583
71.1899789811534
71.6958683344541
72.1628250806485
72.5752142187148
72.916956282702
73.1717874904879
73.3235944582361
73.3618063980403
73.2933421909817
73.1294489860938
72.8819833922512
72.5631308319275
72.1851581782789
71.7602055302865
71.30011992434
70.816331217368
70.3197684079737
69.820813307915
69.3292876967921
68.8544698113834
68.4051361035745
67.9881557808334
67.6048160149796
67.2552116367352
66.9394988239951
66.6578999309261
66.4107086857856
66.1982958356856
66.0211153246765
65.8797111015132
65.774724665639
65.7069034746707
65.6771103544865
65.6863340745326
65.7357012769273
65.8263953581906
65.9567750038724
66.1217797478356
66.3161582872484
66.5346162491766
66.7717715292347
67.0221177463827
67.2799960867393
67.5395760382646
67.7948456934024
68.0396124115159
68.2675146776449
68.4720459574634
68.6465912188022
68.7846275630977
68.8836903944919
68.9458234610714
68.9734319960044
68.9690384267839
68.9352578941639
68.8747750327102
68.7903223365638
68.6846603674475
68.5605599972583
68.4207868168905
68.2680877878841
68.1051801652318
67.934742678949
67.7594109412464
67.5819112177808
67.4051435204457
67.2319689646601
67.0651904518524
66.9075572223033
66.761771624916
66.6304980072557
66.5163736568035
66.422021758446
66.3500663736247
66.3031494934875
66.283950272379
66.295206610079
66.3397393229065
66.4198423518238
66.5338287532902
66.6784581713645
66.8505169618393
67.0467930268126
67.2640497096437
67.4990026541001
67.7482995986065
68.00850316701
68.2760767971595
68.547374017738
68.8186313412257
69.0859650849392
69.3453724604966
69.5932086459208
69.8276368101985
70.0472679401345
70.250701409148
70.4365306445737
70.6033493644026
70.7497583625223
70.8743728111352
70.9758300380216
71.0527977248412
71.1039824609948
71.1281385759522
71.1240771617227
71.0907407307384
71.0286511509545
70.9398986083637
70.8266816231729
70.6912260297104
70.5357707905453
70.3625551448429
70.1738071621561
69.9717337414098
69.7585120669287
69.5362825092986
69.3071429388163
69.0731444032572
68.8362881095674
68.5985568140708
68.362537254138
68.1313472285018
67.9080433116851
67.6956043662567
67.49694054044
67.3149046525592
67.152305849622
67.0119254735853
66.8965351220229
66.8089169501716
66.7518863293238
66.728317053535
66.7411693745511
66.7935163985149
66.8866332180402
67.0170093162383
67.1804368087971
67.3727269805482
67.5896700229567
67.826999875659
68.0803640801241
68.3452987293888
68.6172087494977
68.8913538755721
69.1628407861969
69.426621930193
69.6775016146546
69.9102085213306
70.1215703228286
70.3112197010649
70.4790141523963
70.6248546082273
70.7486855891533
70.8504951450303
70.9303145830541
70.9882179878372
71.0243215393075
71.0387826359888
71.0317988328454
71.003606604346
70.9544799447267
70.8847732600471
70.7951336566735
70.6863302394192
70.5591559714878
70.4144235987757
70.2529618041504
70.075611486963
69.8832221897764
69.6766486911515
69.4567477802027
69.2243752255741
68.9803829485311
68.7256164070511
68.4609121951649
68.187354402577
67.9076554763752
67.6250966684489
67.3428571484028
67.0640122119728
66.7915360310146
66.5283070459788
66.2771157760997
66.0406748502569
65.821631096362
65.6225795681122
65.4460794343319
65.2946717075934
65.1708988454867
65.0773254700515
65.0152185697508
64.9818580377508
64.9738497612169
64.9878678124502
65.0206302010061
65.0688782194109
65.1293591890525
65.1988124941714
65.2739588580498
65.3514928676186
65.4280787912636
65.5003497595616
65.564910389654
65.6183429303756
65.6572663634312
65.6796227985278
65.6848069111244
65.6723112599123
65.6416571732663
65.5923973865057
65.5241186139611
65.436444032297
65.3290356512941
65.2015965483509
65.0538729433581
64.8856560913245
64.6967839712139
64.4871427508683
64.2566680096533
64.0054094440463
63.734919312984
63.4481865574467
63.1481955853705
62.8378496650992
62.5199615208139
62.1972467191028
61.8723196513567
61.5476919005072
61.2257727743586
60.9088717899614
60.5992029027167
60.2988902888561
60.0099755094141
59.7344259067773
59.4741441105343
59.2309712026726
59.0061942090267
58.8002515454446
58.6135192533954
58.44639321476
58.2992925368498
58.1726630900797
58.0669812301606
57.9827577402716
57.9205420328185
57.8809266552038
57.8645521496412
57.8721123236041
57.9043599951739
57.9621132865777
58.0462625498268
58.1577780209182
58.2972528632256
58.4620432209261
58.6480627035455
58.8511604683441
59.0670982773021
59.2915274775532
59.5199718869584
59.7478170021767
59.9703060409345
60.1825433853819
60.3795060030045
60.5560633784402
60.7070063867996
60.8270853710112
60.9110574490639
60.9537431330438
60.9518611017709
60.9081843038577
60.8268617071499
60.7121492254766
60.5683610883946
60.3998267253315
60.2108536475664
60.0056965783159
59.7885328814241
59.5634441769275
59.3344039083802
59.1052705414175
58.8797860231138
58.6615791138078
58.4541732133278
58.260998338058
58.0853047348149
57.9285141788647
57.7905489753836
57.6713176481313
57.5707631906291
57.4888630870461
57.425629493564
57.3811095830558
57.3553860573765
57.3485778330973
57.3608409081403
57.3923694185196
57.4433968962927
57.5141977418979
57.6050889263471
57.716431941288
57.8486350178011
58.0016908803281
58.1735790941577
58.3616978782328
58.5634024887317
58.7759907343842
58.9966907187064
59.2226509428755
59.4509329332362
59.6785065949495
59.9022485213146
60.1189435051993
60.3252895029372
60.5179062899263
60.6933480189865
60.848119845453
60.9787069614184
61.0829892179347
61.1618529622573
61.2166397199478
61.2487609915301
61.2596872693193
61.2509374018038
61.2240684343736
61.1806660363657
61.122335605326
61.0506941206589
60.967362800925
60.8739606023789
60.7720985811999
60.6633751285069
60.5493720757853
60.4316478825424
60.3115296375953
60.1900099098199
60.0680399766525
59.9465559852434
59.8264790332896
59.7087155352114
59.5941578617719
59.4836852419742
59.3781649171294
59.2784535383453
59.1853988003231
59.0998413062476
59.0226166607092
58.9545577900046
58.8964974918165
58.8492712135353
58.8135164948568
58.7891395334711
58.7758914124846
58.7735364398376
58.7818512785448
58.8006241292462
58.8296539603323
58.8687497813075
58.9177299554286
58.9764215479782
59.0446597068314
59.1222870722396
59.2091532129937
59.305114086349
59.4100315192841
59.5237727088511
59.6459940295959
59.7752028010733
59.9095032925189
60.0469676969345
60.1856334977601
60.3235018338205
60.4585371604288
60.5886682699773
60.7117907349229
60.8257708316221
60.9284509946698
61.0176568379768
61.0912057605854
61.1469171321109
61.182624024804
61.1961926363874
61.1865793687593
61.1550111760077
61.1030410371506
61.0322545915386
60.9442601557482
60.8406794664256
60.723139216268
60.5932634314229
60.4526667210756
60.3029484142048
60.1456875845945
59.9824389533322
59.8147296482284
59.6440567918477
59.4718858840689
59.2996499469123
59.1289537759749
58.9621057475088
58.8015303599665
58.6496013769635
58.5086482771918
58.3809644872803
58.2688173342053
58.1744596846551
58.1001432746708
58.0481337740833
58.0207276772401
58.0202711651429
58.0491811457197
58.1099687504064
58.2052656490274
58.3378536445167
58.5104238282116
58.7216424058362
58.9669360575333
59.2415999457467
59.5408303010497
59.8596765323378
60.1930004081579
60.5354428322703
60.8813990169516
61.2250030928291
61.5601233730896
61.8803695971942
62.1791134958425
62.4495239240956
62.6846175828988
62.8773715844038
63.0239734975142
63.1260260470854
63.1858445734455
63.2059412627537
63.1889919116581
63.1378032676577
63.0552815868568
62.9444029537217
62.8081858048996
62.6496659961878
62.4718746526629
62.2778189502375
62.0704658950307
61.8527290966032
61.6274584731749
61.397372391224
61.1645352778176
60.9306301101872
60.697286788333
60.4660861077634
60.238560926265
60.0161981042526
59.8004411570451
59.5926935631493
59.3943226795674
59.2066642230782
59.0310272852464
58.8686998584809
58.7209548607435
58.5890566575053
58.4742680912997
58.3778502274738
58.3003727193316
58.2411777999708
58.1995175831117
58.1746804692342
58.1659870445847
58.1727862859518
58.1944520361033
58.230379719211
58.2799832694868
58.3426922496856
58.4179491391831
58.5052067740576
58.6039259240552
58.7135729935361
58.8336178355265
58.9635316698656
59.102479213937
59.2483869495318
59.3988357406701
59.5513589059885
59.7034391443466
59.8525075257306
59.9959446601993
60.1310841583931
60.2552184896776
60.3656073275756
60.4594884461231
60.5340911947334
60.586652532952
60.6144355504139
60.614750332182
60.5849804060774
60.5239852070667
60.4342049741577
60.3186775683445
60.1804681165074
60.0226452015776
59.8482601289591
59.6603293670774
59.4618201796842
59.2556394009757
59.0446252521204
58.8315420591912
58.6190777070474
58.4098436503363
58.2063773002367
58.0111466125337
57.8265567178201
57.6548936457802
57.497115158054
57.3529942173291
57.2222806279733
57.1047448774907
57.0001772766145
56.9083871797743
56.8292022805939
56.7624679776583
56.7080468063096
56.665817932717
56.6356767069004
56.6175342717985
56.6113172258424
56.6169673368486
56.6344413053701
56.6637105759531
56.7047311127984
56.7570108540904
56.8197051037252
56.891963752497
56.97293782763
57.0617766771222
57.1576254036023
57.2596225441538
57.3668979956718
57.4785711881378
57.5937495107236
57.7115269978782
57.830983284496
57.9511828408958
58.071174499639
58.1899912871561
58.3066507456146
58.4202803749477
58.5303422136381
58.6363514549321
58.7378183003072
58.8342486322688
58.9251447742556
59.0100063383459
59.0883311608967
59.1596163256252
59.2233592729552
59.2790589937059
59.3262173043978
59.3643402006021
59.3929392838668
59.4115332568255
59.4196494801502
59.4169775553886
59.4038860921887
59.3809373557317
59.3487020961593
59.3077577240814
59.2586865863144
59.2020743437661
59.1385084571664
59.0685767850872
58.992866297514
58.9119619071274
58.8264454194469
58.7368946020751
58.6438823724688
58.547976102953
58.4497370410901
58.3497400916015
58.248955421807
58.1487098244647
58.0503257135018
57.9551077896139
57.8643442485188
57.7793085549332
57.7012617658084
57.6314553902646
57.5711347785034
57.5215430377539
57.4839254799986
57.459534613891
57.4496357019656
57.455512914077
57.4784761191313
57.5198683698077
57.5807896164786
57.6605511850642
57.7577643616949
57.8710519501563
57.9990417365135
58.1403588222331
58.2936185949309
58.4574203177503
58.6303413320988
58.8109318810281
58.9977105720249
59.1891605084007
59.383726127778
59.5798107942845
59.7757751978231
59.9699366190088
60.1606000117394
60.346229043733
60.5253326941099
60.6963903013747
60.8578547181447
61.0081564869611
61.1457088639329
61.2689137022444
61.3761681959346
61.4658724707973
61.5364379938678
61.5862967559401
61.6139111631829
61.6177845545645
61.5964722419277
61.5486008670912
61.4738277636209
61.3737341397297
61.2501591046025
61.1049715272013
60.9400569312315
60.7573054362752
60.5586008253379
60.3458107905518
60.1207783828126
59.8853146681001
59.641192573396
59.3901418885577
59.1338453772097
58.8739359395674
58.6119947628955
58.3495503907939
58.0881309132091
57.8296173441361
57.5760144668178
57.3292581299444
57.0912188947549
56.8637079791335
56.6484842433098
56.4472621387916
56.2617205632035
56.0935125864141
55.9442760376366
55.8156449691772
55.7092620404263
55.6267918959654
55.5699356449154
55.5404465857044
55.5401473623849
55.5708521693922
55.6322560592241
55.7219190903947
55.8373621468243
55.9761385852163
56.1358117694333
56.3139347934851
56.5080322653105
56.7155840958479
56.9340113027212
57.16066389605
57.392810965699
57.627633134416
57.8622175790004
58.09355585069
58.3185447447533
58.5339908432948
58.7372037908511
58.9272214350956
59.1034174308961
59.2651743599878
59.4118863200292
59.542961587188
59.6578253360504
59.7559223989581
59.8367200453023
59.8997107598767
59.9444149981511
59.9703838953069
59.9772019051104
59.9644893442176
59.9319048173351
59.8791475951867
59.8064315108795
59.7155703252038
59.6087145005063
59.4880134482638
59.3556051080694
59.2136071013051
59.0641094607521
58.9091689135281
58.7508046757879
58.5909957035055
58.4316793341451
58.2747512488314
58.122066683389
57.9754428189569
57.8366622884417
57.7074777435102
57.5895994469511
57.4840483100267
57.3909879723313
57.3105390626526
57.2428362701083
57.1880290675432
57.1462824896589
57.1177779712449
57.1027142513991
57.1013083502075
57.1137966250103
57.1404359141226
57.1815047767113
57.2373048384757
57.308162253843
57.3944292965983
57.4964860922359
57.614571741583
57.7472942573625
57.8923219558949
58.0472810355573
58.2097561656028
58.3772827586913
58.5473411992231
58.7173531348186
58.8846799566335
59.0466236052345
59.2004298415836
59.3432941163164
59.4723701539843
59.5847813413855
59.677634969909
59.7480393306329
59.7933449485519
59.81362094289
59.810774035662
59.7867987568208
59.7437309513623
59.6836341862224
59.6085874255443
59.5206740716906
59.4219724363179
59.3145476763052
59.2004452038024
59.0816855584498
58.960260713004
58.8381317711752
58.7172280082672
58.5994472010137
58.4866571237679
58.3806900760296
58.2833391229556
58.1963774587546
58.12156622741
58.0606615188786
58.0154224125605
57.9876200951265
57.9790481019321
57.9915337565835
58.0269509122711
58.0872341319584
58.1743944833704
58.2905371702046
58.4378812747118
58.6187819508351
58.8357554841408
59.0906879376907
59.3816580429374
59.705561979278
60.0592454830395
60.43946573968
60.8428556585542
61.2658908367076
61.7048594469101
62.1558354501502
62.6146556925292
63.0769015980546
63.5378863071794
63.9926482287368
64.4359520606395
64.8622999434656
65.2670963512038
65.6487903110686
66.0063926389436
66.3389525417846
66.6455631636678
66.9253670430978
67.1775614254874
67.4014033739196
67.5962146214022
67.7613861088737
67.896382155243
68.0007442087433
68.074094132838
68.1161369919848
68.1269223423047
68.1075292685462
68.0593308424054
67.9837679103197
67.8823374788357
67.7565813905752
67.608075415822
67.4384188670954
67.2492248259753
67.0421110534139
66.8186916372735
66.5805694142507
66.3293291879845
66.0665317512257
65.7937290112366
65.5129773406878
65.2268557139067
64.9378910330689
64.6485260795718
64.3611192142608
64.0779458610817
63.8012016149316
63.5330068240904
63.2754125114108
63.0304075156627
62.7999267544426
62.5858605323834
62.3900648427115
62.2143726363342
62.0606060606061
61.9302228559165
61.8232401402143
61.7393598116131
61.678336973881
61.6399784590829
61.6241416492985
61.6307335845909
61.6597103474692
61.7110767169915
61.7848860884407
61.8812406572148
62.0002918682606
62.1422411350795
62.3073408350944
62.4958955910374
62.7080368853472
62.941183769537
63.1908684149448
63.4524690317349
63.7212195480082
63.9921934574857
64.2602948053984
64.5202569736033
64.7666499704389
64.9938969206916
65.196300377317
65.368078930954
65.5034143693769
65.5965093339683
65.6416551022083
65.6356789039367
65.5842597109669
65.4952031306501
65.3763804516729
65.2356487410613
65.0807898406303
64.9194683850917
64.7592084508485
64.6073881242191
64.4712511427073
64.3579347993737
64.274513493641
64.2280576502491
64.22570820642
64.2747658194731
64.380145853255
64.5390300582777
64.747283325606
65.0008910454696
65.2958958190906
65.6283395728627
65.9942103536963
66.3893933837562
66.8096262257752
67.2504581647743
67.7072141529692
68.174963893177
68.648496850151
69.1223081460757
69.5915915599506
70.0536427838644
70.5059653372237
70.9459558438158
71.3709101801469
71.7780318461389
72.1644427094877
72.5271962467451
72.8632933668145
73.1697008556731
73.4433724247495
73.6812722799577
73.8804091246879
74.0398826984039
74.163610911532
74.2563449420106
74.3229729627804
74.3684823444886
74.3979278792311
74.4164064839028
74.4290386829866
74.440957046407
74.4573016718415
74.4832227545312
74.5238902820597
74.5844744268733
74.6676419153032
74.7719065310627
74.8954099840286
75.0362995944617
75.1927188905894
75.3627991089585
75.5446515786711
75.736360987689
75.9359795447269
76.1415220638993
76.3509620112436
76.5622285624108
76.7730394536667
76.979757106122
77.1780473864914
77.36348858537
77.5315865825107
77.6777917232185
77.7975211507795
77.8861866367179
77.9392278280042
77.9521506811491
77.9205706803873
77.840260245867
77.7073204390473
77.5218977074301
77.2887861610183
77.0131167958256
76.7000430395449
76.3546906784638
75.982114723144
75.5872633632281
75.1749489479263
74.7498257558851
74.3163741865329
73.8788909127585
73.4414844784814
73.0080552711362
72.5808998077802
72.1599027615262
71.7447406324184
71.3351023570242
70.9306887632013
70.5312120616856
70.1363953718649
69.745972279297
69.3596864227178
68.9772911084435
68.5985489502259
68.2232315327544
67.8511190971243
67.4820007088891
67.1163976602469
66.756975889085
66.4066914227364
66.0683769943478
65.7447529749454
65.4384403114207
65.1519752718468
64.8878258509758
64.6484097436447
64.4361138518316
64.2533153524747
64.1024044185576
63.9858087565759
63.9060202010916
63.8656233778156
63.8657753567943
63.9026264125111
63.9713741657623
64.0672802628761
64.1856260149031
64.321675171796
64.470643594874
64.6276758024264
64.787828532506
64.94606159459
65.0972363661918
65.2361223282672
65.3574120198906
65.4557447234215
65.525819742157
65.5653847406854
65.5761281293811
65.5600719861146
65.5193035268539
65.4559588031879
65.3722074795122
65.2702388457263
65.1522491830832
65.0204305649002
64.876961141045
64.7239969260515
64.5636650858117
64.3980586972083
64.2292329388451
64.0591718317111
63.8888535308576
63.7181056766507
63.5466952797848
63.3743945935053
63.2009811338653
63.0262377147792
62.8499524968581
62.6719190490176
62.4919364218419
62.3098092316864
62.125347754491
61.9383680282706
61.7486919632386
61.5561474585099
61.3605685243195
61.1620763866198
60.9629831666552
60.7665708203332
60.5760434828171
60.3945264528792
60.2250745690581
60.0706835817958
59.93430437832
59.818859972548
59.7272652383001
59.6624494407098
59.6273817087683
59.6250996931878
59.6587417710288
59.7315832958957
59.8470775556486
60.0082694940625
60.2129180522826
60.4560253706934
60.7325503181285
61.0373672409514
61.3652091773305
61.7106189156371
62.0679083583369
62.4311270012564
62.7940406367974
63.1501216273349
63.4925522546334
63.8142427108848
64.1078652320836
64.3659056595004
64.5817134860847
64.7549703746178
64.8880556714429
64.9835597565207
65.0442456846935
65.0730176861906
65.0728909849315
65.0469634810415
64.998389743921
64.9303576624336
64.846068003532
64.7487170433305
64.6414823577565
64.5275117951563
64.4099156015053
64.2913211513947
64.172199640211
64.0523795267655
63.9316918279209
63.80997027876
63.6870513699623
63.5627743929917
63.4369814926962
63.3095177269161
63.1802311326871
63.0489727986174
62.9155969430072
62.7799609972672
62.6419256941852
62.501355160574
62.3582229377495
62.2143422362875
62.0730476950006
61.9376630850178
61.8114561354047
61.6976468479509
61.5994191063015
61.5199354964897
61.4623553141466
61.4298558052648
61.4256567730201
61.4530487843893
61.5154253297751
61.6163194305726
61.7594453592578
61.9487459234249
62.1863770631985
62.4678295466707
62.7871518399518
63.1382696886988
63.5149119668824
63.9105470763022
64.3183306929587
64.7310661814039
65.1411794453854
65.5407103306755
65.9213229120137
66.2743370405809
66.5907833567467
66.861483540957
67.0778755064711
67.238425823444
67.3457937793928
67.4029869674182
67.4132707130584
67.3801202939357
67.3071743210391
67.1981902784119
67.0570030464339
66.8874870557482
66.6935225435118
66.4789662186478
66.2476264939574
66.0032433142419
65.7494715342115
65.48917362283
65.2232217838738
64.9521428016878
64.6764522969397
64.3966541270722
64.1132398766588
63.8266884338041
63.5374656484807
63.2460240685044
62.9528027487185
62.6582271288791
62.3627089757034
62.0666463845534
61.7704238362812
61.4744123048405
61.1790176488999
60.8859093019703
60.5980673039793
60.3184278400806
60.0498203105276
59.7949778234606
59.5565499807801
59.3371177758393
59.1392104772449
58.9653244341316
58.8179438047564
58.6995632826035
58.6127129735375
58.5599856657027
58.5440668335092
58.5677678317953
58.6340616527088
58.7441886276451
58.8937063796415
59.0771299913829
59.2889590640639
59.5236168997365
59.7753995116071
60.0384346278264
60.3066512313104
60.5737604826362
60.833249097068
61.0783863764005
61.3022461134065
61.4977444710299
61.6576946706846
61.7748788891383
61.8424317754697
61.8587897234599
61.8269964412528
61.7504556669138
61.6327423837752
61.4775544071899
61.2886669817407
61.0698911427706
60.8250363928467
60.5578780507518
60.2721294551778
59.9714190525153
59.6592722709228
59.3390979822524
59.0141792789146
58.687668242756
58.3625843263058
58.0417954497101
57.7279877691042
57.4237219999978
57.1314524931804
56.8535382410466
56.5922555867007
56.3498124786033
56.1283641631844
55.9300302603955
55.7569132225864
55.6111182358353
55.4947746858329
55.4100593790633
55.3592217863195
55.344611662212
55.3687094947761
55.4341603580887
55.5431605240101
55.6934864101392
55.8810250381878
56.1016937786415
56.3513934887213
56.6259594625569
56.921117898641
57.2324479111089
57.5553493769498
57.8850171494221
58.2164223764108
58.5443018350992
58.8631563213659
59.1672592010041
59.4506762250973
59.7072976175926
59.9314035612589
60.1217726913768
60.279638664693
60.4064003292321
60.5035867897865
60.5728412699012
60.6159049487407
60.634601054778
60.6308194695244
60.6065020623912
60.5636289437503
60.5042057887106
60.4302523502849
60.3437922485047
60.2468440924868
60.1414139660656
60.0295971452383
59.9143074824954
59.7988139374795
59.6863382287601
59.580054197345
59.4830929322155
59.3985511619191
59.329502823545
59.2790137647687
59.2501595923381
59.2460467516334
59.2698370077658
59.3247756009879
59.4142234709984
59.541694090484
59.710895624173
59.9253591657684
60.1847994826811
60.4867804152102
60.8288983352082
61.2087681093503
61.6239859026105
62.072093427814
62.5505433822497
63.0566659382939
63.5876362804424
64.1404433091426
64.7118597643705
65.2984141599218
65.8963650624965
66.5016783444421
67.1100020355662
67.716645627016
68.3165821552929
68.9044486093803
69.4745534145067
70.0208936482128
70.5371832279802
71.0168931778845
71.4533048535801
71.8395766691828
72.1688244205402
72.4342147391643
72.6290706163728
72.7493005905234
72.7996562284715
72.7872623025295
72.7195845482596
72.6043091456767
72.4492353625423
72.2621834716446
72.0509191951426
71.8230951869976
71.586209466447
71.3475802731459
71.1143365275963
70.8934229398953
70.6913904567758
70.508580782349
70.3387894452708
70.1756197406316
70.012798487444
69.8441690751749
69.6636955293011
69.4654770366456
69.243772309935
68.9930330399923
68.7079454933857
68.383479076029
68.0149404153826
67.5980312352918
67.1289260573726
66.6087496518879
66.0489718419817
65.4619738460508
64.8594546967187
64.2523726691916
63.6509284005238
63.0645833522034
62.5021074795917
61.9716506016446
61.4808328731734
61.0368508407844
60.6465967383024
60.3167899082818
60.0541205163548
59.8654070794598
59.7577651567494
59.734710128184
59.7890945680519
59.9124109832214
60.0965276961741
60.3335070149415
60.6154479736479
60.9343504030219
61.281998779716
61.649865736758
62.0290363476069
62.4101553366946
62.7834001997377
63.1384837878907
63.4646901473872
63.750947696664
63.9882914678819
64.1755629941864
64.3134631951118
64.4029489291421
64.4452162233064
64.4416811268461
64.3939586653477
64.3038403870073
64.1732709918678
64.0043245193732
63.7991805413591
63.56010076895
63.2894064352727
62.9894567639669
62.6626287786378
62.3113971508228
61.9391555641407
61.5497333714964
61.1468349228818
60.7340182906451
60.3146846714711
59.8920720957677
59.4692530120861
59.0491353041576
58.6344663057249
58.2278393999279
57.8317028222149
57.4483703256192
57.0800334122812
56.728774883317
56.3965835090383
56.0853696721098
55.7969039141567
55.5315687322145
55.2886351844223
55.0674020597924
54.8672284557888
54.6875297559832
54.5277740268221
54.3874787915984
54.2662081450179
54.1635701763696
54.0792146733333
54.012831081993
53.964146701733
53.9329250964388
53.9189647058662
53.922097643217
53.9421886669154
53.9791343163413
54.0327599446474
54.1021153101414
54.185887006061
54.2827666265544
54.3914461222052
54.5106115465158
54.6389374144325
54.7750816659579
54.9176812389654
55.0653482652552
55.2166669127075
55.3701909040395
55.5244417491015
55.6779077327196
55.8290437036604
55.9762717121803
56.1179825436224
56.2525886873318
56.3790253860588
56.4965520418571
56.6044300082496
56.7019201503959
56.7882853165633
56.8627929940936
56.9247181398147
56.9733461720238
57.0079761082492
57.0279238300298
57.0325254529758
57.0211407774673
56.9931567925534
56.9479912030174
56.8850959472327
56.8039606714252
56.7043066743021
56.5873865145494
56.4551678350719
56.3096154373253
56.1526775774389
55.9862778652682
55.8123085611395
55.6326252417997
55.4490427904116
55.2633326528958
55.077221294307
54.8923897839371
54.7104744361291
54.5330684349979
54.3617243750371
54.1979576556063
54.0432506752549
53.8990577814895
53.7666928260189
53.6469391193669
53.5404393289499
53.4478427988543
53.3698091148196
53.3070118611485
53.2601425979888
53.2299150880327
53.2170698067878
53.2223787763166
53.2466507688642
53.2907369342535
53.3555369135252
53.4420055112703
53.5511600107328
53.6840882294053
53.8419574289197
54.0260190333211
54.236319672537
54.4699305589374
54.7234407201372
54.9933458752496
55.2760226228708
55.5677067137229
55.8644757846375
56.1622370504229
56.4567205482707
56.7434786002041
57.0178921955875
57.2751849898288
57.5104455585334
57.7186584303239
57.894744239552
58.0336090881194
58.1305700865758
58.185499674307
58.2014030853948
58.1815112416454
58.1291865034121
58.047883525097
57.9411133133078
57.8124110140684
57.6653077922231
57.5033070169504
57.3298648367958
57.1483751187381
56.9621586398572
56.7744563571839
56.5884265403542
56.4071455311285
56.2336118916892
56.0706900369356
55.9200813107334
55.7825289157403
55.6587464748178
55.5494519445153
55.4553715855416
55.3772441477014
55.3158252949324
55.2718923013717
55.2462490552442
55.2397314139366
55.253212961045
55.2876112246622
55.343894425918
55.423088838083
55.5262868497222
55.6546558408412
55.8094170558004
55.9901507760812
56.1938561115043
56.4172766646646
56.6570880091189
56.9098745318234
57.1721098893193
57.4401413287018
57.7101782210173
57.9782852339747
58.2403806292313
58.4922402025007
58.7295073869817
58.9477100064395
59.1422840880851
59.3086050224437
59.442032886271
59.5396329591144
59.6024532361089
59.6322266827254
59.6308080965036
59.600153906171
59.5423023871526
59.4593546085148
59.3534563804534
59.2267814234636
59.0815159322849
58.9198446612551
58.7439386142108
58.5559443825722
58.3579751404806
58.1521032762475
57.9403546151023
57.7246879771013
57.5067625443991
57.2879989549262
57.0697711225564
56.853411776276
56.6402134079721
56.4314298045041
56.2282781175364
56.0319414286921
55.8435717724749
55.6642935849675
55.4952075524561
55.3373948407637
55.1919216931805
55.0598443924229
54.9422145900645
54.8400850154166
54.7545154761606
54.6860467249421
54.6334794134781
54.5952866655386
54.5699740662656
54.5560722547563
54.552130411084
54.5567105841258
54.568382820634
54.5857210679171
54.6072998325014
54.6316915853677
54.6574649108881
54.6831834014776
54.7074053032282
54.7286839194157
54.7455687787201
54.75660757327
54.7605187166767
54.7594123971576
54.758524339127
54.7632072002052
54.7788195705581
54.8107421278169
54.8644044060871
54.9453224767143
55.059148108757
55.2117303494505
55.4091909561725
55.6580157487115
55.9651647754934
56.3382052614542
56.7854727187153
57.3162674858502
57.9410965103023
58.6678529820365
59.4872187215767
60.3839421870979
61.341012404658
62.3391378790936
63.356298354049
64.3674087108027
65.3441484796586
66.255022030312
67.0657199055694
67.7398464814913
68.2400584634158
68.5296192184592
68.5743155411942
68.3527551387016
67.8852029263054
67.2060261014977
66.3517110083803
65.3589994912131
64.2633857392402
63.0980183907987
61.8929980446805
60.6750234957578
59.4673209069379
58.2897853516738
57.1592691868297
56.0899622547489
55.0938216118347
54.1810211103049
53.3604025019008
52.6399193389277
52.027072891881
51.5291040814321
51.1447605955024
50.8627578147307
50.6727065171489
50.5655108152587
50.5330680951424
50.5680226247727
50.6635596650017
50.8132305572729
51.0108019572238
51.2501244411048
51.5250173393981
51.8291679881842
52.1560447247276
52.4988239444995
52.8503324084818
53.2030067430413
53.5488726881614
53.8797765482521
54.1918239666276
54.4853112761565
54.7607728093396
55.0188212961365
55.2601436337572
55.485496406386
55.6957012363427
55.8916400471815
56.0742503169457
56.2445203964456
56.4034849632009
56.5522206768194
56.6918420962797
56.8234979140748
56.9483675566516
57.0676581952443
57.1824840787312
57.2928335239272
57.3980517527007
57.497470369193
57.5904156140451
57.6762097335244
57.7541725133483
57.823622976255
57.8838812407996
57.9342705371306
57.9741193736306
58.0027638463201
58.0195500808265
58.02383679456
58.0149979645256
57.992425583991
57.9555335878077
57.9041996858628
57.8394329105122
57.7624252304984
57.6743731535405
57.5764730403045
57.4699169121137
57.3558887620414
57.235561372281
57.110093634815
56.980628367442
56.8482906131672
56.7141864077942
56.5794019982484
56.4450034926574
56.3120369224712
56.1815286968467
56.0544864318116
55.9319609413025
55.8152065029631
55.705508809587
55.6041372167413
55.5123484105736
55.4313906191766
55.3625083654422
55.3069477679267
55.2659624058711
55.240819775267
55.2328083748738
55.2432454746053
55.2734856339748
55.3249300556884
55.3990368794695
55.4973325443564
55.621424374778
55.7726298434482
55.9493265864314
56.1484704720051
56.3669719759714
56.6016798278934
56.8493593864726
57.1066742580009
57.3701713710519
57.6362698068945
57.9012537568608
58.1612700322642
58.4123305857221
58.6503205104653
58.8710119615955
59.0700843854829
59.2431513462956
59.3860065833173
59.4977264633623
59.5800426285805
59.6348687592021
59.6642141040105
59.6701653646243
59.6548694836974
59.6205175760963
59.5693301966128
59.5035440933296
59.4254005538494
59.3371354133581
59.240970759768
59.1391083425381
59.0337246685023
58.926967750237
58.8209473334274
58.7170098280607
58.6151798080771
58.5153475092998
58.4174048746776
58.3212454806112
58.2267644679468
58.1338584774584
58.0424255896529
57.9523652687441
57.8635783106478
57.7759667948614
57.6894340400986
57.6038845635575
57.5192240437056
57.4353592864734
57.3521981947527
57.2696874001488
57.1885231769386
57.1100824791373
57.0357532897178
56.9669103956098
56.9049177615672
56.8511315462435
56.8069037539118
56.7735865219983
56.7525370525903
56.7451232053698
56.7527297801214
56.776765529211
56.8186709544489
56.8799269588244
56.9620644421065
57.0666749507414
57.1951875232492
57.3468262477968
57.5195622424681
57.7113471118559
57.9201115757853
58.1437514342132
58.3801148708281
58.6269911229962
58.8821005842394
59.1430864407312
59.4075079750942
59.6728356985568
59.9364484954457
60.1956329810252
60.4475852835737
60.6894154629023
60.9183900270334
61.1329707801178
61.3320202071315
61.5144005492064
61.6789789422155
61.8246331971436
61.9502579315447
62.0547710116499
62.1371202563415
62.1962903459449
62.2313098708149
62.2412584472397
62.2252738214905
62.1825588771581
62.1123884564714
62.0141651628794
61.8889194860828
61.7395494472258
61.5690656756941
61.380465269639
61.1767136497816
60.9607294169283
60.7353721836332
60.5034332967689
60.2676293267482
60.030598170236
59.7948975955369
59.5630060523252
59.3373255688046
59.1201865685207
58.9138544547558
58.7205374164402
58.5417428158442
58.3769891453815
58.225453028619
58.086343145007
57.9588968852206
57.8423773004251
57.7360703184428
57.6392822033647
57.5513372382699
57.4715756134523
57.3993515049665
57.3340313304217
57.2749921708212
57.221620348894
57.1733101558118
57.1294627194583
57.0894916395419
57.0534150767231
57.0223207525729
56.9974041777707
56.9798601810597
56.9708857647981
56.9716834670937
56.9834652423066
57.0074568781859
57.0449029754271
57.0970725241125
57.1652651214956
57.2508178870933
57.3551131443405
57.4795869534519
57.6257385980615
57.7951411491767
57.9891493998703
58.2059049048094
58.4415086699939
58.6919371101518
58.9530451805131
59.2205464033388
59.489998565613
59.756795630936
60.0161664884636
60.2631812025787
60.4927654210997
60.6997235390133
60.8787710911993
61.0245766551777
61.131813280249
61.195219123506
61.2111354143596
61.1819762545757
61.1118168125714
61.0048715310893
60.8654415541292
60.6978672602776
60.5064865524163
60.2955992989825
60.0694380964486
59.8321453327373
59.5877563799323
59.3401886323148
59.0932360308324
58.850568674588
58.6157371099967
58.392180904778
58.1831385366001
57.9897355264588
57.8112226175519
57.6468177000912
57.4957731267741
57.3573723467665
57.2309268260911
57.1157732263294
57.0112708170787
56.9167991006817
56.8317556304641
56.7555540060952
56.6876220317977
56.6274000249914
56.5743392646123
56.5279005698134
56.4875530010608
56.4527963540098
56.4236080938721
56.4004034949444
56.3836162783255
56.3736832903714
56.371045538875
56.376149305231
56.3894473367418
56.4114001240254
56.442477269362
56.4831589527875
56.5339375038145
56.5953190878477
56.6678255176857
56.7519962019778
56.8483902441613
56.9575887072675
57.0800293010398
57.2143551750793
57.3580827071162
57.5086711595553
57.663530745271
57.8200172132798
57.9754287568174
58.1270053762543
58.271930837929
58.4073373687327
58.53031321411
58.6379131630505
58.7271721068355
58.7951216482895
58.838809715069
58.855323054722
58.8418605608877
58.7978904171251
58.725992593591
58.629028555785
58.5098929450456
58.3714909082966
58.2167182180314
58.0484442955877
57.8694981754807
57.6826573852791
57.4906396648096
57.2960974103171
57.1016147030888
56.9097067671179
56.7228216955917
56.5433442902174
56.3736018695111
56.2158574541061
56.071325146733
55.9395627721472
55.8199994745896
55.7120882344532
55.6153036586614
55.5291399384343
55.4531089586979
55.3867385452172
55.3295708371414
55.2811607740896
55.241074688177
55.208888992523
55.1841889588046
55.1665675773363
55.1556244939832
55.1509650189613
55.1521992032583
55.1590524735657
55.1718454705547
55.1910988666505
55.2173392041251
55.2511000480711
55.2929233779862
55.3433611013172
55.4029766969684
55.4723469981786
55.5520641257387
55.6427375842772
55.7449965363207
55.8594922710614
55.9869008872878
56.1279262127945
56.2833029858443
56.4538003279752
56.6398148857892
56.8395791829464
57.0505611536275
57.2701626390762
57.4957098473949
57.7244456243177
57.9535241698117
58.1800084127562
58.4008702755502
58.6129940689812
58.8131832531802
58.9981707810506
59.1646332043687
59.3092086682896
59.428518846256
59.5191947741102
59.5783586194851
59.6067599548206
59.6069274749453
59.581485200866
59.5331189010323
59.4645543784073
59.3785379753165
59.2778194794306
59.1651375453478
59.0432076856854
58.9147128345031
58.7822964448716
58.6485580515788
58.5160512091091
58.3872837036427
58.2647199352531
58.1507779829379
58.0471768912507
57.9544349088679
57.8729521939131
57.8031362753983
57.7454037829532
57.70018226146
57.6679120806054
57.6490484507293
57.6440635578575
57.6534488324897
57.6777173686014
57.7174065114433
57.7730806351278
57.8453341337212
57.9347946526782
58.0421265910178
58.1678952001892
58.311485639146
58.4716685801101
58.6472082242477
58.8368601065303
59.0393642302888
59.2534386704207
59.4777736444594
59.7110260623164
59.951814576487
60.1987151648973
60.4502572883138
60.704920673256
60.9611327795058
61.2172670184082
61.4716417619698
61.7224969154081
61.9679523276488
62.2060617214694
62.4348269680821
62.6522028135922
62.8561030167097
63.0444079536689
63.2149737279802
63.3656427997705
63.4942561220716
63.5986667396852
63.6767547705956
63.7264436509699
63.7457174835036
63.7326394967421
63.6864017767507
63.6097161745475
63.5060667083319
63.3789685539315
63.2319408434234
63.0684833158375
62.8920569254445
62.7060684151851
62.5138587834829
62.3186955123468
62.1237683828182
61.93218867936
61.7469915762488
61.5711415047703
61.4075403184079
61.2589812408512
61.1260981866604
61.0068336134933
60.899004346566
60.8004709883061
60.7091305979732
60.6229109330042
60.5397661791994
60.4576741118015
60.3746346399907
60.2886696936427
60.1978244136285
60.100169605683
59.9938054131567
59.8768661560075
59.7475262724716
59.6040349821881
59.4466267468151
59.2787005329629
59.103885961744
58.925736977732
58.7477263225903
58.5732442525903
58.4056012509037
58.2480344917618
58.1037178381512
57.9757751956347
57.8672971005228
57.7813604899883
57.7210516845446
57.6894927102503
57.689871200763
57.725474250912
57.7993145041631
57.9101145759157
58.0539825932934
58.2270275480022
58.4253543312555
58.645025328587
58.8820269887041
59.1322413713004
59.3914228600117
59.6551803830037
59.918965613562
60.1780677228077
60.4276153206892
60.6625862426359
60.8778258097625
61.0680741022593
61.2290609705993
61.3611808413826
61.4662106660831
61.546031210461
61.6026105848317
61.6379884654863
61.6542612080964
61.6535680518145
61.6380785753005
61.6099815297502
61.5714751402852
61.5247589366671
61.4720271478685
61.4154636730066
61.3572386237684
61.2994932404916
61.2434306841973
61.1887368642496
61.1349605085842
61.0816535975134
61.0283712553117
60.9746717073731
60.9201163017418
60.8642695938263
60.8066994930812
60.746977470376
60.6846788246678
60.619383007461
60.5506740033709
60.4781407649084
60.4013776993781
60.3200203386265
60.2350233351812
60.1490054222287
60.0646649251927
59.9846701765339
59.9116622937267
59.8482602757144
59.7970683689638
59.7606856774034
59.7417180217825
59.7427920934277
59.7665719954236
59.8157783217622
59.8932099933681
60.0017691511525
60.1444895032086
60.3244276536205
60.541036394073
60.789717963452
61.0656082379496
61.3637295828265
61.6789468548097
62.0059308897949
62.3391300913512
62.6727509846697
63.0007487983701
63.3168292705826
63.6144629299832
63.8869130585912
64.1272783822253
64.3285512395486
64.483993759406
64.5922149838062
64.6565161299664
64.6805601515015
64.6681818803103
64.6233423993627
64.5500870271516
64.4525076034302
64.3347095692582
64.200784153342
64.0547858175488
63.9007149814275
63.7425059407277
63.5840198187624
63.4290423412569
63.2812314788047
63.1421378742313
63.01069144364
62.8856758863415
62.7658975665955
62.6501832415594
62.5373782599254
62.4263452102677
62.315963000729
62.2051263535483
62.0927456991339
61.9777474549489
61.8590746744653
61.7356880508726
61.6065672591709
61.470712618749
61.3274650685958
61.178669060712
61.027306348378
60.8763091371303
60.7285523554917
60.5868556977642
60.4539882875309
60.3326758385733
60.2256102138004
60.1354613154573
60.0648912808729
60.0165710072486
59.9931990868258
59.9975233011005
60.0323649010715
60.1006459920972
60.2047329218294
60.3422408506081
60.5087199309713
60.6996996374899
60.9106559020953
61.1369761841906
61.3739309769861
61.6166520365267
61.8601177879092
62.0991464909329
62.3283978291261
62.5423836140133
62.7354882617938
62.9019995933328
63.0361503228076
63.1324589299614
63.1899405863771
63.2112196519935
63.1991516439309
63.1566995212778
63.0869039468055
62.9928558285354
62.8776714979976
62.7444707805975
62.5963581198569
62.43640683409
62.2676465130912
62.0930535045867
61.9155443957976
61.7379723641757
61.563126252505
61.3932111763214
61.2283115908069
61.0679957796711
60.911842064971
60.7594381787125
60.610380700436
60.4642745571471
60.3207325822805
60.1793751306758
60.039829746791
59.9017308835959
59.7647196697673
59.6284437229634
59.4925570070758
59.3567197314636
59.2205982902456
59.0840529401108
58.9484137239927
58.8156762016841
58.6878044714668
58.5667298360746
58.4543548578304
58.3525586162938
58.2632031343811
58.1881409550557
58.1292238697469
58.0883128217042
58.0672890327442
58.0680664306731
58.0926054876485
58.1429286176763
58.2211373254275
58.3294022787837
58.4679659539908
58.6337907676028
58.8235312384494
59.0338115872034
59.2611985823561
59.5021780106758
59.7531348723795
60.0103375119951
60.269925990796
60.5279050839317
60.7801423419908
61.0223716887269
61.2502030293671
61.4591383122545
61.6445944156333
61.8022972427091
61.93114297375
62.0317382929015
62.1047939587086
62.1511044403493
62.1715405880868
62.1670420297425
62.1386094000015
62.0872965049548
62.0142025181973
61.9204642973401
61.8072489012578
61.6757463790959
61.5271628922952
61.3627142209348
61.1836198058625
60.9916339478021
60.7902594626071
60.5832867175133
60.3744115045574
60.1672312969386
59.9652459414974
59.7718624839426
59.5904038408681
59.4241210686576
59.2762090317411
59.1498253395747
59.0481125021447
58.974223347612
58.9313498538124
58.9227556697899
58.9518127478573
59.0215000033345
59.1307070849869
59.2764367342517
59.455758346113
59.6657831533945
59.9036307043381
60.1663981583548
60.4511321775294
60.754803315517
61.0742829195445
61.4063226672096
61.7475369584023
62.0943884735485
62.4431772910363
62.7900340266083
63.130971243612
63.4629177859276
63.7836958316291
64.0910982344784
64.3828592698469
64.6566636173232
64.9101571267966
65.1409593999405
65.3466781848868
65.5249255420738
65.6733356942379
65.7895844241261
65.8714098308781
65.9166342017053
65.9231867013245
65.890251447363
65.8220872929215
65.7243909009962
65.6028835080623
65.4632652296083
65.3111794039482
65.1521869490623
64.9917505244628
64.8352281434163
64.6878758052171
64.554858707698
64.4412706511506
64.3521613510892
64.292571535066
64.2675758683213
64.2809585259391
64.3316201443574
64.4174414167009
64.536399581306
64.6865461250299
64.8659862751834
65.0728600080771
65.3053243581241
65.5615368606251
65.8396400054314
66.1377466189485
66.453926129419
66.786191705868
67.1324882950383
67.4905973655763
67.8574662405409
68.2295217271959
68.6030269874071
68.9740787528907
69.3386056821167
69.6923714427338
70.0309830224827
70.3499047519256
70.6444784720818
70.9099501949424
71.1415034814958
71.3342995984153
71.4835559254918
71.5867898687937
71.6453155935096
71.6609677679838
71.6357433189135
71.5717779742285
71.4713228069245
71.3367211795497
71.1703864441684
70.9747807027815
70.7523948806602
70.5057303119776
70.2372819853292
69.9495235477463
69.6448900694622
69.3257009018403
68.9941639122067
68.6524272087596
68.3025751314499
67.9466237435882
67.5865176578388
67.2241280992735
66.861252103653
66.4996127477247
66.1408603096327
65.786574261072
65.4382659981784
65.0973822249352
64.7653089107748
64.4434221471171
64.1334893983867
63.8374610292987
63.5572254582028
63.2946165508687
63.0514246815348
62.8294086196247
62.6303082369893
62.4558580606813
62.3078017280867
62.1879074352725
62.0979845064071
62.0399012530629
62.0156043383773
62.0271399140286
62.0766558518694
62.1638990397861
62.2837805229767
62.4306705812347
62.5989097831271
62.7827637839181
62.9763881522107
63.1738035076361
63.3688814902189
63.5553422425798
63.7267641607658
63.8766066475153
63.9982464717428
64.0850280900992
64.1303279148917
64.1276706140846
64.0742687615867
63.9737867513313
63.830701300965
63.6495963220258
63.4351072716454
63.1918716191267
62.9244859628626
62.6374700604354
62.3352378001581
62.0220749505323
61.7021233765376
61.3793713070754
61.0576491730799
60.7406305063641
60.4318373901784
60.1346349732527
59.851431717444
59.5833157478461
59.3312459824422
59.0961636604216
58.8789986347877
58.6806758843654
58.5021222685377
58.3442735573617
58.2080817795437
58.0945229412993
58.004605180644
57.9393774344524
57.8999387100437
57.8874480695415
57.9031354543292
57.9483134992301
58.0240229056585
58.1285118164442
58.2587159560087
58.4115784247791
58.5840313123916
58.7729724108366
58.9752450062667
59.1876207778647
59.4067859178404
59.6293306598541
59.8517424631489
60.0704031448379
60.2815902808294
60.4814832040263
60.6661739136064
60.8316831683168
60.9746807421332
61.0946302847285
61.1917464930494
61.266301307512
61.3186215192958
61.3490860979982
61.3581232730429
61.3462074037756
61.3138556741337
61.2616246481361
61.190106722256
61.0999265100266
60.9917371930564
60.8662168710317
60.7240649413316
60.5659993882997
60.3930921951678
60.2072704872684
60.0105684345451
59.8049849705786
59.5924777571837
59.3749585379466
59.1542898185031
58.9322828013768
58.7106964970045
58.4912379298027
58.2755633583943
58.0652804320234
57.8619512103749
57.6670959811379
57.4821978184185
57.308707835279
57.1480464469615
57.0014051977102
56.8696779183712
56.7537400353035
56.6544753368737
56.5727814001221
56.5095753523648
56.4658000103827
56.4424304488253
56.4404810595403
56.4610131749951
56.5051433421052
56.5740523480023
56.668995117044
56.7913116192596
56.9424389551536
57.12392481124
57.3372425865644
57.5809082099871
57.8510270933534
58.143553502207
58.4543163959813
58.778986766924
59.1130504205799
59.4517867735949
59.7902544142647
60.1232843074827
60.445481619042
60.751237172768
61.0347495243124
61.290058523793
61.511091033118
61.6917191978661
61.8274446918471
61.9197798070028
61.9717927331568
61.9867408813911
61.9680297160113
61.9191738224928
61.8437609334746
61.7454194740227
61.6277900314569
61.4945010106199
61.3491486074519
61.1952811253788
61.0363875720659
60.8758904090557
60.7171422832199
60.5634232816702
60.4171361758559
60.2787722916639
60.1485564793675
60.0267147636144
59.9134750681232
59.809067959721
59.7137274139486
59.6276916047327
59.5512037209233
59.4845128128065
59.4278746720444
59.381552748864
59.3458191107192
59.3209554470929
59.3072541255909
59.3050193050193
59.3145057511451
59.3357326406947
59.3686706489663
59.413304154141
59.4696311368518
59.5376631196538
59.617425145914
59.7089557978613
59.8123072537456
59.9275453842674
60.0547498886523
60.1940144709572
60.3454470574157
60.5091700558535
60.6853206584399
60.8740454331212
61.0745274342865
61.2838512644786
61.4987592459035
61.715903480763
61.931840756785
62.1430311525645
62.3458406224307
62.5365478413231
62.7113555705393
62.8664067628109
62.9978055578829
63.1016432262975
63.1740289991153
63.2111255760224
63.2091889729559
63.1659162121143
63.0839108075389
62.966973529409
62.818976264872
62.6438227206772
62.4454136485408
62.22761689317
61.9942423985567
61.7490221680156
61.4955950596563
61.2374962120352
60.9781508337228
60.720872053623
60.468862513618
60.2252193887556
59.9929425298134
59.7745831493405
59.5713187154562
59.3840136159187
59.2135292995457
59.0607296822225
58.9264867997702
58.8116867386945
58.7172358836033
58.6440675285655
58.5931489090732
58.5654887218034
58.5621452113408
58.5842349167506
58.6329421868111
58.7095295913152
58.8153493777618
58.9515581271092
59.1165226314882
59.3070180738841
59.519782069361
59.7515044048874
59.9988023576079
60.2581994128441
60.5261075412265
60.798813292769
61.0724680495115
61.3430828452651
61.6065282076871
61.8585395002046
62.0947282344357
62.310599782768
62.5016107265458
62.665010507176
62.8008573141381
62.9095213691279
62.9914535760882
63.0471811042176
63.0773025519934
63.0824827617228
63.0634473555775
63.0209770641539
62.9559019174347
62.8690953657003
62.7614683946117
62.6339636944957
62.4875499389705
62.3232162226316
62.1423508621982
61.9481851262514
61.7444464409475
61.5347806254073
61.3227434595791
61.1117966912561
60.9053080983159
60.7065553307008
60.5187332692509
60.344964667349
60.1883138843658
60.0518035754748
59.938434269497
59.8512068446952
59.7931480023386
59.7673389407908
59.776357228906
59.8194471430286
59.8947142047605
60.0003504881522
60.134616740873
60.295824350944
60.4823186407613
60.6924632971846
60.924625788207
61.1771636540385
61.4484115944496
61.7366693057977
62.0401900509716
62.3571699740116
62.6857381987131
63.0238904633953
63.3686469693898
63.716191479332
64.0625178953287
64.4034451255915
64.73461910224
65.0515206972072
65.3494801046181
65.6236982031846
65.8692753137781
66.0812476209103
66.2546313297515
66.3844743827211
66.4659152653831
66.4942535227554
66.4671890160198
66.3881759168434
66.2617386431738
66.0925523708241
65.8853816225911
65.6450246353576
65.3762642605007
65.0838258498164
64.7723423097855
64.4463262788606
64.1101491992513
63.7680269168473
63.4240113484053
63.0819877001242
62.7456767013889
62.418440168368
62.1022197096694
61.7983783550815
61.5082291431264
61.2330431310601
60.9740564936759
60.7324779821063
60.5094967362251
60.3062904577733
60.1240339652044
59.9639081656351
59.8271094944448
59.7148598893125
59.6284173831762
59.569087420242
59.53823502131
59.5370229607714
59.5640371465559
59.6164456614438
59.691449926799
59.7862783199351
59.8981660754692
60.0243377912297
60.1619924569771
60.3082909881621
60.460346301229
60.6152160119153
60.7698978734268
60.9213280966908
61.0663827091908
61.2018821110238
61.3245990903264
61.4318355004263
61.5227601790541
61.5969497086121
61.6540046494004
61.6935515593216
61.7152449516669
61.7187691746862
61.7038401966863
61.6702072806423
61.617654532758
61.5460023100699
61.4551084730599
61.3448694703165
61.2152212435553
61.0661399427616
60.8976551901864
60.7107252770388
60.5077707992256
60.2913152333513
60.063837008418
59.8277602642974
59.5854477393316
59.3391956883409
59.0912307134139
58.8437083781006
58.5987134703054
58.3582617795083
58.1243032591257
57.8987264541202
57.6833640866916
57.4799997084526
57.2903753454442
57.1161690076307
56.9584195201242
56.8175998317213
56.6941778711742
56.5886413227666
56.5015010859077
56.433294924777
56.3845913404386
56.3559937020223
56.3481446783751
56.3617310171306
56.3974887245868
56.4562087072775
56.5387429448997
56.6460112745436
56.7790088782935
56.9388145805735
57.1263213202029
57.339486831846
57.5744059951193
57.8270620218654
58.0933225649952
58.3689150381391
58.6494075433967
58.93019593944
59.2064976940545
59.473353239704
59.7256355796989
59.9580688667534
60.1652565856138
60.3417198084323
60.4819457493443
60.5804465208924
60.6326863609982
60.6398265708304
60.6054210627374
60.5331937566726
60.4269849356168
60.2907066485259
60.1283024369971
59.9437118915746
59.7408403447104
59.5235338313038
59.2955592989651
59.0605899308914
58.8221953548297
58.5838364508672
58.3488644365423
58.1205238972103
57.9019482200998
57.6951724997113
57.5003953174131
57.3176361224358
57.146924295685
56.9882995642854
56.8418124409101
56.7075246907275
56.58550982899
56.4758536525075
56.3786548085012
56.2940254046115
56.2220916641558
56.1629946310912
56.1168909295415
56.083953583207
56.0643729004882
56.0583571704475
56.066029096301
56.0872664521419
56.1219252117073
56.1698799696658
56.2310232836767
56.3052650845739
56.3925321502276
56.4927676391222
56.6059306801194
56.7319960152783
56.8709536929621
57.0228088087949
57.1875812923372
57.3653057376312
57.5560312760262
57.7598214899428
57.9766731409478
58.2051675451119
58.4426279013528
58.6862549631152
58.9331566334787
59.1803422532361
59.4247197570074
59.663095962779
59.8921802700475
60.1085920369655
60.3088718852328
60.4894971408041
60.6469015569466
60.7774993826159
60.8777137332121
60.9440090935012
60.9734912224556
60.9673834387464
60.9287649004106
60.8608168942134
60.7667840037154
60.6499451119256
60.5135876606433
60.3609853894087
60.1953796705334
60.0199644651456
59.8378748500515
59.6521790069819
59.4658735241877
59.2818818345011
59.1030556026592
58.9321788764622
58.7719445158861
58.6243005709469
58.4904772835399
58.3716682296334
58.2690670654486
58.1838742766039
58.1173044422672
58.0705940595974
58.0450099877044
58.0418585859324
58.0624956388856
58.1083371807364
58.1808713546042
58.2816714699132
58.4124104525634
58.5748769206574
58.7709897566388
59.0014437837678
59.2635498403962
59.5540608121864
59.869667993304
60.2069676006391
60.5624303950816
60.9323745749772
61.3129422556659
61.7000799879292
62.089523894938
62.4767901177215
62.8571713472974
63.2257402797593
63.577360849786
63.9067097713947
64.2095505522003
64.4850413426175
64.7330008805023
64.9533305755059
65.1460141609842
65.3111167637025
65.4487834112521
65.5592370041021
65.6427757855671
65.6997703485707
65.730660222835
65.7359500899602
65.7162056767458
65.6720493790259
65.6041776876856
65.5138391972619
65.4028209640801
65.2729507533683
65.1260643398058
64.9639958545492
64.7885691610177
64.6015902847318
64.4048409038245
64.2000728906767
63.9890038815591
63.7733138401971
63.5546425727307
63.3345881454943
63.1147061532139
62.8965117277264
62.6817120039972
62.4724184771702
62.270738687214
62.0787283313348
61.8983975287481
61.7317183037539
61.5806332341699
61.4470652346599
61.3329284695846
61.2401404177764
61.1706351423798
61.126377853055
61.1093808861318
61.1217212716793
61.165560106221
61.2429838734849
61.3530539727549
61.4922333703368
61.6569209131004
61.8435025976352
62.0483224456129
62.2676574337479
62.4976965232149
62.7345239514639
62.9741070490081
63.2122889235985
63.4447864117041
63.6671937288064
63.8749922514538
64.0635668307143
64.2284107018503
64.3677768760403
64.4821502630633
64.5721445305134
64.6384390456812
64.6817734801195
64.7029422334955
64.7027887456062
64.682199762717
64.6420996207227
64.5834446031876
64.5072174272533
64.4144219048818
64.3060778210756
64.1832160647416
64.0469000127245
63.8985457431801
63.7398117106218
63.5723425986494
63.3977590493719
63.2176539084648
63.0335893262405
62.8470946819567
62.6596652937555
62.4727618735739
62.2878106849696
62.1062043618922
61.9293033478535
61.7584379175519
61.5949107466536
61.44
61.2949539088766
61.1609681286428
61.0392177275244
60.9308710228221
60.8370947495118
60.7590596674956
60.6979466292643
60.6549531394489
60.631300448465
60.628241234389
60.6470679406003
60.6891218519158
60.7558030093278
60.8485810835311
60.9690073508153
61.1187047401815
61.2972920771681
61.5006617826663
61.724260578896
61.9634395737007
62.2134254000507
62.4692980756111
62.7259760658148
62.9782091643885
63.2205798898579
63.4475141270789
63.6533017100038
63.8321275362152
63.9781136169792
64.0853721931516
64.1481197137425
64.1642088954201
64.1374308598816
64.0722777140491
63.9733544520411
63.8453279087575
63.6928818947347
63.5206790089367
63.3333293771193
63.1353663530817
62.9312290525764
62.7252514659525
62.5216578145047
62.3245637741535
62.1379831847237
61.9658398896682
61.8114530510002
61.6743422386539
61.5524421994098
61.443735711137
61.3462508827167
61.2580533286664
61.1772396882135
61.1019324157318
61.0302757853222
60.9604330645855
60.8905848216166
60.8189283351629
60.7436780809082
60.6630672671105
60.5753503904675
60.4788067782395
60.3724046723305
60.2583083831775
60.1396097556436
60.0193564453273
59.9005488335321
59.7861401974299
59.6790398169652
59.5821189038528
59.4982192573429
59.4301645816499
59.3807744405442
59.3528808754891
59.3493477752063
59.3730931576405
59.4271146116264
59.5145182477019
59.6378869809915
59.7952231906723
59.9825358781663
60.1958155883828
60.4310029753238
60.6839543150468
60.9504121290861
61.2259811348086
61.506109901566
61.7860787267848
62.0609943501551
62.3257921907316
62.5752468133397
62.8039912986118
63.0065460965553
63.1775869993953
63.3152999690627
63.4207216723223
63.4950828778953
63.5397224456194
63.5560740548326
63.545652866645
63.5100423236232
63.4508812713838
63.3698515650948
63.2686663008514
63.1490587881618
63.0127723561344
62.8615510630635
62.697131357524
62.5212394131578
62.3361445561996
62.1451651349639
61.9516704601519
61.7589494245386
61.5702101872773
61.3885832511553
61.2171277195097
61.0588405420185
60.9166685933887
60.7935234748295
60.6922989842907
60.6158912675287
60.5672217385199
60.5492629457034
60.5650676620483
60.6177432509102
60.7083529762765
60.8352972235356
60.9968962759908
61.1915510119639
61.4177233076778
61.67391769425
61.9586640335879
62.270501021506
62.6079603652162
62.9695515178542
63.353746886049
63.758967458642
64.1835688363078
64.6258276736063
65.0838372245723
65.5541591297871
66.0320201337658
66.5123280916539
66.9896877158344
67.4583956468438
67.912444992342
68.3455406621574
68.7511267856397
69.1224273611664
69.4525010401663
69.7343105766448
69.9608069715395
70.1250277123889
70.221572818917
70.2526144687997
70.2231040015105
70.1383081967643
70.0037217316373
69.8249866438516
69.6078189902516
69.3579439248539
69.0810399738151
68.7826928830675
68.4683590720707
68.1433384514852
67.8127561555187
67.4815525988364
67.154327248995
66.8336618080964
66.5208297310126
66.2170356231076
65.9234413903761
65.6411703759963
65.3713117929616
65.114925429035
64.8730466073047
64.646691392765
64.4368620426022
64.244552705279
64.0707553811334
63.9164661651349
63.7826918007804
63.6703845022075
63.5794195882611
63.5088537961166
63.4577684011279
63.4252868038892
63.4105693941363
63.4128088092789
63.4312255426515
63.4650638626128
63.5135880089266
63.5760786375422
63.6518294890453
63.7401442597758
63.8403336579534
63.9517126301988
64.0735007594323
64.2034213654217
64.3379931046767
64.4736470815861
64.6067543100844
64.7336262396772
64.8505194682346
64.9536448048376
65.0391808137292
65.1032919159789
65.1421510481557
65.151966777264
65.1290146497586
65.0696724123191
64.9704585875693
64.8287601883682
64.6470204714601
64.4298737286035
64.1819770326712
63.9079566575599
63.6123697854243
63.2996731204337
62.974198297802
62.6401338164439
62.3015131060709
61.9622082622291
61.6259289416601
61.296225900584
60.9764986749883
60.670006939812
60.3798851386242
60.1087753197869
59.8572201949292
59.6251050889299
59.4123449856371
59.218885244612
59.0447020076622
58.8898027306087
58.7542268470154
58.6380465717565
58.5413678535623
58.4643314870949
58.4071143966794
58.3699311055789
58.3530354066922
58.3567222527984
58.3813298870209
58.4271964276434
58.4934791610617
58.578034183384
58.6786616184238
58.7931589694658
58.9193095343501
59.0548724339442
59.1975742582399
59.3451023639057
59.4950998818824
59.6451625133562
59.7928372068458
59.9356228176882
60.0709728533007
60.1963004025709
60.3089853349256
60.4064623125741
60.4875268489395
60.5521560876031
60.6003918913872
60.632303670398
60.647987903906
60.6475675545415
60.6311913800027
60.5990331481775
60.5512907621974
60.4881853024878
60.4099599933327
60.3168791018425
60.2092267774897
60.0873058405688
59.9514365280359
59.8020053477112
59.6404072843082
59.468937935395
59.289888717929
59.105505990466
58.9179866059776
58.7294751936802
58.542063075895
58.3577887212038
58.1786396353832
58.0065555962455
57.8434331470386
57.6911312749909
57.5514782165357
57.426279348423
57.3173261441476
57.2264061978678
57.1551279391321
57.1035010856576
57.070741934937
57.056101484292
57.0588675929611
57.0783605860618
57.1139291774796
57.1649466732929
57.2308074222531
57.3109234841481
57.4047214906828
57.5116396768922
57.6311250641399
57.7626307784909
57.9056134907498
58.059530966757
58.2238367073841
58.3976140861616
58.5792151953486
58.766872649187
58.9587758037662
59.1530671551239
59.3478398314373
59.5411362574563
59.7309480755293
59.9152174105898
60.0918395658678
60.2586672313961
60.4135162781498
60.5541731964961
60.6784042182104
60.7839661364704
60.8686736669495
60.9318303370531
60.9743784081841
60.9973894419644
61.0019774870271
60.98929208815
60.9605115535867
60.9168365434513
60.859484032489
60.7896816910865
60.7086627191566
60.6176611587706
60.5179077032478
60.4106260129833
60.2970295416646
60.1783188707721
60.0557160492233
59.9312619077423
59.8077974071957
59.6881531808262
59.5751153901404
59.4714308300919
59.3798145350918
59.3029598157962
59.2435506910713
59.2042767228468
59.1878503139061
59.1970265906892
59.2346260661305
59.3035603633692
59.4068613826504
59.5477144147907
59.7294078635373
59.9521393883525
60.2119843735681
60.5047272037788
60.8260806056355
61.1716372829391
61.5368268605656
61.9168784138211
62.3067891239436
62.7012998401676
63.0948785384245
63.4817128367392
63.8557128443203
64.2105256687232
64.5395628646232
64.8362416702295
65.0973576874649
65.3227398666808
65.5124458120575
65.6666662164784
65.7857212489124
65.870055863739
65.9202341246474
65.9369326487305
65.920933286551
65.8731151611722
65.794446193386
65.6859742417302
65.5488179845026
65.3841576671139
65.1934793235294
64.9797759978666
64.7465522699221
64.4972617508529
64.2352886921797
63.9639341796624
63.6864060175411
63.4058121025902
63.1251570549793
62.8473418558721
62.575166238172
62.3113335849489
62.0584581079953
61.8190741049943
61.595647126508
61.390580084706
61.2054125175569
61.0400880684297
60.894402500122
60.7681887591367
60.661316365621
60.5736909752061
60.5052541096729
60.4559830548407
60.4258909255353
60.4150268989543
60.4234766192338
60.4513627775556
60.4988458737326
60.5661251669069
60.6534398248052
60.7610224532635
60.8876360735164
61.0302700634843
61.1857800412182
61.350973659484
61.5225982431413
61.697331679377
61.8717767239547
62.0424589218769
62.2058283608827
62.3582654792178
62.4960911332043
62.6155810934134
62.7129850791467
62.7845503584958
62.8265533379995
62.8367341669063
62.8164699880081
62.7677760345175
62.6927361229894
62.5934847976168
62.4721905644657
62.3310403949411
62.17222563427
61.9979294095025
61.8103155935106
61.6115193474831
61.4036392349499
61.1887308757079
60.9688020881838
60.7458094536661
60.5216581010244
60.2983294494348
60.0779595662185
59.8626419526827
59.6544108040844
59.4552457346343
59.2670777497168
59.0917963858937
58.9312579584269
58.7872948777129
58.6617260200474
58.5563681645599
58.4730485371852
58.4136185345591
58.3799687363547
58.3740453546551
58.3978683146343
58.4530443749559
58.5383214063047
58.6514486042352
58.7902203574104
58.9524566724058
59.1359839199496
59.3386172158334
59.5581443345193
59.7923111073658
60.038808306624
60.2952600615721
60.5592138946346
60.8281325029897
61.0993874445862
61.3702549159205
61.6379188371525
61.8999237148833
62.1545577338945
62.4001471852873
62.6349774587648
62.8572978610637
63.0653274780891
63.2572621090802
63.4312822865384
63.5855623782957
63.7182807480988
63.8276309286305
63.9118337363254
63.9691502311379
63.9978953972094
63.996465585354
63.9645331608576
63.903982203478
63.8169820703048
63.7057489132189
63.5725285915669
63.4195809630494
63.2491656811864
63.0635295850957
62.8648957284627
62.6554540601937
62.4373537397826
62.2126970460788
61.9835348188987
61.7518633586168
61.5196226991771
61.2887512196268
61.0617896111917
60.8416383946781
60.6311239064238
60.4329988290485
60.2499530755241
60.0846269190136
59.9396262803948
59.8175401394981
59.720960097137
59.6525021835568
59.6148310861315
59.6106870568882
59.6429158614631
59.71450224914
59.828607563756
59.9882726187555
60.192153315154
60.4356829374542
60.7142221593086
61.0230699732951
61.3574082355127
61.7122527127536
62.0824108985581
62.4624471872965
62.8466562840061
63.2290459754193
63.6033305825727
63.9629365410799
64.3010215912587
64.6105089841805
64.8848921791333
65.1235356382345
65.3287597559838
65.503084795312
65.6491888026754
65.7698828390013
65.8680876174627
65.9468119847912
66.0091336086049
66.0581821610848
66.0971252223523
66.1291570675882
66.1574904521768
66.1853514703484
66.2159635649214
66.2512962469456
66.2910679962826
66.3347637409278
66.3818671579699
66.4318600941681
66.4842220657887
66.5384298381815
66.5939570858834
66.6502741342895
66.7068477841333
66.7631412201688
66.8186140055383
66.8727221633497
66.9249183469658
66.9752119628372
67.0263193159315
67.0817903972063
67.145200003741
67.22015417646
67.3103007060599
67.419343669963
67.5510621865771
67.7093336514501
67.8981618212458
68.1217102395461
68.3843416585411
68.690664310017
69.0455860700939
69.4522821799757
69.9065182180151
70.4021953071058
70.932959943154
71.4921225949773
72.0725856516653
72.6667821864898
73.2666276191163
73.8634869139911
74.4481604188976
75.0108917767718
75.541401476931
76.0290512877378
76.4675062944364
76.856919634389
77.1981843214026
77.4924532327077
77.7411219742704
77.945809774582
78.1083388718424
78.2307128629524
78.3150944726814
78.363783179449
78.3791931023359
78.3638326580792
78.3211111069163
78.2567696619386
78.1769455130524
78.0877505085412
77.9952519056321
77.9054626782195
77.8243412000114
77.7578000895003
77.7117240313129
77.6919964743605
77.7045352494396
77.7553373480936
77.849263734109
77.9813505394044
78.1419424271368
78.3212717453142
78.5094260028219
78.6963118497544
78.8716443290187
79.0249626218973
79.1456734917398
79.2231233097
79.2466989049342
79.2059565134147
79.0916455925987
78.9054406762288
78.6562711257123
78.3533106163928
78.0057218126983
77.6225474750408
77.212623488401
76.7845135930004
76.3464648847533
75.9063826597911
75.4718228879236
75.0500004898179
74.6478116331457
74.271085910929
73.9193565948586
73.5893551317317
73.2779369313427
72.9820811733501
72.6988762903628
72.4255081869134
72.1592509506999
71.8974598506181
71.6375664450071
71.377075644486
71.113564587821
70.8446831973244
70.5681644227677
70.283838143358
69.9961764078387
69.7101582127869
69.4306023671166
69.1621746812507
68.9094014010174
68.6766883928715
68.4683456848926
68.2886170923299
68.1417148046956
68.0318589829321
67.9633226115639
67.9404820760783
67.9678737456885
68.0480375610943
68.1763751969656
68.3468936603897
68.5536459223545
68.790660052364
69.0518785468948
69.3311076402209
69.6219768041415
69.917908993068
70.2121024712575
70.4975252619245
70.7669233706816
71.0128439418584
71.227943966033
71.409505312915
71.5588829642935
71.6776798910897
71.7676062411626
71.8304646626439
71.8681359181187
71.8825649954992
71.8757478957298
71.8497192505466
71.80654089636
71.7482915038215
71.6770573374817
71.5949237280428
71.5037811152269
71.4050366816774
71.3000149010991
71.1900290168743
71.0763790460214
70.9603502753228
70.8432122379063
70.726218156718
70.6106048402123
70.4975930151872
70.3883880819519
70.2841812779011
70.1861512370393
70.0954277181818
70.0121121454331
69.9352045916183
69.8636622081408
69.7964532376277
69.7325555705967
69.6709556130714
69.6106474572058
69.550632348205
69.4899184416842
69.4275208460982
69.3624619450125
69.29377199379
69.2204899847435
69.1418048779399
69.0590594488474
68.9752593764683
68.8934264511345
68.8165540761904
68.7476103599388
68.6895437610887
68.6452912458623
68.617788939995
68.6099852928249
68.6248568136882
68.6654264934559
68.7347850872602
68.8361155098336
68.972338761891
69.1418848834586
69.3401554065049
69.5624629356238
69.8040484090097
70.0600497422039
70.325476694591
70.5951922939069
70.8639012897271
71.1261462059207
71.3763116188274
71.6086372955137
71.8172407773135
71.9961859816544
72.1420308069498
72.2555456756331
72.3379915654789
72.3907258818264
72.4151906663546
72.4129008211468
72.3854325073585
72.3344118624426
72.2615041629513
72.1684035420519
72.0568233526542
71.9284872489675
71.7851210418551
71.6285641037864
71.4612123698072
71.2856017093465
71.104227396851
70.9195395044798
70.7339400983051
70.5497821228234
70.3693698890795
70.1949610816438
70.0287702039565
69.8729733897298
69.7297145197985
69.6011125987283
69.4892688384852
69.3951754348328
69.3167991720496
69.2516279656631
69.1971851550431
69.1510209550305
69.1107057242328
69.0738249914235
69.0379761990414
69.0007671350162
68.9598160312859
68.9127533095674
68.8572249523239
68.7908974695502
68.71146813501
68.6181556673684
68.5139461611452
68.4023826101234
68.2869693744752
68.1711666377
68.0583884447395
67.9520042041613
67.8553435370133
67.7717043688791
67.704364188957
67.6565944400263
67.631678055712
67.6329302267455
67.6637225568279
67.726248877372
67.817244722354
67.9319556499489
68.0656179704002
68.2134282209788
68.3705191796173
68.5319425583227
68.6926586000739
68.8475328888941
68.991340727208
69.1187794337301
69.2244888648791
69.3030803593346
69.3491766979837
69.3593056438651
69.3352046326657
69.279584473822
69.1952298322968
69.0849753955324
68.9516839965673
68.7982269110336
68.627466476711
68.4422411213728
68.2453528292165
68.0395570290713
67.8275548492287
67.6119876541471
67.3954337571554
67.1801720662859
66.967059453028
66.7564402931402
66.5486495088125
66.3440136088242
66.1428510659312
65.9454727194049
65.752182200945
65.5632763823766
65.3790458437408
65.1997753605811
65.0257444094289
64.8572276906913
64.6944956683458
64.5378151260504
64.3872998760135
64.2424671253549
64.1026962808969
63.967379182718
63.8359191724463
63.7077302863623
63.5822365672267
63.4588714893705
63.3370774921131
63.2163056169974
63.0960152446768
62.9756739275445
62.8547573143837
62.7327491634298
62.6091414402866
62.4835731316582
62.3573569071281
62.2328862478686
62.1125363874032
61.9986467347452
61.8935250535485
61.7994533312448
61.7186952932364
61.6535055383304
61.6061402975348
61.5788698491688
61.5739926592782
61.5938513581742
61.6408507124479
61.7174778083407
61.8263223450261
61.9683683605317
62.1398956373496
62.336355534432
62.5531440744416
62.7855667065309
63.028809557682
63.2779174644055
63.5277792446987
63.77312079801
64.0085067027664
64.2283510090603
64.4269378895257
64.5984527053078
64.7370238586108
64.8368200716657
64.8951965883214
64.9147725957733
64.8987951887874
64.8506292724947
64.7737226307281
64.6715739385521
64.5477041395746
64.4056314780885
64.2488503573144
64.0808140913402
63.9049215318527
63.7245074823733
63.5428367624804
63.3631017517428
63.1884231453445
63.0217953287265
62.865991818101
62.7237113018334
62.5976166453215
62.490348016546
62.4045381640756
62.3428298815098
62.3078957511905
62.3024603275591
62.3293249983807
62.3913958525131
62.4917149891912
62.6334958302476
62.8201631490737
63.0553987160858
63.3419520229277
63.6762291503926
64.0524457263439
64.4646764938622
64.9067752000271
65.3723024480877
65.8544636682859
66.3460585923984
66.839444153598
67.326513193542
67.7986917095303
68.2469575717982
68.6618836313912
69.0337078651685
69.3544954695478
69.6245821656637
69.8466678002059
70.0237533440789
70.1590988171121
70.2561814198594
70.3186549074087
70.3503111080898
70.355044344568
70.3368193650492
70.2996432460903
70.2475415923618
70.18453923769
70.1146268506461
70.0404619053906
69.9625433023381
69.8811692154669
69.796636300342
69.7092394263132
69.6192714348784
69.5270229239622
69.4327820577889
69.3368344019538
69.2394627832387
69.1409471736689
69.0415645982644
68.9415890659087
68.8412798680893
68.7403669751495
68.6378553828574
68.5327087053359
68.4239038824592
68.3104320743019
68.1912998451256
68.0655306241067
67.9321664284895
67.7902698330431
67.6389261676619
67.4772459227118
67.3043673393428
67.1194591595227
66.9217235256436
66.711027165116
66.4895323343269
66.2598744624495
66.0246280715636
65.7863020798229
65.5473371344277
65.3101048466274
65.0769087972663
64.8499871835351
64.631516984832
64.4236195372623
64.2283674217006
64.0477925889824
63.8838956673157
63.7386564211739
63.6132710485159
63.505558848087
63.4124700661495
63.3310123066129
63.2582381543864
63.1912356813606
63.1271217385472
63.0630379439648
62.9961492969226
62.9236453599699
62.8427439504523
62.7506972747681
62.6448004205241
62.5224020954489
62.3809174679214
62.2180008540914
62.0341373572288
61.8321587241795
61.6149379056439
61.3852998558149
61.1460098111936
60.8997642697147
60.6491845506658
60.3968127888518
60.1451101995445
59.896457442984
59.6531569174358
59.4174368169535
59.1914568029737
58.9773151567253
58.7770573013694
58.5926819057931
58.4252352451942
58.273646386455
58.1365923900647
58.0127947350443
57.9010133211554
57.800041143889
57.7086995857691
57.6258342770389
57.5503114869218
57.4810150135565
57.4168435465392
57.3567084808905
57.2995321652866
57.2442465706302
57.1897923675422
57.1351184031714
57.07920196491
57.0219504661022
56.9645490416708
56.9082672520544
56.8543647126664
56.8040918929948
56.7586914637127
56.7194001831995
56.6874513178749
56.66407759472
56.6505146892886
56.648005258426
56.6578035338482
56.6811805007827
56.7194296951284
56.7738736632294
56.8458711405796
56.936739179901
57.0458645321671
57.1706680102428
57.3084647768067
57.4565359262823
57.6121169381535
57.7723886314724
57.9344707265911
58.095418153073
58.2522202653676
58.4018031390494
58.5410351188941
58.6667357744074
58.7756883873132
58.8646560478909
58.9304013723491
58.9697187191817
58.9809640494674
58.9657681721404
58.9262396085431
58.8645395008706
58.7828647826859
58.6834327521107
58.5684671884225
58.4401861082805
58.300791217319
58.1524590772121
57.997333978026
57.837522480983
57.6750895776511
57.5120563979031
57.350399390429
57.1920508957678
57.03889524656
56.8925620732947
56.7543761454345
56.6256234296701
56.5075734923839
56.4014842743388
56.3086073941299
56.2301939864162
56.1675010915308
56.1217986247353
56.0943769662853
56.0865552278537
56.0996902670091
56.135186539768
56.1945069022168
56.2791844964611
56.3908358844799
56.5311250996348
56.6999242154466
56.894730992381
57.112880396034
57.3516765532627
57.6083700472617
57.8801374867384
58.1640634101437
58.4571246680028
58.7561775013946
59.057947601723
59.3590234945123
59.6558536356514
59.9447476392586
60.2218820685323
60.4833112106049
60.7251252428638
60.9458280183049
61.1460656061563
61.326621261233
61.488343596342
61.6321409259928
61.7589755698388
61.8698581922346
61.9658422492458
62.0480186086391
62.1175104020484
62.1754681618564
62.2230652885657
62.261493887732
62.291961009072
62.3156847542777
62.3336671393364
62.3463481632416
62.3540831293123
62.3572301710456
62.3561497033898
62.3512039128734
62.342756287778
62.3311711893031
62.3168134644578
62.3000481012127
62.2812399262682
62.2607533456357
62.2389521280909
62.2161992314415
62.1928566714563
62.1693408765178
62.1466030088914
62.1258918418934
62.108456414274
62.0955437752533
62.0884005541086
62.0882750302165
62.0964197069984
62.1140943971432
62.1425698313026
62.1831318082059
62.2370859108998
62.3057628216888
62.3905242774656
62.4927697176564
62.6139055364246
62.7536548359418
62.9093459114695
63.0780986387507
63.2569865107372
63.4430252578648
63.63316409866
63.8242797576625
64.0131734189312
64.1965708038778
64.3711255705159
64.5334262259028
64.6800067230414
64.8073608763651
64.911960675054
64.9904454031421
65.0420459880679
65.068063386012
65.0699192431723
65.0490915974757
65.0071042421272
64.9455165405489
64.8659137961028
64.76989826201
64.6590808591709
64.5350736525893
64.3994831211877
64.2539042412401
64.0999153906609
63.9390740700985
63.7729241287944
63.6031677139435
63.431630520077
63.2601053569891
63.0903468413814
62.9240721419768
62.7629626619484
62.608666607291
62.4628023950881
62.3269628627269
62.2027202478264
62.09163191885
61.995246848019
61.9151128312288
61.8527844742593
61.809831965406
61.7872973597009
61.784243071014
61.7993109342766
61.8311736997324
61.878527489228
61.9400849090657
62.0145687684699
62.1007063648394
62.1972243077346
62.3028438631702
62.4162768083892
62.5362217949838
62.6613612250592
62.7903586511342
62.9218567156394
63.0545030310894
63.1871382514801
63.3186858283016
63.4480520181217
63.5741257560877
63.6957795205863
63.8118706052225
63.92124281134
64.0227285721728
64.1151515169002
64.1973294793564
64.2680779519135
64.3262139801189
64.3705604880521
64.399951018123
64.4134788511378
64.4116831051965
64.3956406102068
64.3664466501288
64.3252096182738
64.2730467198132
64.211080033507
64.1404329498938
64.0622269978084
63.9775790662189
63.8875990240452
63.7933877368739
63.6960354763313
63.5966207153181
63.4962093003414
63.3958539907832
63.2965943540925
63.1994570055613
63.1054561815026
63.0155946352754
62.9308648466532
62.8522505365003
62.7807284805732
