Value(bpm)
70.2974828375286
70.3179380525388
70.3378833295359
70.3567956641378
70.3741509966977
70.3894244043416
70.4020903714759
70.4116231389334
70.4174971317335
70.4191874651881
70.4161705287927
70.4079246470006
70.3939308155946
70.3736735119341
70.3466415768875
70.3123291657432
70.2704650952744
70.2238798708305
70.1776199947391
70.1367552073811
70.1063332749807
70.0913914283113
70.096975037596
70.12816357827
70.1901040777425
70.2880524155101
70.427423082915
70.613848302929
70.8532477776205
71.1519043271854
71.5118330548509
71.9221702534791
72.3694502935909
72.8396262668586
73.3179403979068
73.7888485366039
74.2360064847494
74.6423268781169
74.9901151332017
75.2612912865444
75.4377011526479
75.5015149803455
75.436089149023
75.2404392314133
74.933102149363
74.5343288573699
74.0643584643606
73.5430020613216
72.9893386587605
72.4215197401388
71.8566736218021
71.3108979569941
70.7993279732044
70.3362689409756
69.9353835082601
69.6099275551537
69.3721257885234
69.2205796950398
69.1437278069824
69.130349278122
69.1696332781894
69.2509971870738
69.3639407227564
69.4979331146286
69.6423321196659
69.7863349249635
69.9189618194036
70.0290739475773
70.1054264568637
70.1367578827162
70.1144600294041
70.0436409518607
69.9340224482612
69.7953625270436
69.6373592712771
69.4695848526502
69.301446602675
69.1421742647089
69.0008322618836
68.8863558217373
68.8076100742666
68.7734717665423
68.7929340058879
68.8752354653605
69.0267852754491
69.2402078349488
69.5043409059735
69.8079184486158
70.1394175145437
70.4869402764729
70.8381331760555
71.1801465167791
71.4996387756222
71.7828302526927
72.0156102980105
72.1837011234925
72.2728790323597
72.2705334674463
72.1784945690217
72.0076303456472
71.7692947139241
71.4749835419179
71.1361449818306
70.7640265957188
70.3695600170314
69.9632821412362
69.5552906059368
69.155230583512
68.7723096133689
68.4153372763904
68.0927868891906
67.8124978944696
67.5756013803262
67.3777941757715
67.2148274216791
67.0826409244189
66.9773242228188
66.8950834053722
66.8322130558803
66.7850728621538
66.7500685485345
66.723636893769
66.7022346746534
66.6823314351708
66.6604060220354
66.632949156923
66.597389083465
66.5535000744703
66.5014254074966
66.4413137119038
66.3733186311087
66.2975984823694
66.2143159152561
66.1236375699345
66.0257337363427
65.9207780153012
65.8089469825464
65.6904198566245
65.5653781715337
65.43400545494
65.2965690888694
65.1555260500735
65.0156592437436
64.8817885592382
64.7586564761118
64.6509407287573
64.5632736568549
64.5002680961362
64.4665498017829
64.4667965733927
64.5057844685203
64.5884417571873
64.7199115922802
64.9056247654215
65.1513844064337
65.4623378886168
65.8342438189778
66.2577940016082
66.7233613984572
67.2208895097419
67.7397653590375
68.2687204249228
68.7957641079009
69.3081556152067
69.7924210117621
70.2344224548836
70.6194861069314
70.9325937067997
71.1586969449411
71.2898838514783
71.3322871816334
71.2943113245827
71.1849074716319
71.0133849833415
70.789240560493
70.5220095624227
70.2211421421209
69.8959053823209
69.5553113934657
69.2080704075275
68.8625672745246
68.526859422193
68.2086859108759
67.9134459967651
67.6416448563031
67.3931431458656
67.1678413179027
66.9656799265458
66.7866401081273
66.6307442439022
66.4980568139048
66.3886854526545
66.3027822194005
66.2405450977672
66.2022197420957
66.1881014904971
66.1985376677022
66.2336557539155
66.2906727722076
66.3650199420016
66.4520935199678
66.547259457208
66.6458386606922
66.7430987049378
66.8342521609619
66.9144617399614
66.9788524396419
67.022530829498
67.0406115159969
67.02825068906
66.9806864688564
66.8933745257406
66.7668898051676
66.6093518609598
66.4294465070766
66.2357371830718
66.0366198868876
65.8403002357962
65.6547915545889
65.4879327703403
65.347424987074
65.2408858990855
65.1759216614689
65.1602164633645
65.2016408504919
65.3083808441566
65.4881941029964
65.738543167418
66.0499482606755
66.4127770901843
66.8171968061526
67.2530239429036
67.7096011309018
68.1757029486522
68.6394748001819
69.0884098838591
69.5093700572727
69.8886565573333
70.2121359394498
70.4654252004712
70.6379788081464
70.7336125682005
70.7599130336911
70.7249315289606
70.6370352873866
70.5047734081538
70.3367608722169
70.1415826609544
69.9277189670409
69.7034916246891
69.4770312398687
69.2562640746601
69.0489175236214
68.8625415132229
68.7022118795952
68.565910788097
68.4503779207066
68.3524357798744
68.2689719719949
68.1969246344124
68.133270814855
68.075017663263
68.0191963350246
67.9628585327101
67.9030756312483
67.8369403396096
67.7615708508262
67.674117421931
67.5723950949196
67.4575611867708
67.3318607394896
67.1975194978654
67.0567369965006
66.9116818411993
66.7644884525932
66.6172552220043
66.4720440230786
66.3308810200949
66.1957587147497
66.0686391773724
65.9514584156505
65.846131843818
65.754545059583
65.6774747829675
65.6139044871787
65.5626754521037
65.5226506205249
65.4927105495878
65.4717497959918
65.4586737115948
65.4523956311298
65.4518344380701
65.4559124984023
65.4635539552271
65.473683379733
65.4852247762063
65.4971009403586
65.5084419741755
65.5208991038876
65.5378001794398
65.5625112201508
65.5984127144479
65.6489094204572
65.7174437448484
65.8075128272328
65.9226895252693
66.0666475823081
66.2431913676745
66.4562907135492
66.7101215374746
67.0091131435268
67.3578805275883
67.75577598682
68.1943752135179
68.6643349906714
69.1558446726198
69.6585385302405
70.1614351493771
70.6529083538792
71.1206948378907
71.5519439743096
71.9333149813814
72.2511256369119
72.4915549109104
72.6409147808385
72.6922088557225
72.6549783518719
72.541870510478
72.3659082962439
72.1402457637325
71.8779685456101
71.5919422602344
71.2947090070388
70.9984302183337
70.7148729750024
70.4554364208352
70.2312150448757
70.05309625699
69.9316282732611
69.8691993697296
69.8587593908456
69.8929629020807
69.9646274016461
70.0666484042007
70.1919298188334
70.3333288404197
70.4836151113762
70.6354443232524
70.7813467195854
70.9137311301284
71.0249052038542
71.1071124034952
71.1543149873737
71.1688848896917
71.1558074033901
71.1201338672604
71.0669455770344
71.0013252603924
70.9283357939307
70.8530062030462
70.7803248802521
70.7152398957191
70.6626662550446
70.627499981936
70.6146389662617
70.6289723454207
70.6733172560409
70.7473501054567
70.8505515171257
70.982467806289
71.1427067183794
71.3309335807452
71.5468678198928
71.7902798017775
72.0609879572173
72.3588561583752
72.6837913155439
73.0357411662463
73.4146734876889
73.8182990895284
74.2397513595423
74.6713353767605
75.1049942510526
75.5322905931494
75.9444060642072
76.3321612256711
76.6860578603592
76.9963456627658
77.2531146643772
77.4464139423521
77.566396049678
77.6051230000289
77.5646611762645
77.4510089410686
77.2705375412544
77.0298745428462
76.7357994897578
76.3951492278253
76.0147344440051
75.6012683474726
75.1613078644936
74.7012072509115
74.2270836539042
73.7447938792927
73.2597517559221
72.7760255927345
72.2970548380139
71.8260987341992
71.3662461613182
70.9204268902049
70.4914249763952
70.0818939868947
69.694373808766
69.331308847377
68.9950674822914
68.6879627097773
68.4122739628517
68.1702701632026
67.9638645676335
67.7918171946281
67.6513681458685
67.5398762734765
67.4548099411871
67.3937266885174
67.3542552488273
67.3340796666974
67.3309253146869
67.3425466556603
67.3667166359423
67.401217627645
67.4438338664093
67.492345354052
67.544625634615
67.6005830849155
67.6620160542863
67.7308087904956
67.8088647842522
67.8981114549552
68.0005059697041
68.1180422492571
68.252759230521
68.4067504745274
68.5821752321979
68.7812711081483
69.0063684961661
69.2599069998783
69.5439492010214
69.8551921365652
70.1868802544744
70.5319788835305
70.8831834772404
71.2328957163646
71.5732149931462
71.8959469427525
72.1926307168214
72.4545865509843
72.6729848346632
72.8389373249146
72.9436103458635
72.9787451112273
72.9441196689664
72.8469876675707
72.6951369016603
72.4965013310407
72.2590534071844
71.9907132793075
71.6992756984527
71.3923546981048
71.0773455539404
70.7614031174002
70.4514353702554
70.1541109450684
69.8758793805494
69.6223821256786
69.3942880891327
69.190018111478
69.0080589820874
68.846967565501
68.7053621516353
68.5819146507535
68.4753435413958
68.3844074934374
68.307899600448
68.2446421659005
68.1934819967606
68.1532861657988
68.1229382107684
68.1014060566267
68.0884366110746
68.0842528868632
68.0890911633172
68.1031949052476
68.1268154145483
68.1602125157855
68.2036552788279
68.257422781855
68.3218049184029
68.3971032524589
68.48363192601
68.5817186238798
68.6917056011724
68.8139498185555
68.9488157288494
69.0966804414262
69.2579401212105
69.4330114208294
69.6223329583446
69.8263669079424
70.0456007147026
70.2805489457841
70.5317552917519
70.7997947333229
71.0852758905693
71.3888435736136
71.7111486580934
72.0505550382311
72.4015252006101
72.7579481800393
73.1134693245145
73.4614833699323
73.7951391095379
74.107356813926
74.3908594908463
74.638218896228
74.8419169049686
74.994422413303
75.088283373114
75.1166033137291
75.0801686925756
74.9868865584113
74.8451223686038
74.6633300794636
74.4499544070836
74.2133521210463
73.9617327023694
73.7031180529103
73.4453204859174
73.1959379516625
72.962365344462
72.7518207798153
72.5713215015487
72.4233072554746
72.3029106520943
72.2047170399978
72.1234164785024
72.0537749805208
71.9906137341196
71.9287959844697
71.8632213623412
71.7888275027514
71.700598810184
71.5935821967754
71.4629095488904
71.3038265682925
71.1130512895049
70.8959213477804
70.6610499815404
70.4168765793932
70.1716278878278
69.933307723645
69.7097054458454
69.5084219003693
69.3369117282897
69.202541255456
69.1126616449293
69.0746975881498
69.096252544437
69.1852324347357
69.3472065221022
69.5759688810883
69.862136770677
70.1963088477479
70.5689145912008
70.9700875938361
71.3895632997648
71.8166030477351
72.2399474085171
72.6478026435992
73.0278645895787
73.3673842903495
73.6532791489017
73.8744830362558
74.030615931275
74.1248607285381
74.1607632832848
74.1421726426141
74.0731820042343
73.9580712181941
73.8012520875781
73.6072174975757
73.3804951682417
73.1256065970838
72.8470315434206
72.5491782147319
72.2363694510035
71.9129236258023
71.5830938100896
71.2509914095715
70.9205818809544
70.5956860504492
70.279985638499
69.9770325933694
69.6902618761753
69.423007393758
69.1785208410995
68.9599932898751
68.7705794433035
68.6134245694918
68.491260388427
68.4022074639983
68.3416589118406
68.305077805466
68.2880033914004
68.2860227558373
68.2947484741203
68.3098020259852
68.3268028657289
68.341363110906
68.3490878569511
68.3455811385861
68.3264575419392
68.2873594238885
68.2243119379675
68.1379150054216
68.0320450250084
67.9106410077547
67.7776128000729
67.6368258365705
67.4920904493336
67.3471556130778
67.2057069662795
67.0713689303179
66.947710750325
66.8382563013214
66.7464975399143
66.6759115343174
66.6299698508748
66.6102792230094
66.6144892344326
66.6397918857485
66.6834145235244
66.7426033519821
66.8146093190294
66.896676293272
66.9860314940255
67.0798781736145
67.1753905807722
67.2697112557691
67.3599507218334
67.443189643118
67.5164835164835
67.57763535429
67.627510348866
67.667758467382
67.7000469770596
67.7260561054071
67.7474755046707
67.7660015411867
67.7833354238449
67.8011821810911
67.8212504928625
67.845253382602
67.8749097750583
67.9119469279762
67.9581037500421
68.0145392652042
68.0789429423884
68.147729124508
68.2172841721487
68.2839653972839
68.3441021217777
68.3940006724412
68.4299533769902
68.4482515937298
68.4452027578668
68.4171513591837
68.3605036803022
68.2717560236789
68.1475260416698
67.9855188042026
67.7908852574418
67.5721859486344
67.3378559036875
67.0961367135408
66.855050380646
66.6223931507537
66.4057479667069
66.2125142284817
66.0499537629029
65.9252522763166
65.8455960706391
65.8182644450368
65.8507389933461
65.9508030340547
66.1218064873429
66.357126450733
66.648989177454
66.9896340443879
67.3711815792623
67.7855183872924
68.224198897543
68.6783649568158
69.1386852712481
69.5953175183891
70.0378965854296
70.4555527703249
70.8369638321827
71.1711424395884
71.4544789672473
71.6881550437494
71.8736878826523
72.0128419271025
72.1076035982562
72.1601548182646
72.1728459035645
72.1481683906917
72.0887283096043
71.9972203619193
71.8764033969391
71.7290775101424
71.5580699183381
71.3668302128968
71.1598792394106
70.9417767090939
70.7169892422852
70.4898800284556
70.2647041219729
70.045609042199
69.8366403398351
69.6417518107654
69.4648200808964
69.3096633480029
69.1800641474421
69.0797961067256
69.0125877911219
68.9791939610628
68.976258029534
69.0002013953225
69.0475043635502
69.1146803855018
69.1982540336719
69.294742542084
69.4006408287143
69.5124099880478
69.6264692983208
69.739191830062
69.8469037697995
69.9458875845091
70.0326622330263
70.107028032147
70.1709933740596
70.2266318123556
70.2760373809773
70.3213202638787
70.3646037006064
70.408022154841
70.4537207667902
70.5038561073623
70.5605982523658
70.6261341986728
70.7026726514524
70.7924494137143
70.8964511780922
71.0117912349137
71.1348196094021
71.2618416385841
71.3891116647201
71.5128305788231
71.6291473558065
71.7341647257369
71.823949110274
71.8945449185383
71.9419932415321
71.9623549085428
71.9517377731879
71.9067940224618
71.8283319253968
71.7193261079773
71.5828169736431
71.4218695141392
71.239551841209
71.0389163096014
70.822983313633
70.5947277776769
70.3570683087438
70.1128589371508
69.8648833390588
69.6158514119748
69.3683980604932
69.1249899144795
68.8875287035573
68.6577019551929
68.4371541165047
68.2274912033425
68.0302860326408
67.8470841093145
67.6794101453758
67.5287752012766
67.3966844527801
67.2846456010188
67.1941779589541
67.1268222644241
67.0841512886541
67.067687516875
67.0775698081345
67.1128713984467
67.1726907093705
67.2561745422756
67.362511702759
67.4909270508104
67.6406759171485
67.8110388337214
68.0013165330037
68.2108251765889
68.4388917788109
68.6848497958594
68.9480348551836
69.2275616312332
69.52014888888
69.8209466651355
70.1249172047812
70.4268452294244
70.7213352210494
71.0028168133456
71.2655589875458
71.5036937153877
71.7112495731921
71.8821956613068
72.0104958983463
72.0901734199362
72.115497829698
72.0860867139337
72.0089140493173
71.8916259354197
71.7419237381333
71.5674877909694
71.3759176149824
71.1746887672837
70.9711259723297
70.7723918855569
70.5854906796941
70.4172856191617
70.2745298843283
70.1639101129481
70.0914203374396
70.0557631618038
70.0512794540859
70.0723429980431
70.113379093263
70.1688282297474
70.2331186946123
70.3006479922353
70.3657731129482
70.422809780345
70.4660408428882
70.4897339500032
70.4881685644528
70.4556727640155
70.3893790659806
70.2955064413302
70.182137406057
70.0572952685585
69.9289092787618
69.804798112258
69.6926711314943
69.6001467971527
69.5347876976663
69.5041519137145
69.515860831995
69.5776840708989
69.6976428936424
69.8840391642711
70.1389724153997
70.4538604516923
70.8190761194307
71.2247945913132
71.6608566956326
72.1166575051271
72.5810623381381
73.0423535964663
73.488212834579
73.9057430376082
74.2815361655491
74.6017904676852
74.8527738778569
75.028641066773
75.1324653942271
75.1682237403135
75.1402961547129
75.0533884744162
74.9124562668706
74.7226320034602
74.4891570368498
74.2173196051538
73.9123997376702
73.5796216087256
73.224113591224
72.8508767584777
72.464811347907
72.0707291739134
71.6732623352446
71.2768504384301
70.8857417322934
70.5039994709151
70.1355129208777
69.7840124833631
69.4530884744653
69.1462131938236
68.8667660093032
68.6180612920489
68.4033791510377
68.2259813663096
68.0870361824769
67.9836880075187
67.9127559273768
67.8711821625518
67.8560046015715
67.8643326304662
67.8933259111187
67.9401758484494
68.0020895597787
68.0762762216833
68.1599357218617
68.2502495870283
68.3443741933014
68.439441606442
68.5334523052221
68.6262957538254
68.7181044212822
68.8090123779572
68.8991552623421
68.9886702528237
69.0776960445975
69.1663728318926
69.254842295672
69.3432475969687
69.4317333760215
69.5204457573696
69.6095323610696
69.69911449145
69.7884366095787
69.8756990512711
69.959024840253
70.0365202345068
70.1062773092961
70.166377589929
70.214896745979
70.2499103491895
70.269500685321
70.2717645958295
70.2548223086318
70.2168271985655
70.155976397808
70.070908311396
69.9636741180169
69.8380650692099
69.6978673953211
69.5468305504575
69.3886539643405
69.2269778837775
69.0653781740067
68.9073649195
68.7563846507653
68.6158260269104
68.4890288218404
68.3792960936954
68.2899094615364
68.2239043284783
68.1817157536338
68.1622277090595
68.1643505569752
68.1870368987088
68.2292750820478
68.290083182268
68.3685034028727
68.463596850303
68.5744386441666
68.700113331048
68.8397105758345
68.9923211098374
69.157032919893
69.3329355016842
69.5191647677119
69.71486959895
69.9191854197537
70.1312315984873
70.3501091299954
70.5748985118644
70.8046578247341
71.0384210293044
71.2751964948932
71.5139657764384
71.753682658648
71.9932724875717
72.2315903627525
72.4665019369377
72.6948532345182
72.9133728599365
73.1187198799303
73.3074936712203
73.4762470348782
73.6215026599887
73.7397729621476
73.8275832514746
73.8814981008171
73.8981506891304
73.8742747899863
73.8069173882879
73.697385265858
73.5511938814704
73.3740722939514
73.1717331900842
72.9498306125922
72.7139267496985
72.4694676555984
72.2217675895687
71.9760015392166
71.7372054268674
71.5102834821217
71.3000222923847
71.1111111111111
70.9471808470805
70.8079045055811
70.6920274725252
70.5983565067054
70.5257523488215
70.4731229654655
70.4394173550709
70.4236198531278
70.4247448829018
70.4418321056978
70.4739419315544
70.520151357304
70.5795501043012
70.6512373230935
70.7343288789166
70.827957449856
70.9312568165603
71.0433583945423
71.163388877515
71.2904680851782
71.4237070152906
71.5622061020254
71.7050536845721
71.8513246917206
72.0000795497369
72.1503633222071
72.3012045060561
72.4511889069168
72.597696241569
72.7378614410476
72.8687783199587
72.987505563088
73.091075125618
73.1765030911421
73.2408029992207
73.281001613173
73.294157049469
73.2773791331857
73.2278517807062
73.1428571428571
73.0210043323462
72.865823519485
72.6820788437978
72.4745192555173
72.2478456022585
72.0066840587255
71.7555658246274
71.4989128918341
71.2410295929645
70.986099588208
70.7381879223742
70.5012477866018
70.2791316453896
70.0756064917288
69.8943766909249
69.7391090907251
69.613453643238
69.5210730129124
69.4656766884656
69.4510593376029
69.4811439039555
69.5600301429587
69.6920495281831
69.8818277436563
70.1343563268921
70.4550754631937
70.8499704834808
71.3241564064061
71.8712524654347
72.4789751841889
73.1343755298205
73.8236463582842
74.5319373137975
75.2432186132619
75.940205065561
76.6043539997085
77.2159519890328
77.7543048585934
78.1980429069088
78.5262396549254
78.7321460627368
78.8228433896439
78.8070325280464
78.694313992699
78.4949418789533
78.2195905536751
77.8791418849445
77.4844986042481
77.0464272483043
76.5754322018099
76.081660757329
75.5748378729278
75.0639262288861
74.5553146560195
74.054151720458
73.5653076457319
73.093395856496
72.6427961822852
72.2176827218451
71.8220557556484
71.4597772583015
71.1346097354401
70.8502582901496
70.6104160128098
70.4188129885308
70.2792632990872
70.1932740020584
70.1563779493142
70.1633810855965
70.2092636894906
70.2891209698407
70.3981116709828
70.531413928284
70.6841879032071
70.8515449668221
71.0285233993969
71.210070735039
71.391033005215
71.5661512220564
71.7305851634479
71.883956617614
72.0282411726722
72.1654754070842
72.2977332885637
72.4271228483891
72.5557840311842
72.68588777325
72.8196363591425
72.9592651058708
73.1070454270594
73.2652893359328
73.4363554563292
73.6222517569641
73.8206491734204
74.0264851456298
74.2345497016852
74.4395156828563
74.6359385874535
74.8182643015328
74.9808451344968
75.1179645074888
75.2238705169308
75.2928184120258
75.3191217834854
75.2972119646854
75.2231430774289
75.1001257975349
74.9336064118719
74.7291046824601
74.4921554794922
74.2282588058002
73.9428381233388
73.6412070411835
73.3285441982589
73.0098760013628
72.6900667586903
72.3738156773536
72.0656601652669
71.7698229545042
71.4879287587151
71.2196451020745
70.9646074169303
70.7224702291817
70.4929061242665
70.2756047846914
70.0702720935704
69.8766292991281
69.6944122355628
69.5233705960706
69.3632672541846
69.2138776299176
69.0749890974866
68.9465098538743
68.8295339184477
68.7258656691181
68.6373109127074
68.5656742537779
68.5127677220622
68.4804203802758
68.4704889693907
68.4848696718088
68.5255110994487
68.5944286442085
68.6937203634466
68.8255846141206
68.9923396974446
69.1960089131117
69.4353150815771
69.7074020331069
70.009397076005
70.338391886642
70.6914159681866
71.0654121562167
71.4572142082535
71.8635266030669
72.2809067599763
72.7057499679539
73.1342773879626
73.5625275576446
73.9863862760984
74.4018564832702
74.8049311941671
75.1914529965285
75.5571264032061
75.8975366506144
76.2081739725278
76.4844635382073
76.7218011141871
76.9155943494735
77.0613093963965
77.1545223681559
77.1910326045604
77.1709052057023
77.1010664773328
76.9892150030487
76.8431173000868
76.6705321393516
76.479150498572
76.2765513395667
76.0701729644505
75.8672994050352
75.675061130922
75.5004493160406
75.3503429696483
75.2311726164776
75.1428144120398
75.0796764682642
75.0360863927646
75.0064348919395
74.9851507430917
74.9666842152674
74.9454987782203
74.9160710167609
74.8728986939298
74.810516881892
74.7235220051067
74.6066035179155
74.4554033878679
74.2745330814798
74.073944589626
73.8635016656445
73.6528646098605
73.4514785440681
73.268586407909
73.1132653101987
72.9944851426716
72.9211888698698
72.9023946346841
72.9473207689254
73.0655359996713
73.2664676635069
73.5484752982288
73.9002792874984
74.3102419952241
74.7664656785105
75.2566107017875
75.7677490743635
76.2862566968517
76.7977496287155
77.2870711152327
77.7383368809738
78.1350461029469
78.4603755894258
78.7051781619207
78.8734975546844
78.9711337505469
79.0043559871421
78.9797938218332
78.9043342496074
78.7850274956102
78.6290034602232
78.4434001716172
78.2353050334365
78.0117091682203
77.779474764991
77.5442136288334
77.3065972773394
77.0659702516894
76.8216949761886
76.5731522191194
76.3197416051048
76.0608822075225
75.7960132120838
75.52459464244
75.2461081384085
74.9600577771411
74.6659709272973
74.363399326978
74.0528979252347
73.7382324344612
73.4237095582588
73.1134924500433
72.8116047155075
72.5219388599319
72.2482687982217
71.9942660992227
71.7635197045899
71.559558944145
71.3858797630337
71.2459741808317
71.1433631198881
71.0814384728173
71.0603112210698
71.0773531910115
71.12996850372
71.2156580832119
71.3319950999246
71.4766026265082
71.6471332332735
71.841250316136
72.0566110073822
72.2908505707768
72.5415682286674
72.8063144107375
73.0825267423236
73.3655805149842
73.6481449120442
73.9224933666475
74.1806739121702
74.4145332643055
74.6157590631166
74.77594109319
74.8866518272471
74.9395459791075
74.9264779144527
74.8396347793387
74.6716821151916
74.4164626088024
74.079358297912
73.6759805696962
73.2221044275893
72.7330577189696
72.2235568078737
71.7076078249446
71.1984674394636
70.7086561000467
70.2500166541591
69.8338119730685
69.4708564891163
69.1716782509783
68.9467101327558
68.8057231664986
68.7468048028364
68.7591955839036
68.8323592903099
68.9560330413566
69.1200592831348
69.3142493976782
69.5282771754264
69.7516019191654
69.9734221035823
70.1826613089857
70.36798855686
70.5178751545457
70.6206896551724
70.6682550603466
70.6662800145251
70.6241167772296
70.5512337347931
70.457120856747
70.3512203615441
70.2428829326497
70.1413491914175
70.055755786226
69.9951653908199
69.9686201054465
69.9852182108806
70.0542149359622
70.1850543184872
70.3809513748592
70.6345311455273
70.9374674989347
71.2813529494845
71.6575842494762
72.057266627426
72.4711374928591
72.8895113510738
73.302248419415
73.6987499741925
74.0679837301835
74.398542494818
74.6789460031831
74.9041288930097
75.0769145164256
75.2008691806719
75.2798153040277
75.3177825741411
75.3189613103444
75.2876589791532
75.2282606265949
75.1451938070895
75.0428984149403
74.9258016678164
74.7982983567198
74.6646536600782
74.5278136915256
74.3896980700153
74.2521724958677
74.1170752891128
73.9862182602569
73.8613884654687
73.7443508145038
73.6368515043469
73.5406222578123
73.4573853541423
73.38885944793
73.336766183486
73.3027439041322
73.2862951417663
73.2847944154204
73.2955435809285
73.3158556202517
73.3430466331166
73.3744298047663
73.4073113383071
73.4389883556906
73.4667487808878
73.4878732222499
73.4996388683331
73.4993254025067
73.4843559438384
73.456356406039
73.421882785828
73.3877554027815
73.3607704016877
73.3477067050653
73.3553455063229
73.3905023219575
73.4600718218661
73.5710859585075
73.7307863266328
73.9467122214567
74.2268065507556
74.5789948737288
75.0008080511825
75.4796874186263
76.0022645980306
76.5545369972944
77.1217146354329
77.6881169740194
78.2371279385676
78.7512187933177
79.2120489763428
79.6006540839482
79.8977275912847
80.0847746684767
80.1593196553509
80.134104763097
80.0231852578211
79.841075549665
79.6024691945222
79.3220093537712
79.0141132786111
78.6928513144544
78.3718786780977
78.0644168666304
77.7832809606303
77.5409357919781
77.3442676775531
77.1866984813802
77.0597962803849
76.9553231444695
76.865178307303
76.7813592961836
76.695940210864
76.6010666126952
76.4889666053281
76.351977665146
76.1825886210198
75.9734958982874
75.7180185435745
75.4177112209464
75.08208171736
74.7207815658957
74.3431846689146
73.9583394558145
73.5749447521309
73.2013473310708
72.8455590219602
72.5152913597241
72.2180060378189
71.9609798420437
71.7513832713741
71.5963710526951
71.5006150494622
71.4612243671654
71.4741268334547
71.5354863537861
71.6416485245502
71.7890920439218
71.9743849815418
72.1941451878445
72.4450043096927
72.7235750394395
73.026421365872
73.3500317222259
73.6907949854342
74.0447009860402
74.4066567737762
74.7711734728144
75.1325438029088
75.4848399399422
75.8219205688828
76.1374480022065
76.4249161691713
76.6776901364309
76.8890575897564
77.0522923848877
77.1607298627149
77.2082913641562
77.1950880144497
77.1257964460946
77.0054123728678
76.8390878596112
76.6320682071655
76.3896349566967
76.1170557416425
75.8195414198745
75.5022106572257
75.1700619130424
74.8279526021335
74.4805850756705
74.1324326082416
73.7871703717116
73.4479847744457
73.1179417034617
72.7999983271717
72.4970131480131
72.2117581152774
71.9469326353396
71.7051793619509
71.4891016989034
71.3012830010128
71.1443075172791
71.0207831829377
70.9333611586708
70.8834505058178
70.8695228541378
70.8897357043198
70.9423447616274
71.0256874024981
71.1381675225616
71.2782415646402
71.4444055590579
71.6351830377755
71.8491137094291
72.0847428050587
72.3406110247938
72.6152450345235
72.9066657956743
73.2107080907057
73.5224829685373
73.8369354220026
74.1488353999762
74.4527759071749
74.7431788581277
75.0143093337102
75.2602988351245
75.4751780181197
75.6529192138116
75.7874887982634
75.8729625666729
75.9072897283453
75.894752869887
75.8403817503979
75.7493273783277
75.626809259821
75.4780692072057
75.3083321986323
75.1227745373668
74.9264993554796
74.7245193453876
74.521746484924
74.3229884462079
74.1329043692176
73.9539439327058
73.7855913112749
73.6271327821765
73.4778733687876
73.3371350655363
73.2042552210567
73.0785850691531
72.9594883984343
72.8463403526048
72.7385263543974
72.6354411470055
72.5364879476418
72.4410787319767
72.349372687587
72.26356817777
72.1861933709096
72.1197593749781
72.0667670708177
72.0297156638336
72.0111129664862
72.0134874515753
72.0394021492764
72.0914704997615
72.1723743188417
72.2848840875855
72.4318818399028
72.6154162274388
72.8319753563794
73.0759735846113
73.3417333114359
73.6234473383852
73.9151468592703
74.2106783820248
74.5036902639254
74.787629679391
75.0557509106614
75.3011358449123
75.5167274646363
75.6953875308881
75.8326096862021
75.9301245508717
75.9906834427255
76.0171706618174
76.0125762056737
75.9799700348788
75.9224782559828
75.8432615117663
75.7454957948095
75.6323558315176
75.5070011221074
75.3725646688697
75.2321244458464
75.0880926611453
74.9421139907917
74.7957666715977
74.6506046579255
74.5081579068872
74.3699332937377
74.2374161325139
74.1120722792303
73.9953507981623
73.8886871758547
73.7935070724537
73.7112306057405
73.643232145274
73.5892060061795
73.5467133852694
73.513198968231
73.4861246332435
73.4629641256342
73.4411994938474
73.4183192640422
73.3918183384427
73.3591996053622
73.3179772466828
73.2656817215733
73.199866393487
73.1181458334536
73.0208915190698
72.9133215497834
72.8011036748545
72.689840725837
72.5850680100688
72.4922592126702
72.4168405590104
72.3642130544743
72.3397827339557
72.3489990189776
72.3974014971756
72.4906757117179
72.6347182177428
72.8324162841327
73.0759227448074
73.3550598893166
73.6594473223168
73.9784111876804
74.3009221474043
74.6155643314172
74.910538088957
75.173699595874
75.3926401354007
75.5548071021272
75.6476674263233
75.6590786065632
75.5848866135714
75.4319285243134
75.2082174128138
74.9220187969228
74.5817111715583
74.1956632229477
73.7721295159118
73.3191654255634
72.8445612269147
72.3557945821576
71.8600001787598
71.3639549611328
70.8740772445125
70.3961264610466
69.9333695093643
69.4879695538518
69.061979183207
68.6573581905021
68.2759881812371
67.9196878154974
67.5902286481521
67.2893515690133
67.018783882887
66.7802571081025
66.5755256122142
66.406386246175
66.2746991846553
66.1823825715938
66.1295288220047
66.1131976296413
66.1302876520923
66.1777991347044
66.2528047829117
66.3524238009739
66.4737987754872
66.6140751768844
66.770383333941
66.9398228073146
67.1194491498673
67.3062630947889
67.4972022576843
67.6891365392379
67.8796396752011
68.0683851291318
68.255410812992
68.4407563217457
68.6244629215759
68.8065735378194
68.9871327426903
69.1661867428623
69.3437833669839
69.5199720531977
69.6948038367388
69.8683313376864
70.040608748944
70.211661762172
70.3805663346763
70.5452567791233
70.7035656400729
70.853290286819
70.9921973229816
71.1180284406232
71.228507750942
71.3213506063314
71.3942739071966
71.4450078614957
71.4713091357793
71.4709753039904
71.4418604651163
71.3829041022315
71.297164975748
71.1887451344149
71.0617471739116
70.9202509342527
70.7682949739205
70.6098627962953
70.4488737272829
70.2891782896886
70.1345578889617
69.9887286150313
69.8553489744491
69.7380313943129
69.6403450101403
69.5637611321412
69.5053644905135
69.4617296470783
69.4294700195166
69.4052251496314
69.3856513170079
69.3674154216126
69.3471920905222
69.3216639822637
69.2875252675116
69.2414882573268
69.1802931299517
69.1007206747458
68.9996638466705
68.8779945945677
68.7429875451816
68.6024167930052
68.4639379692114
68.3350849247754
68.2232831796685
68.1358795060326
68.0801872141432
68.063547052505
68.0934041160425
68.177401787316
68.3234945366924
68.5400824180514
68.836017972747
69.2122997075436
69.6572698181765
70.1579327010002
70.7007574653219
71.2714660121112
71.854869416501
72.4347604440822
72.9938726958329
73.5139185853911
73.9757187188926
74.3594338191033
74.644906674744
74.8127900708492
74.859965367828
74.7999684910853
74.6479213441396
74.4194624198068
74.1304020981872
73.7964408355077
73.4329547609932
73.0548488771583
72.6764749359867
72.3116091561576
71.973484157256
71.674869659784
71.4281966254382
71.241607779373
71.1097201909329
71.0246742344952
70.9788874522344
70.9649632018272
70.9756167109395
71.0036171270107
71.041744736925
71.0827629687249
71.1194050915097
71.1443757064978
71.1503671729162
71.1300910353724
71.0767352306416
70.9907552316066
70.8787440266509
70.7474729181704
70.6036553180603
70.4539172030181
70.3047803572503
70.1626579798503
70.0338621544817
69.9246226942492
69.8411169777034
69.7895105769932
69.7760087432941
69.8069191592716
69.8874909146412
70.0144103140066
70.1806767057857
70.3792850018993
70.6031670203712
70.8451313726058
71.0978171522775
71.3536619901824
71.6048853884203
71.8434884755195
72.0612714155898
72.2498696392889
72.4008098216943
72.5059999223475
72.5646394153271
72.5822429694929
72.564684217391
72.5179399061351
72.4480370795825
72.3610098515608
72.2628661467883
72.159564521118
72.057000976621
71.9610055615065
71.8773484887391
71.8117555176013
71.7699207343387
71.7546319997693
71.7619782086677
71.7871422389671
71.8253254253429
71.8717268877667
71.9215292821978
71.9698909691658
72.0119446582101
72.0428026121791
72.0575684846053
72.0513558149673
72.0193131202982
71.9566553979568
71.8600650674349
71.7350921220577
71.5907363871513
71.4359078783956
71.2793818080577
71.1297843855796
70.9955998638756
70.8851979335976
70.8068807466483
70.7689492247
70.7797888712949
70.8479760623456
70.9824067618078
71.1922989397098
71.478988505128
71.8313245520422
72.2369877193921
72.6833223876541
73.157157767647
73.6446708106785
74.1312956303158
74.6016860462513
75.0397390772221
75.4286875083416
75.7512687845321
75.9899751891252
76.1290940639755
76.1699496266236
76.123908761954
76.0030345214747
75.8197303672646
75.5865203293351
75.3158682144453
75.0200382785054
74.7109975970378
74.4003587636285
74.0993605259704
73.8188834973941
73.5694980974631
73.3607391081534
73.1923726959368
73.0579112023447
72.9509486883788
72.8652234187725
72.7945760754632
72.7329190157942
72.6742160626133
72.6124724962889
72.5417350258947
72.4561015526719
72.3497405062509
72.2169194358688
72.0521302394857
71.8549145812017
71.6322129151726
71.3914681406996
71.1399682144951
70.8848185710671
70.632929443216
70.3910171366755
70.1656182775486
69.9631161258736
69.789778219216
69.651804865182
69.5553883342211
69.5067830129557
69.5120671925467
69.5711598052509
69.6783166232153
69.8277152922009
70.0135979008915
70.2302039377872
70.4717127343536
70.7321950902699
71.0055741508384
71.2855959204249
71.5658100496901
71.8395617235925
72.0999955926174
72.3400910888523
72.5549112278468
72.7438216946608
72.9067411882386
73.0436486348391
73.1545827495233
73.2396412638841
73.2989798310794
73.3328106224249
73.3414006327245
73.3250697141413
73.2841883606915
73.2191752673614
73.1304956642447
73.0193621396786
72.8889564876617
72.7427819776791
72.5843117739882
72.4169759696102
72.2441519974197
72.0691583250843
71.8952513102152
71.7256250748498
71.5634142533853
71.4116994742825
71.2735154522637
71.1518615934405
71.0495114178035
70.9664753540141
70.9008098433611
70.8505686384769
70.8138379813524
70.7887288280201
70.7733701658296
70.7659033746521
70.7644775973241
70.767246096128
70.7723635812663
70.7779845042382
70.7822623138294
70.7833499137162
70.7805717928658
70.777139954768
70.7770707334115
70.7843810825024
70.8030946739039
70.8372525779108
70.8909285861064
70.9682493001188
71.0734191957871
71.210750984186
71.3847017320925
71.5999153799599
71.8612725127547
72.1730563891859
72.531159135314
72.9265227575265
73.3497342125609
73.7909858726992
74.2400060659282
74.6860154254477
75.1177125145604
75.5232926223449
75.8905036799509
76.2067428351391
76.459196255952
76.6350458012328
76.7273509564705
76.7427570357164
76.6902584163054
76.5791940872242
76.4190951872656
76.2195533994681
75.9901124816365
75.7401839849891
75.4789872136224
75.2155127333554
74.9585082527262
74.7164854579234
74.4976818715486
74.3056740927835
74.1366736733007
73.9863256476809
73.8503747798972
73.7246464270802
73.6050324457348
73.4874818851962
73.3679962701251
73.2426293078245
73.1074908688355
72.9587550820551
72.7926723598957
72.6055867446002
72.396501870938
72.1721525188316
71.9405744326685
71.7096115524747
71.4869102942613
71.2799304877716
71.0959719198416
70.9422156082083
70.8257792332537
70.7537865741744
70.7334513298892
70.7721763627441
70.877670207278
71.0574758234404
71.3090475170022
71.6210487271256
71.9817680640074
72.379214605935
72.8009650159196
73.2340487913531
73.6648753880881
74.0792084427728
74.4621931923291
74.7984432984697
75.0721924451254
75.2675141165041
75.3709696870315
75.3863611565401
75.325377679568
75.2001759915983
75.0231269759126
74.8066280468895
74.5629557677402
74.3041597717488
74.0419973257825
73.7879067210946
73.5530170820683
73.3481921006142
73.184105573275
73.0703826253924
73.0063151352695
72.9850649377801
72.999886461802
73.0441447605068
73.1112557944002
73.1946390320668
73.2876819609932
73.3837164166893
73.4760068633887
73.557750895291
73.6220922714376
73.6621467458792
73.6717237195943
73.6529343746088
73.6134157643639
73.5609152745756
73.503157139236
73.4478233765667
73.4025508936075
73.3749445363609
73.3726059071111
73.4031779533133
73.4744056529728
73.5942135851335
73.7708017954901
74.0120191537934
74.3171735057074
74.6797971763815
75.0933074039752
75.551007050555
76.0459896205881
76.5710545356022
77.1186332356342
77.6807273391311
78.2488606985211
78.8140477225639
79.3667807695815
79.8973102087451
80.3996239161257
80.8708263981903
81.3080869807819
81.708573751788
82.0694748132696
82.3880211835054
82.6615111316529
82.8873356712
83.0630048827923
83.1861746845361
83.2546739295318
83.26804622088
83.231078672822
83.1497750756183
83.0302480269296
82.8786590499277
82.7011673903781
82.5038879276318
82.2928583478877
82.0740154974809
81.8531806619258
81.6360534023666
81.4281752526459
81.2315299661294
81.0419480870245
80.854711643878
80.665190139762
80.4688399890713
80.2612091215541
80.0379464820465
79.7948161245039
79.5277155486429
79.2326978599222
78.9059972523941
78.5440580439022
78.1475501935262
77.7303230971245
77.3084009021432
76.8971446479489
76.5112723759839
76.164936527005
75.8718528531464
75.6454767964739
75.4992256927477
75.4467482067073
75.5022461591511
75.680858568266
75.9986399899246
76.4552336215005
77.0278907060539
77.691941576812
78.4215632333711
79.1891940889362
79.9651104634138
80.7171975106166
81.410958644351
82.0098126278748
82.4757234825663
82.7701922809685
82.860755147509
82.7538610915255
82.4744298085637
82.0491612326135
81.5054843979067
80.8707237208297
80.1714461010608
79.4329954459848
78.6792061945319
77.9322777340082
77.2127868665319
76.5398148024415
75.9311377803347
75.3962287673274
74.9275642315715
74.5159237598248
74.1526992363142
73.8297748390633
73.5394304248618
73.2742649750351
73.0271376179404
72.7911243702398
72.559489191865
72.3256682601347
72.0832665585664
71.8260659616998
71.5493915468238
71.2582373014586
70.9615404556218
70.6679727494883
70.385923574931
70.123520146161
69.8886663563878
69.6890989791629
69.5324603456062
69.426387245659
69.3786165606139
69.397109050017
69.4901938238446
69.6667372764186
69.9321570502741
70.2772703286366
70.6895260350263
71.156149508257
71.6639031721593
72.1988895535543
72.7464002831787
73.2908176729414
73.8155777805506
74.3032053302454
74.7354311436073
75.0934014826208
75.3580908994003
75.5201820409081
75.5881289830125
75.5729748534721
75.486345548203
75.3402131585094
75.1466910465083
74.9178653912589
74.6656656032617
74.4017740262078
74.1375738862721
73.8841335253692
73.6522245386736
73.4523458835928
73.2905239899015
73.1636931018098
73.0677764814573
72.9988225274677
72.9529737669055
72.9264405503941
72.9154790841877
72.9163735425178
72.9254220916476
72.9389267262658
72.9531868706991
72.9644967327994
72.9691467589351
72.9651033593288
72.9558967638558
72.9462082943239
72.9407150445699
72.9440922615987
72.9610217233175
72.9962061361181
73.0543896370638
73.1403845803084
73.2591049175458
73.4156066513517
73.615136054065
73.8631860490163
74.1627766626247
74.5078764583791
74.8904277668642
75.3021375897697
75.7343966885911
76.1782158740168
76.6241813154867
77.0624312714373
77.4826570452212
77.8741311513052
78.2257655734171
78.5262025505632
78.7655497170999
78.9443631040894
79.0676424495637
79.1407190757517
79.169173182078
79.1587664080904
79.115380949461
79.0449663149187
78.9534944739139
78.8469238438518
78.7311723127301
78.6120992945228
78.4952523636754
78.3828064936519
78.2745356899903
78.1701651938695
78.0694241261173
77.9720452250086
77.8777646050129
77.7863215357181
77.6974582402258
77.6109197123773
77.5264535522248
77.4438098192151
77.362742037087
77.2831972054931
77.2055270485213
77.130132017496
77.0574097272129
76.9877552209832
76.9215612750546
76.8592187419282
76.8011169322345
76.7476440349834
76.6991875761802
76.6561349159856
76.6188737848027
76.5879207321191
76.5651722154725
76.5533656352752
76.5552550066099
76.5736078172483
76.6112159349646
76.6709086157983
76.7555677208261
76.8681452936415
77.0116837040793
77.1893386273045
77.4044052033064
77.6602871393468
77.9563042430985
78.2847820051482
78.6371992810871
79.0047641943297
79.3783661493042
79.7485473280669
80.1054956341507
80.4390612581832
80.7387990265134
80.9940384154804
81.1939825319971
81.3281216802483
81.392676801133
81.39076416584
81.3261212884705
81.2027634844745
81.0249251840214
80.7970030189796
80.5235017995706
80.2089842867666
79.8580254519318
79.4751717064284
79.064905389262
78.63163478901
78.1810452284773
77.7208788977592
77.2587545051487
76.8019439008696
76.3573801673139
75.9316784367536
75.5311679078735
75.1619337616959
74.8298679692573
74.5407283244092
74.3002054179999
74.113997693538
73.9878137648071
73.923017125313
73.9144291090447
73.9565818367294
74.0442075870221
74.1721695514254
74.335401149957
74.5288529695275
74.7474467300627
74.9860359743758
75.2393734260476
75.5020851702749
75.7686519875246
76.033505048619
76.2920785720696
76.5403979716306
76.77440496731
76.9899597093152
77.1828574600887
77.3488500227333
77.4836719737589
77.5830716500019
77.6428467094928
77.6588839363373
77.6272027942964
77.5440532261632
77.4094862623913
77.2295889366369
77.0110529365727
76.7605582366892
76.4847143020559
76.1900131152733
75.8827939015671
75.5692191382992
75.2552612338077
74.9466991412291
74.6491241277273
74.3679539389452
74.1083801792665
73.8721207333785
73.6562572196317
73.4576299201192
73.2731688651972
73.0998805621492
72.9348374456868
72.775169871558
72.618060507732
72.4607410016181
72.300490817487
72.1346381464543
71.9605627926954
71.7757009345794
71.5790843753189
71.3758755383918
71.1726443865584
70.9758142122921
70.7916683649782
70.6263681416698
70.4859812737969
70.3765206179721
70.3039929064544
70.2744577303389
70.294097319922
70.3692981624663
70.5067460768005
70.7133511628379
70.9895349072482
71.3270583139204
71.7170805288906
72.1505832424994
72.6182382704817
73.1102956378328
73.6164938177313
74.1259949692563
74.6273490054772
75.1084910446932
75.5567771603055
75.9590632362421
76.3031676563789
76.5873214596349
76.8150446368203
76.9902587205825
77.1171995973396
77.2003603984874
77.24443685744
77.2542763762395
77.2348318106196
77.1911207480119
77.1281908313043
77.0510914818043
76.9648277595363
76.8726607206639
76.7750302412743
76.6721161823185
76.5640990340225
76.4511596906652
76.3334792332257
76.2112387201606
76.0846189865244
75.9538004516141
75.8189629352776
75.6802854829925
75.5379461997867
75.3922058930909
75.2446032194913
75.0976517831329
74.9538528014477
74.8156696119625
74.6855307426442
74.5658345401313
74.4589553069599
74.3672509138073
74.2930718714696
74.2387718697413
74.2067198166623
74.1993134420106
74.218791017386
74.2649897955171
74.3361684677643
74.4305953844147
74.5465662848227
74.6823937107663
74.8363972632127
75.0068946445974
75.1921934470648
75.3905836637646
75.6003309154687
75.8196703986508
76.0468015624775
76.2794734211956
76.5138776087591
76.7457673177589
76.970792937869
77.1845066114134
77.3823719582216
77.5597792283462
77.7120660826298
77.8345441135858
77.9225311016841
77.9713888553736
77.9765663091876
77.9343539130979
77.848041835308
77.7248613337314
77.5721159807202
77.3970779570724
77.206940517152
77.0087842399173
76.8095567457852
76.616065353744
76.4349820525525
76.2728601564038
76.1361621003512
76.0312958869978
75.9613315129053
75.9193232401834
75.8965299011728
75.8842711161935
75.8738932460232
75.8567552180703
75.8242340695149
75.7677500923661
75.6788113193675
75.5490767603329
75.370437295986
75.135112481004
74.8358527756313
74.4742164882758
74.0666122803305
73.6304889154509
73.1826238017747
72.7390426154526
72.3150137282412
71.9251089762854
71.5833229708792
71.3032448555043
71.0982789459362
70.981913937925
70.9680443405484
71.0713526556421
71.3049281122981
71.6610179420798
72.122050333693
72.6704015908127
73.287944293802
73.9556123350221
74.6530473006472
75.3583376754488
76.0478698962861
76.6963159733315
77.2767853116767
77.7611672535558
78.1213679450018
78.3478085283381
78.4520918277959
78.4481958066524
78.3510727896338
78.1762672611238
77.9395818318717
77.6568014973984
77.3434813924755
77.014799188264
76.6854702814816
76.3697220348106
76.0813224844144
75.8318897072023
75.6215001021345
75.4458722398257
75.3008875036954
75.1825662587294
75.0870378993601
75.0105155712009
74.9492751787567
74.8996383940973
74.8579594634699
74.8206156725605
74.7840013783556
74.7445255474452
74.6995445837081
74.6501517268399
74.5983656630844
74.5461947705364
74.4956363894231
74.4486771686841
74.4072944738712
74.3734588433924
74.349137484467
74.3362988068079
74.3369180009936
74.3529836797741
74.3865054773954
74.4393059368342
74.5125876038603
74.6074702622
74.7251206464645
74.8667591723541
75.0336672906689
75.2271955472004
75.4487724438819
75.6999142120884
75.9822356271554
76.2974620145761
76.64744262361
77.033892148508
77.4544284072552
77.9032701398618
78.3743136292874
78.8611738206018
79.357147510126
79.855186496453
80.3478821384497
80.8274629581441
81.2858070341501
81.7144709296031
82.1047367612993
82.4493462079305
82.7498793802815
83.0110993301844
83.2380331299732
83.435925116923
83.6101969127946
83.7664133067935
83.9102547356206
84.0474969326883
84.1839981889088
84.3256945760599
84.4783807400987
84.6434814774258
84.8183253466906
85.0000483417759
85.1857404082465
85.3724414413205
85.5571392765563
85.7367697653045
85.9082190305837
86.0683279963029
86.2138992731499
86.3417446486764
86.4500935452169
86.5390206823396
86.6087486131399
86.6595277573778
86.6916352017966
86.7053734283104
86.7010689791987
86.679071068572
86.639750149413
86.5834964454417
86.5107259480057
86.4223953119539
86.3203280449816
86.206424572243
86.0825768280664
85.9506635955028
85.812546691737
85.6700679888425
85.5250472532575
85.3792807828214
85.2345408171942
85.0925756855679
84.95474052955
84.8210295595638
84.6911328966288
84.5647451971198
84.4415653832508
84.3212963978177
84.2036449822986
84.0883214774907
83.9750396459219
83.863516515341
83.7534722426355
83.644751416822
83.5393116677932
83.4408805329217
83.3532095466348
83.2800250788614
83.2250397561234
83.1919671705029
83.1845399082486
83.2065309915113
83.2617789018459
83.3542164442122
83.4879033954876
83.6649832319448
83.88081906431
84.1293408313342
84.4044118827891
84.6997836452163
85.0090588735055
85.3256638429068
85.6428300462916
85.9535861188807
86.2507608102232
86.5269978516295
86.7761406505865
86.9979354393526
87.1938353012594
87.3653737767422
87.514155682304
87.6418482287945
87.7501725002571
87.8408953881864
87.9158220640197
87.9767890606984
88.0256579231996
88.0638218229142
88.0910670813491
88.1068517726695
88.1106418951459
88.1019127836
88.0801505663184
88.0448536601057
87.9955342965114
87.9317200716441
87.8529555114019
87.7588050119603
87.6498427658649
87.5293801659402
87.4011696681213
87.268926294917
87.1363227956376
87.0069879570175
86.8845079711257
86.7724307673878
86.6742732259247
86.5935312096901
86.5336923715193
86.4978527522954
86.4876814753792
86.5045589239734
86.5499167415119
86.6252469805101
86.7321120451408
86.8721555384567
87.0471141441042
87.2588306944486
87.5092686029359
87.8005260876854
88.1320126295384
88.4945393592065
88.8770263005705
89.2680322937722
89.6557139038091
90.027814288006
90.3716848312806
90.6743423400048
90.9225641616857
91.1030227152914
91.2032313546033
91.2244445751531
91.1797577341294
91.0829039461899
90.9477148770984
90.7879845007568
90.6173748323172
90.449363539892
90.2972324127891
90.1740952688414
90.0929639915406
90.0639030111942
90.0814520217237
90.1351195330846
90.2144668866038
90.3090396275369
90.4083198161265
90.5017025901508
90.578497373533
90.6279542357891
90.639315771723
90.6019887227199
90.5121426906578
90.3769225352539
90.2045363567312
90.0031775445725
89.7809660193999
89.5459045270873
89.3058497444979
89.0684976870652
88.841382752259
88.6318896824454
88.4469657491852
88.2851522004668
88.136048465832
87.9889618022604
87.8333448655537
87.6588028110191
87.4551250755511
87.2123406873475
86.9207955350428
86.5712494123832
86.154989878701
85.6640456297143
85.0989616209738
84.4743180177222
83.8056374411974
83.1077550563877
82.3947086996243
81.6796825460303
80.9749976020751
80.2921420470802
79.6418347913021
79.0341164006153
78.4784626171607
77.9839169743283
77.5576403643007
77.1997691161704
76.9088311719666
76.6837046288816
76.5236050167617
76.4280768777878
76.3969895208442
76.4305368680504
76.5292414074719
76.6939623635017
76.92590829856
77.2266544706176
77.5976985483757
78.0327033036215
78.5182468457269
79.0401753755951
79.5836476785664
80.1330108685506
80.6717317708765
81.1823925328128
81.6467598877161
82.0459371278049
82.360605958165
82.5713617550354
82.6635219718175
82.6443697242578
82.5284677228753
82.3309686853916
82.0672922955571
81.7528555810621
81.4028605513869
81.0321405284927
80.6550637798979
80.2854911764535
79.9367836066344
79.6218546891518
79.3506694197115
79.1179580786889
78.9132548722565
78.7263693273673
78.5473337776967
78.3663697781063
78.1738795893457
77.9604614938038
77.7169476821763
77.4344631970301
77.1045039610267
76.7190312921773
76.2707035051862
75.7614320368449
75.2072467616504
74.6248078805501
74.0299281187612
73.437504668592
72.8615165525335
72.3150779598685
71.8105387837836
71.3596250240158
70.9736136961607
70.6635392508008
70.4404311858837
70.3155855571028
70.2995807272077
70.3882286254933
70.5678012644658
70.8248760408271
71.1461908636174
71.5183662888604
71.9276762501255
72.359866762955
72.8000253475663
73.2325065818351
73.6409210824509
74.0081961312089
74.3167158616019
74.5503822929871
74.7091597257117
74.8017652683804
74.837465396777
74.82585472562
74.7767222055264
74.6999404494815
74.605380152704
74.5028505038206
74.4020656856212
74.3126370505156
74.2440903304508
74.2059072940894
74.2062229034915
74.2435471369785
74.312279949036
74.4068525838706
74.5217010408373
74.6512311052049
74.7897916380504
74.9316561946791
75.0710131851071
75.2019648821307
75.3185356196075
75.4146895019381
75.4843590559688
75.5233754494167
75.5333549937727
75.5170654189618
75.4773285159072
75.4170016340643
75.3389611430741
75.2460879886741
75.1412554245315
75.0273189593278
74.9071085228834
74.7834228267157
74.6590258732544
74.5366408266984
74.4181593344885
74.3037692949771
74.1934439015031
74.0871576725794
73.9848864343406
73.8866073040643
73.7922986747407
73.7019402006722
73.6155127840818
73.5329985627144
73.4543808984126
73.3796443666547
73.3087760619251
73.2427158273821
73.1850230095522
73.1396877573469
73.1106905224387
73.1020177569592
73.1176819783697
73.1617463292066
73.2383538632409
73.3517619174463
73.5063820849875
73.7068264940637
73.9579613291242
74.2649519389003
74.629089403758
75.0419808919533
75.4936080272368
75.9735608293808
76.4709343557656
76.9742526488093
77.471423740558
77.9497303195131
78.3958611314777
78.7959881491023
79.1358938762438
79.4011546721558
79.5820445577745
79.6833605394201
79.7131315928011
79.6798294429237
79.5922252396694
79.4592612151725
79.289940166575
79.0932345390787
78.8780159514225
78.653005248308
78.4267426009128
78.2075768102514
78.002881380112
77.8142922584788
77.641019592798
77.4822935276194
77.3373711562798
77.2055339145547
77.0860851741032
76.9783480187776
76.8816631888834
76.7953871802772
76.7188904867888
76.6515559758859
76.5927678711625
76.5410593484638
76.4934430649909
76.4467903773107
76.3979883401571
76.3439401618201
76.2815681742132
76.2078192768533
76.1196727998849
76.0141507091375
75.888330046525
75.7393574626073
75.5644656558283
75.3613225289743
75.1334474021894
74.8891762516375
74.6368197246635
74.384481184448
74.1400496622712
73.9112099475488
73.7054686722413
73.5301954178764
73.3926781727907
73.3001928829577
73.2600873686549
73.2798805283643
73.3670479681598
73.5205975597758
73.7301858440075
73.9850236152424
74.2742026406345
74.5865732171702
74.9106529978503
75.2345688081005
75.5460341649279
75.8323657866143
76.0805424689238
76.2773092210438
76.409328422812
76.4661738936683
76.4525975743393
76.3786435373471
76.2546014841821
76.0908565086304
75.8977688256353
75.6855817668437
75.464358237231
75.2439449511985
75.0339632179874
74.8438248099982
74.6827714971754
74.5599370654185
74.4818589949422
74.4458016978661
74.4470567619957
74.4810372541177
74.5432344974689
74.629180943052
74.734418700061
74.8544734681292
74.9848337605001
75.1209354258056
75.2581515683746
75.3917880329708
75.5171286689459
75.6324929857892
75.7412731621157
75.8473788642814
75.9547655659472
76.0674339914045
76.189433744124
76.3248712550162
76.4779222116626
76.6528486770239
76.8540211756634
77.0859461198383
77.3532990705078
77.6593479235368
77.9989034663616
78.3637831207692
78.7455355807065
79.1353924578869
79.5242360677954
79.9025870152179
80.2606137122622
80.5881660136085
80.8748349679544
81.11004022233
81.2831483145501
81.387533442913
81.4287091717354
81.414763220565
81.3540196661895
81.2549351046044
81.1260108810514
80.9757226027753
80.8124674672218
80.644529402318
80.4800616358581
80.3270860880478
80.1935056420071
80.0847768050873
79.9998239062223
79.936509394929
79.892745947138
79.8664858046183
79.8557113306616
79.8584267008394
79.8726506672745
79.8964103516472
79.9277360364282
79.9646569357959
80.0051983445897
80.0476743790831
80.0912095741595
80.1350648631885
80.1784979649779
80.220763388981
80.2611125788613
80.2987941959083
80.333054543638
80.3631381346313
80.3882884002792
80.4077485435984
80.4207681807862
80.4280108039732
80.4334063847368
80.4413476646571
80.4562312629169
80.482462864867
80.5244672418317
80.5867031630216
80.6736833182034
80.7899994513663
80.9403530129394
81.1295917742885
81.3626255871353
81.6387890633493
81.9493977899344
82.2849853709204
82.6358172476437
82.9918392292195
83.3426489629105
83.6774924210393
83.9852876805648
84.2546781952583
84.4741173640818
84.6319855397292
84.720167242795
84.7432968253327
84.7091762512777
84.6258366862691
84.5014381806048
84.3441836253186
84.1622481422683
83.9637244446326
83.7565841995208
83.5486550499399
83.3476127103554
83.1608188522384
82.9916507194652
82.8396002705517
82.7040193025217
82.5842863182619
82.4798042284207
82.3899982108501
82.3143137131934
82.2522145857464
82.2031813330846
82.1667094741635
82.1423080017
82.1291243569633
82.1236642222496
82.121293375111
82.1173759899761
82.1072783589101
82.0863732499801
82.0500494770715
81.993726629583
81.9128748532709
81.8030394930941
81.6598703070445
81.4791549131586
81.2594875362278
81.0091352962712
80.7384097821539
80.4574010934415
80.175941884597
79.9035964559241
79.6496732547132
79.4232591771895
79.2332743112586
79.0885462050981
78.9979033699669
78.970288523248
79.0127718450542
79.1203815651485
79.2839156467062
79.4942742122174
79.7423446582395
80.018901455098
80.3145263339024
80.6195492704289
80.9240113710333
81.21765126619
81.4899169007208
81.7300089135582
81.9300552307706
82.0907705558454
82.2144854377321
82.3036678558033
82.3609011896214
82.3888630001864
82.3903049358721
82.3680340269539
82.3248955830277
82.2637578594775
82.1874986139604
82.0989799459185
82.0006229259525
81.8943297072353
81.7819597989189
81.6653561208269
81.5463427603986
81.426723565899
81.3082815542165
81.1927791098253
81.0819589512548
80.9775458425979
80.8812490301365
80.7945332394815
80.7148170362796
80.6361193750391
80.5523983253685
80.4576633952612
80.3459873170178
80.2115265091452
80.0485498672482
79.8514753890414
79.6149139470295
79.3337192956187
79.0030431488618
78.618572562774
78.1844065425206
77.7156813573431
77.227785082226
76.7354275703418
76.2526062938825
75.7926261799814
75.3681668197829
74.9913912217291
74.6740916637095
74.427870046736
74.2643524005881
74.1954398477385
74.2332186133362
74.3785813692375
74.6190288929157
74.9416904646468
75.3338165154134
75.7825043438457
76.2744654893615
76.7958341776154
77.332019448746
77.8676062607979
78.3863129657092
78.8710139203454
79.3039329392493
79.6735601098758
79.9795627802743
80.2230011637564
80.4052896847664
80.5281713223518
80.593688706267
80.6041527298415
80.5621094536065
80.4703060576675
80.3316565620536
80.149207976655
79.9261234756774
79.6667491778423
79.377250793908
79.0638743372247
78.7327347830922
78.3897862624049
78.04080196959
77.69136319128
77.3468567745137
77.0124803230717
76.6932544299572
76.3940413152045
76.1195693341109
75.8739975221488
75.6564339740795
75.4630299459837
75.2900162650705
75.1337251119331
74.9905718827499
74.8570408225644
74.7296741963365
74.605064816422
74.4798517822447
74.3507193115546
74.2143985538512
74.0676722761679
73.9079008612702
73.7374972127319
73.5616294389962
73.3854043337347
73.2138326767821
73.0518327054796
72.9042402190498
72.775825024712
72.671313510728
72.5954172409624
72.552867606882
72.5484567470027
72.5870851537391
72.6735875479385
72.8077328024327
72.9841571269147
73.1973146698959
73.4416436403918
73.7115122083198
74.0011725051332
74.304722827466
74.6160784259357
74.9289514925155
75.2368411387343
75.5330342753828
75.8106183515319
76.063084971162
76.287545771061
76.4826013154003
76.6469017156783
76.77915258384
76.8781247291409
76.9426638427892
76.9717000535594
76.9642572314995
76.9194619128761
76.8365517178792
76.71488313357
76.5539944830875
76.3574557152095
76.1352324491636
75.8977202099859
75.6550923877645
75.4172748017752
75.1939471182411
74.9945694559048
74.8284326827587
74.7047313312042
74.6326587146521
74.6215247081912
74.6808977725405
74.8203550062748
75.0388064598628
75.323293089866
75.6602119090819
76.0357000152079
76.4354581482709
76.8446234367842
77.2476954948534
77.6285217489116
77.970348725731
78.2559458297007
78.4678066654903
78.5885089534763
78.610546128575
78.5456242142547
78.408123808274
78.2126871837682
77.9739788543649
77.7065002650595
77.4244599072702
77.1416977167709
76.8716610500507
76.6274288130434
76.421780355652
76.267306453187
76.1756410290776
76.1474730117169
76.1764326662588
76.2562759641184
76.380927930935
76.5444051701446
76.7407487621076
76.9639667039325
77.2079854745277
77.4666106623795
77.7334968879207
78.0021274903456
78.2658711769132
78.520952456924
78.7677405909428
79.0069369757574
79.2392678011188
79.4654828204714
79.6863542266711
79.9026756462591
80.1152612651964
80.3249450983583
80.532580414565
80.7390393285001
80.9451952683478
81.1515398983073
81.3581730307699
81.5651789834574
81.7726438116795
81.9806553283016
82.1893031257146
82.398678599909
82.6088749767541
82.8199873405908
83.0321126652478
83.2453498475953
83.4598391923461
83.6758980302384
83.893898277051
84.1142195405688
84.3372493564779
84.5633834638392
84.7930261208373
85.0265904629595
85.2644989059093
85.5071835957414
85.7550869088994
86.0085017281656
86.2664623267741
86.5273783175733
86.7896168786613
87.0515051403812
87.3113296971154
87.5673367822723
87.8177331478995
88.0606876899398
88.294333858442
88.5167728889275
88.7261759850374
88.921168502846
89.1005113799253
89.262963789839
89.4072873843204
89.5322508974386
89.6366350653467
89.7192378388923
89.7788798609433
89.8144101747323
89.8247266797845
89.8105282657047
89.7759706125468
89.7256206128325
89.6640451317577
89.5957973218771
89.5254075933967
89.4573792080337
89.3961884359286
89.346289206243
89.3121221923441
89.297705195522
89.2973414126395
89.2956198042706
89.2767133043272
89.2248349029389
89.1243262429161
88.9598007095243
88.7163380560161
88.3797251971897
87.9367348343297
87.3754302965974
86.6863065006579
85.8833728237167
85.0038986293345
84.0841637833161
83.1578171993149
82.255760077475
81.406280662759
80.6353892542837
79.9673110795117
79.4251077113757
79.0314133170854
78.8092895993544
78.7829757521451
78.9567972282575
79.2976594004618
79.7694779493039
80.3358999938405
80.9592173723507
81.5996019114389
82.2146944311727
82.7596042416616
83.1873860645781
83.4500518926565
83.5001413804375
83.2997486799383
82.8696161618517
82.2587972703044
81.5166849476506
80.6911047717039
79.8271610571442
78.9666478096208
78.1479495650322
77.4063440172051
76.7746254806949
76.2839890672597
75.9651451035912
75.8496469917278
75.9551464795835
76.2574793505176
76.7271094554836
77.3354063525171
78.0534147752011
78.8508310027517
79.6951770612765
80.5511947209613
81.3805071188271
82.1416151163718
82.7903046266453
83.2823881033327
83.6058612150832
83.7782334687848
83.8200300951806
83.7532310416646
83.6006440807609
83.3853802655449
83.1304494976228
82.8584835862159
82.5915863815624
82.3513057055438
82.1587198427667
82.0310594160351
81.96475944782
81.9490233112401
81.9732763382898
82.027059354321
82.0999397177994
82.1814492074424
82.2610484654866
82.3281182299344
82.3719778275279
82.3819313473271
82.3473719317006
82.2629717855844
82.1344209394909
81.9688661838128
81.7734573260373
81.5552903147168
81.3213629813941
81.078543296017
80.8335497600735
80.5929433831144
80.3631305974175
80.1503764547761
79.9608079708406
79.7971783937538
79.6553018639368
79.5302084760403
79.4170144972242
79.3109046211243
79.2071202960934
79.1009539043909
78.9877486146288
78.862903745815
78.7218854694648
78.5602426380884
78.3736274658726
78.1601347276494
77.9280639392544
77.688318303217
77.4515502443194
77.228156690129
77.028302814817
76.8619725166925
76.7390444065379
76.6693927878251
76.6630140783888
76.7301803691511
76.8816233838714
77.1281527688991
77.467543699212
77.8840316749136
78.3610157902556
78.8813418758983
79.4270549023064
79.9792235357405
80.5178464577238
81.0218529797293
81.469211752031
81.837160476409
82.1025659603527
82.2458560383792
82.2726277895016
82.2000770876503
82.0461286393255
81.8290039874072
81.5669060079609
81.2777838788192
80.9791795683873
80.6881533277318
80.4212836256036
80.1947363506445
80.0243987616317
79.9237189958005
79.8896018379411
79.9120639911803
79.9813420011052
80.0877944141311
80.2217996546497
80.3736773240846
80.5336325184495
80.6917234454487
80.8378530749408
80.9617857715333
81.0531898200373
81.102952575179
81.1075045552435
81.0649201003776
80.9734414475662
80.8314999043644
80.6377360295079
80.3910183650895
80.0904603114819
79.7354347533152
79.3255860746975
78.860839244312
78.3414057052363
77.7686789360118
77.1537648113143
76.5130282042648
75.8620056210979
75.2152669232373
74.5864233229444
73.9881870394045
73.4324739230214
72.9305418134598
72.493159292921
72.1308016886413
71.8538736016062
71.6729599037461
71.5990114011117
71.634818686692
71.7681543441363
71.9858104121255
72.2749064343077
72.6225995084427
73.0158409716267
73.4411769937886
73.8845937613965
74.3314107278585
74.7662275822134
75.1729320371411
75.5347760753685
75.835411696845
76.0719027449241
76.252315680499
76.3854510556578
76.4804421372865
76.5466522960489
76.5935929599326
76.6308639457054
76.6681172626484
76.7150449864669
76.7813915486086
76.8769907885383
77.0118223235459
77.1916935394087
77.4103988051295
77.6596002378398
77.9308209237609
78.2153848974487
78.5043752451488
78.7886114735196
79.0586476080447
79.3047926242342
79.5171547416
79.6857107964689
79.8004030909007
79.854049663006
79.8481381946944
79.7860159383586
79.6712561782568
79.507610498851
79.2989626225044
79.0492846420339
78.7625963183169
78.4429279556551
78.0942872148461
77.7206300815116
77.3258360793233
76.9138282665612
76.4900886876162
76.0609922263069
75.6326659801091
75.2109688068631
74.8015007021188
74.4096205267029
74.0404711308624
73.6990110725419
73.3900523119253
73.118303475726
72.8884185193367
72.705050872639
72.5727493688884
72.4910378278939
72.4535925336922
72.4539453859291
72.4857608267175
72.5427751866836
72.6187474950968
72.7074212255694
72.8024967687654
72.8976146626593
72.9863497724486
73.062216695706
73.1186866708937
73.1492799441519
73.1520111297982
73.1322750531991
73.0961816128208
73.0498450870873
72.9993619548482
72.9507989401007
72.910191203422
72.883550554572
72.8768835831733
72.8962196958771
72.9476492086964
73.0373718741769
73.1717404751275
73.3533138304401
73.5754911915985
73.8303215402822
74.1097227475531
74.4054156977567
74.7088755793434
75.0113014421821
75.3036055173661
75.5764240198927
75.8201511781455
76.0249980242842
76.1810770059215
76.2790862438843
76.3186797823945
76.3066690695316
76.2502696049021
76.1568272552941
76.033740493137
75.8883964439246
75.7281212982849
75.5601451860272
75.3915812678076
75.2294185771417
75.080528037518
74.9516810790426
74.8487929161273
74.7715873403719
74.7169319190466
74.6817393239849
74.6629673898882
74.6576045346243
74.6626577384908
74.6751429917164
74.6920781562502
74.7104782160786
74.7273529102988
74.7397067551243
74.7445414649415
74.739763274747
74.7276406486439
74.7117561750734
74.6956888251758
74.6830117978862
74.6772940560094
74.6821052752812
74.7010242088932
74.7376504967211
74.7956199892079
74.8786237110879
74.99043066097
75.1349078829077
75.3132978238792
75.5199412601175
75.7480246332471
75.9906076497114
76.2405886772711
76.4906827090777
76.7334126911799
76.9611151414669
77.1659610111262
77.3399926394365
77.4751774154969
77.5634783762877
77.5980968633517
77.581484721625
77.5205753958597
77.4224528729248
77.2942525649987
77.1431001472738
76.9760635357623
76.8001181145735
76.6221250052677
76.4488219575769
76.2868263278912
76.1426495932317
76.0227165581503
75.9308630174662
75.8645267917079
75.8202214978555
75.794519205697
75.7840321250549
75.785397510345
75.795265651809
75.810290874028
75.8271255016237
75.8424167800191
75.852806756043
75.854935129101
75.8455534582568
75.8239165307173
75.7917813753
75.7510169881051
75.7034912330143
75.6510670708873
75.5955997132979
75.5389346963404
75.4829068651303
75.4293402566338
75.3800488673324
75.3368382929239
75.3015082297291
75.2756720261305
75.2593458575437
75.2517298342493
75.2520243347282
75.259435053909
75.2731714164881
75.2924451625721
75.3164691019639
75.3444560345948
75.3756178356334
75.4091647046775
75.4443045791708
75.4802427331261
75.5169134976911
75.5569199815198
75.6034851918997
75.6598505628128
75.7292829857158
75.8150846940912
75.9206060950735
76.0492616835554
76.2045492284726
76.3900724889697
76.6095678020092
76.8669349856771
77.1658768369611
77.503352732782
77.8703381192509
78.257332134444
78.6544766627738
79.0515130903662
79.4377641740766
79.8021438003929
80.1331975071694
80.4191763962481
80.6481464204801
80.8081339392376
80.8884414401101
80.8909646482355
80.8255127564323
80.7023150828586
80.531757315655
80.32424854194
80.0901147011995
79.8395191717953
79.5824102050905
79.3284942241857
79.0872335984445
78.8678673705232
78.6791974209381
78.5240436232567
78.3994076152261
78.3021472558523
78.2292111013634
78.1776184728462
78.1444421803655
78.1267937008486
78.1218106597705
78.1266465104241
78.1384623403892
78.1544207634617
78.1716918535452
78.1891273305415
78.2091487411996
78.2346381242846
78.2684867270989
78.3136001197152
78.3729054816685
78.4493611111924
78.5459682336535
78.6657852200411
78.8119443689839
78.9876714578626
79.1963067240505
79.4387702177281
79.7082739678116
79.9964182764953
80.2945855125284
80.5939067435836
80.8852470304106
81.1592108578258
81.406169240657
81.6163099037332
81.7797115679668
81.8864427598263
81.9268484121246
81.8989411696049
81.8113338478578
81.6736070257474
81.4954248908338
81.2864300286895
81.0561610731775
80.8139934265257
80.5691025652452
80.3304489868028
80.1067836134922
79.9066724364146
79.7384491729638
79.605358228882
79.5031519652235
79.4270797344103
79.3724840007251
79.3347725186812
79.3093961734296
79.2918322320708
79.2775728500768
79.2621187453579
79.2409779953091
79.2096699302012
79.1637533553617
79.1020706484834
79.0303570969365
78.955191096212
78.8831044077989
78.8205819430581
78.7740722531682
78.7500085664373
78.7548403231749
78.7950753393047
78.8773329847702
79.0084090972905
79.1953510156571
79.4411507143652
79.7356942764931
80.0662036721863
80.4195776753381
80.7822897121893
81.1403282562846
81.479183593068
81.7838853636067
82.0390951795118
82.2292576609355
82.3388113867157
82.3528631261969
82.2698119204269
82.1036496793172
81.8695611931867
81.5827910818279
81.2584257538812
80.9112326653304
80.5555561209099
80.2052668619121
79.8737615660434
79.5740080683502
79.3186324888626
79.1199394193389
78.9827790378244
78.9000853145425
78.8639707392153
78.8667603327617
78.9009086068904
78.9589322325637
79.0333574476179
79.1166817207232
79.2013495531388
79.2797425495674
79.3441840265604
79.3869837465391
79.40472259245
79.4030706215937
79.388884163917
79.3690271336346
79.350355301757
79.339712425066
79.3439381969728
79.3698880004666
79.4244645438032
79.5146616466136
79.6476207213807
79.8306791191701
80.0660052561352
80.3432758794877
80.6502146347349
80.9742397719749
81.3023868244406
81.6212706012751
81.9170897667106
82.1756775515917
82.3826017976723
82.5233164842665
82.5833650698406
82.5494605000115
82.4233166367458
82.219400619819
81.9527852882933
81.6385089952463
81.2913799604048
80.9258366033057
80.5558622568186
80.1949510083744
79.8561205913226
79.5519681585354
79.2947653058716
79.0962588944087
78.9577950457087
78.8687676248963
78.8181774762627
78.7952169822073
78.7891795113649
78.7893988481114
78.7852177918056
78.7659856410096
78.7210844712869
78.6399839806751
78.5123242193251
78.3280482581768
78.0833513637972
77.7881972495425
77.45436462241
77.0933967311981
76.7165090089223
76.3345317182212
75.9578852429957
75.5965852179781
75.2602746219308
74.9582802182282
74.6996912512947
74.4934590537943
74.3484619556399
74.2687142686106
74.2496282009132
74.2860168576112
74.3729382554965
74.5056240576351
74.6794164603248
74.8897120871326
75.1319120851317
75.4013779081996
75.693392523064
76.0031269935329
76.3256125915624
76.6560184531009
76.9922713536578
77.3338788544438
77.6803484928518
78.0311690532406
78.3858096862858
78.7437190806835
79.1043246941501
79.4670320512795
79.8312241164255
80.1962607503551
80.5614782599699
80.9261371028146
81.2890995267803
81.649025936354
82.0045312817186
82.3541864555971
82.6965195759259
83.0300178238276
83.3531298718817
83.6642689349106
83.961816471665
84.2441265608155
84.5095428608518
84.7567692365298
84.9849533975475
85.1932809401807
85.3809535307868
85.5471922916102
85.6912412517183
85.8123708410343
85.9098814036153
85.9831067046815
86.0314174044876
86.0542376458993
86.0522280088393
86.0282186599534
85.9852897989903
85.926537291926
85.8550602374227
85.7739507522025
85.6862859992404
85.5951224552784
85.5034923935704
85.4144025439948
85.3308348223411
85.2534812786945
85.1747849642921
85.0853726415603
84.9759552685402
84.8373613231679
84.6605896983557
84.4368810885994
84.1578062459493
83.8153688118428
83.4021196733853
82.911279003891
82.3372260209557
81.6886824486436
80.9913016052185
80.2704888743147
79.5500571298195
78.8521925527426
78.1975524087963
77.6054720983949
77.0942629199654
76.6815879280842
76.3849104902956
76.2220184880911
76.2116368097153
76.3700310790343
76.6863347752385
77.1384236833623
77.7045840200692
78.3628023151206
79.0901214342136
79.8621092852556
80.6524511996034
81.4326897100076
82.1721455359126
82.8380597393468
83.3961600831181
83.8260924053623
84.1346437472169
84.3327833253019
84.4326666191832
84.4473280520299
84.3903954944557
84.2758375402694
84.117751231593
83.9301948604313
83.7270678796985
83.5220379607211
83.3273304911345
83.1456951665334
82.9754905449126
82.8150846947717
82.6628770755787
82.5172950032696
82.3767907646198
82.2398393504461
82.1049367818892
81.9705990072819
81.8353613493971
81.6977784995973
81.5569738186145
81.4140756747031
81.270649263806
81.1282380734407
80.9883640684102
80.8525284507127
80.7222129731069
80.5988817875508
80.483983812295
80.3789556047374
80.2852247312021
80.2042133016995
80.135735900204
80.0742955569171
80.0133338182981
79.9463332812619
79.866822024084
79.7683885225879
79.6447067913985
79.4895713564583
79.2969414676324
79.0609937068609
78.776181849418
78.4373025091521
78.0416480897899
77.6015224907822
77.1351654317496
76.6601016843742
76.1930478631406
75.7499224291108
75.345924032538
74.9956701544299
74.7133900260642
74.5131686655234
74.4092424747229
74.4163512307428
74.5501566924218
74.8223838007131
75.2203842478186
75.7242697844199
76.3139670533683
76.9686638966748
77.6663514562206
78.3834710436703
79.0946832958402
79.7727851582431
80.3888052984703
80.9123092855752
81.3119553465221
81.5669804214005
81.6872697350101
81.6893484521612
81.5908781774285
81.4101857888091
81.1658584920233
80.8764176824376
80.5600774951747
80.2345885813851
79.9171639160328
79.6244813430023
79.372756862488
79.1738015044872
79.0245425088609
78.91877525407
78.8505143179398
78.8139325952873
78.8033104143969
78.8129937832055
78.8373611897906
78.8707986129516
78.9076825750724
78.9423711954561
78.9692032799345
78.9832187582077
78.9836253967894
78.9711515874884
78.9465399669854
78.9105429964214
78.8639207383713
78.8074387620147
78.7418661843645
78.667973853827
78.5865326808605
78.4983121190933
78.4040787989719
78.304671994465
78.2019633314753
78.0985526139173
77.997029069603
77.899955223084
77.8098690632788
77.7292878585487
77.6607135851774
77.606639947943
77.5695609884479
77.5519812980768
77.5564278780318
77.5854431222091
77.6391249439558
77.7127621180022
77.8010841903449
77.8987934747724
78.0005484635432
78.1009544403877
78.1945614539907
78.2758698438372
78.3393435008257
78.3794309903548
78.3905945641666
78.3673469387755
78.3059513302404
78.2094054034136
78.0824248241245
77.9297450281221
77.7560879458055
77.5661344959712
77.3645028965502
77.1557327170641
76.9442745044907
76.734484750859
76.5306259356323
76.3368713666207
76.157250602034
75.9933415554631
75.8436726888093
75.7066130396277
75.580567083321
75.463969757612
75.3552822123988
75.2529882457669
75.1555913939456
75.0616126487033
74.9695887801833
74.8780712465892
74.7856256744938
74.6908648384246
74.5929887584421
74.4916918731678
74.3866884045139
74.2776970865634
74.1644414520407
74.0466501356593
73.9240571930647
73.7964024340097
73.6634317683085
73.5248975630354
73.3805590093459
73.2301824972167
73.0736117989655
72.9128845403947
72.75256910982
72.5973011092069
72.4516382620098
72.3200700444386
72.2070328237852
72.116930346118
72.0541595089794
72.0231414744892
72.0283583254201
72.0743956440992
72.1659916063846
72.3080842815784
72.5021917460282
72.7406874067627
73.0144430376951
73.3141606368253
73.6302902042058
73.9529705388794
74.2719947283477
74.5768025561295
74.8565023300228
75.0999245858698
75.2957096946421
75.4324305468549
75.4990118091663
75.4928904288906
75.42158872904
75.293489922033
75.1171493427334
74.9011776936989
74.6541431813342
74.3844934975965
74.1004977715069
73.8102079752692
73.5214388260995
73.2417649683374
72.9785341340186
72.7388698319774
72.5267058439805
72.3400720091483
72.1764174695038
72.033279093733
71.9082668507282
71.7990511213794
71.7033517824821
71.6189289309402
71.5435751448468
71.4751092013138
71.4113711896879
71.350218973484
71.2895259653099
71.2273582896006
71.1631916691912
71.0971640317734
71.0294165358446
70.9600895865912
70.8893227741623
70.8172548177204
70.7440235152045
70.6697656987288
70.5946171955367
70.5187127944213
70.4421862175177
70.3651700973696
70.2877972808857
70.2111556274305
70.1389596556135
70.07534502744
70.0244219767391
69.9902878879842
69.9770446537809
69.9888208582913
70.0297989317143
70.1042475443955
70.2165596613093
70.371296863539
70.5732407703849
70.8274526744131
71.1388442022674
71.5050069768336
71.9175348217022
72.3676200685266
72.8460980264049
73.3433526785621
73.8492440587667
74.3530604216778
74.8434991022988
75.3086804660257
75.7361994907238
76.1132191907111
76.4266092790593
76.6665421704488
76.8358446195187
76.9406651737839
76.9875760291587
76.9834669843988
76.9354475060067
76.8507592705818
76.7367008899128
76.6005659106053
76.4495946457561
76.2909399611833
76.131646813295
75.9785685187486
75.8355899926336
75.7029009586031
75.580458870067
75.4682289919813
75.3661843773639
75.2743058586789
75.1925820541356
75.1210093890024
75.0595921320937
75.0083424476385
74.9672804628015
74.9364343511833
74.9157463189238
74.9037237004634
74.8977532521594
74.8951972225012
74.8934201796949
74.8897875357301
74.881665924872
74.8664254340328
74.8414436786216
74.8041117081835
74.7518417114931
74.6820764709336
74.5923004912908
74.4805986027505
74.3503786479443
74.2079737102602
74.0596714061787
73.9116662437379
73.7700553898547
73.6408446334175
73.5299641465828
73.443293723792
73.3866973191714
73.3660669057798
73.3873759452778
73.4567430887951
73.5797580721969
73.7532143337193
73.9679913789507
74.214797788324
74.4841830225491
74.7664646900737
75.0516794630022
75.3295592095568
75.589534338923
75.8207664974763
76.0122125703611
76.152721385579
76.2311643233227
76.240361145289
76.1859521264574
76.0764599548812
75.9205760828603
75.727046838866
75.5045788934372
75.2617649649503
75.0070298477822
74.7485962378596
74.4944694223259
74.252439681811
74.0301012087192
73.8348859905471
73.6718516254343
73.5385572876113
73.4311237554798
73.3457744049006
73.2788107212805
73.2265919748303
73.1855187913262
73.152020429916
73.1225456410322
73.0935570229299
73.0615288258228
73.0229481686603
72.9743196356597
72.9131846874544
72.842469660434
72.7668543692062
72.6909850259445
72.6194699168143
72.5568820869674
72.5077677951792
72.4766606507241
72.4681014049112
72.486663459165
72.5369842713778
72.6238029946307
72.7520048714056
72.9259141867149
73.1427081833648
73.3954745777794
73.6771706610411
73.9806028996241
74.2983741945486
74.622844695713
74.9461072091076
75.259978526263
75.5560081738958
75.8255061043758
76.0595906987355
76.2492624678427
76.388662528197
76.4808226130796
76.5304979917825
76.5426233263329
76.5222607772734
76.474553673689
76.4046864463975
76.3178512888798
76.2192218059633
76.1139337416069
76.0070727477589
75.9036690674045
75.8085742915764
75.7232661178224
75.6456109591
75.5733175870775
75.5041150875929
75.4357502837467
75.3659865244865
75.292603811028
75.2134002349284
75.1261946997996
75.0288308936594
74.9191824709215
74.7951593922078
74.6549489500665
74.4999446395627
74.3338034630067
74.16018181434
73.9826760986853
73.8048176226843
73.6300709598062
73.4618356284839
73.3034509224351
73.1582037465958
73.0293393376455
72.9200747842168
72.8336153079832
72.7731192822427
72.7400751056178
72.7340249780069
72.7544572940474
72.8009179489538
72.8730069762816
72.970375526217
73.092723150662
73.2397953653007
73.4113814622488
73.6073125498524
73.8274597987972
74.0717328759496
74.3399355690807
74.6285887497451
74.9307908447411
75.2392808495133
75.546558562277
75.8448771207398
76.126251051762
76.3824811096361
76.60519705144
76.785919208446
76.9161392461698
76.9874198565521
76.9915123845745
76.9234653021783
76.7895470687472
76.5987478135561
76.3601682826093
76.0828994607079
75.7759236959972
75.4480378721241
75.1077983152576
74.7634864899797
74.4230941257062
74.0943262068702
73.7846202311486
73.5011802636536
73.2494267522043
73.0277138085879
72.8325942737989
72.6607488862115
72.5089638635569
72.3741118585192
72.2531360364962
72.143037037666
72.0408626396608
71.9436999797201
71.8486702275059
71.7529256228088
71.6536488068585
71.5482936403121
71.4385046889142
71.3294300498651
71.2262674005774
71.134156140792
71.0581898624302
71.0034360725685
70.9749630973913
70.9778742355567
71.0173494137405
71.0986948287766
71.2274013467673
71.4092127810677
71.6501950601949
71.9525727374341
72.3080453141596
72.7064955042131
73.1374936417656
73.5901790996584
74.0531699784827
74.5145043469944
74.9616173584206
75.3813592177345
75.7600591181429
76.0836397694591
76.3377858787914
76.5089773090038
76.5964067475648
76.6095593441429
76.5586662371894
76.4542618815231
76.3070236588227
76.1276391946734
75.9267032810439
75.7146449397434
75.5016841407718
75.2978170240403
75.1128281525669
74.9563283240284
74.8366358884282
74.7527999077837
74.6996164357556
74.6719686708995
74.6648146057701
74.6731559819686
74.6920141911149
74.716412914464
74.7413674109273
74.7618804420337
74.7729448638027
74.7695529196686
74.7467122352029
74.7006357861972
74.6332185051295
74.5480718105232
74.4488042133041
74.3390057695837
74.2222364008504
74.102017706461
73.9818281999123
73.8651018749085
73.7552299955209
73.6555660060207
73.5694334695085
73.500136969555
73.4507435465183
73.422976419649
73.4180988091923
73.4374138156861
73.4822734779165
73.5540878760527
73.6543350583786
73.7845719095897
73.9464460995916
74.1417092763219
74.3722316951332
74.640018511694
74.9472275968597
75.2941610326496
75.6744299388915
76.0800334710809
76.5026616721804
76.9336432700719
77.3639112310044
77.783988259026
78.1839947187078
78.553681542001
78.8824905119051
79.1596438478896
79.3742642109623
79.5182958343895
79.5961254459657
79.6158766095146
79.5859701017781
79.5150098406265
79.4116853031217
79.284691987154
79.1426707713845
78.9941663908299
78.8476047797547
78.7112887439079
78.5934113059007
78.5012491232319
78.4347783059882
78.3902840002907
78.3640782200141
78.3525120258622
78.3519602091275
78.3588094234176
78.3694496890537
78.3802692345344
78.3876526659453
78.3879824687254
78.3776438468377
78.3532387773324
78.316121307686
78.2723790267153
78.2282840186386
78.1900812886653
78.1639932120746
78.1562338988442
78.1730334424354
78.220672150571
78.3055250524112
78.4341172444742
78.6131909851725
78.8496920741276
79.1443309275838
79.4871213855568
79.8668791761576
80.2720875116055
80.6907998412724
81.1105750686518
81.5184486286269
81.9009434892491
82.2441253351915
82.5337058054003
82.7551965938647
82.8953971265925
82.9537900494696
82.9373030869002
82.8533615375471
82.7096850093158
82.5141708399783
82.2747902036108
81.9994986214574
81.6961618450767
81.3724974311597
81.0360318012695
80.6940721837776
80.35369256765
80.0217326497986
79.7048087167072
79.4093354525361
79.1415577958754
78.9075921636307
78.7134766142627
78.5652298288746
78.4689191474354
78.4307383143594
78.4570960750023
78.5547173426566
78.7307593548035
