Value(μV)
18.4739175841893
13.9681658927522
11.1999480974807
11.1265101288205
12.1364540057441
11.865655925138
9.90269204251152
8.05451614880334
7.81281495325339
8.25368850726203
7.13417384944182
3.85175565747537
0.45022123985359
-0.693841257179145
0.429158975544041
1.82597890910324
2.34717191857941
3.13642735405789
5.69345302768437
9.2338685270622
11.1901176769933
10.5430390504948
9.59591702113855
11.4505742770284
16.0250287402104
19.6724657441703
19.0684289451928
14.4911950916361
8.29046133816168
0.654341240403753
-11.4876392795717
-30.6773083445998
-55.305326435725
-81.449028125284
-108.127693368265
-138.456203965342
-173.642680551792
-206.60269456739
-224.475481293206
-219.735435416333
-198.418214624074
-175.30839725818
-159.805209527993
-147.093663586855
-123.938773560466
-82.1433475910828
-23.9604002748595
47.0699723884514
139.313882075914
273.893882579395
468.830161877771
719.074106242723
989.583228612059
1227.39861255047
1383.97209107639
1433.6460132862
1379.48398118096
1246.01901602406
1064.15530618643
856.319234918115
630.397148302174
386.578448210283
131.627655325854
-112.589096387077
-316.038155832804
-458.513958212154
-542.721952057665
-590.274461715352
-624.735226859567
-657.689586487265
-688.72503099298
-714.616877784323
-734.827004078223
-748.048825910986
-747.400036828266
-723.780918029275
-675.855292777363
-615.305672176418
-560.082789745124
-521.724401901463
-499.436293147688
-485.723951041379
-475.618501847732
-468.93931634414
-464.774160529554
-456.947685484287
-437.323746934467
-403.574351211228
-362.416887348802
-324.636041434917
-297.305897778165
-280.660698413671
-270.782050074246
-263.303433704075
-254.438528620133
-240.728200254056
-220.395053242681
-195.533686786645
-171.535658095083
-152.86792888671
-139.275670885685
-126.757397442946
-112.276583799682
-96.7451063018894
-83.0327364530745
-71.8933955536544
-61.0317762459654
-48.2632975255147
-34.4699291037412
-22.5127351037477
-13.6182047902964
-5.96503120565887
2.79098274950206
12.4524389127911
20.6686028283808
26.1896797569952
30.7056519415156
36.9118628312706
45.3382037713816
53.9624813684943
60.925302440323
66.7261273330394
73.1641181163484
80.6349284799684
87.4393446686228
91.9570422409378
94.7360164003203
97.7439816410027
101.824995540632
105.718621087873
107.854132398134
108.477966813677
109.334741296204
111.428785200945
113.88719661974
115.377838515829
116.096946626243
117.625430668371
120.842101229115
124.67407118832
127.334494209011
128.408535439328
129.08208517875
130.322076416886
131.514921179284
131.381143355757
129.890869257593
128.557854736112
128.660483106558
129.706179884538
130.141355551081
129.355094454514
128.358568270844
128.319919739897
128.971793760565
129.026845222793
128.023577837886
127.111173568529
127.693136135676
129.685911535926
131.651808673905
132.60067488454
133.101478907749
134.318047470904
136.337640088562
138.039441806673
138.642583424974
138.829106301196
139.927202286563
142.230556677897
144.65647031622
146.145454844792
146.916674898382
147.954930511635
149.511645487726
150.704185498118
150.772331911188
150.282725917924
150.623482306365
152.428628735484
155.019077480836
157.588043312325
160.508418690602
164.956375253488
171.298243482713
178.375948354829
184.675679865743
189.876575850919
194.756104145471
199.594509885216
203.225376157058
204.062544271022
201.845378306314
197.877113273666
193.458550577859
188.524046837087
182.170449592104
174.2773101826
166.021979092791
158.59104506036
151.775543174271
144.284277751704
135.367321146913
125.674903496456
116.332139229684
107.536218295424
98.5171672832581
88.8169273572394
79.0926508339591
70.3367922679606
62.5506675542141
54.6324168107041
45.6179856754396
35.6475713634749
25.4595192075455
15.2077388546758
4.26184883920475
-7.74214075020082
-20.0603835612229
-31.3953169220748
-41.1468519773379
-49.7270347777765
-57.579769812142
-64.2982401243339
-69.0849572421021
-71.9522370753007
-74.0209029541617
-76.466061480439
-79.4829943368166
-82.626579688098
-86.0124761411016
-90.6677183568068
-97.4362110670295
-105.818488855884
-114.296778540542
-121.783253651692
-128.354876248909
-134.388587353405
-139.353385291286
-141.995290851494
-141.790142312675
-139.78678785416
-137.674116588994
-136.190949470438
-134.855370681696
-133.265004457557
-132.163913831416
-132.797178281358
-135.364814192969
-138.622123068831
-141.206016577238
-143.01181564637
-144.873713219018
-147.023259289651
-148.401292951081
-147.772880162649
-145.217957134616
-142.064284715407
-139.356483349391
-136.850310427843
-133.801077379423
-130.438440226597
-128.115653007316
-127.870192089926
-129.228094543155
-130.780657218135
-131.775237784735
-132.693769986848
-134.173204777695
-135.796972930246
-136.399133174865
-135.473245035089
-133.80498266862
-132.480417465148
-131.557728556911
-130.099856313613
-127.447435934876
-124.008874363316
-120.563066585472
-117.097010606085
-112.804923495844
-107.272189584872
-101.239201711527
-95.8847311357103
-91.5502910754131
-87.5770063588351
-83.4331959903927
-79.5803969123207
-76.8881560757405
-75.3830992095067
-74.0474600043187
-71.9960737206076
-69.4993338951289
-67.4881985255167
-66.1837610140123
-64.6741074610932
-62.0229920189717
-58.4623011634927
-55.0957306681129
-52.5063729420435
-50.1132188637515
-47.123154911847
-43.7914356690679
-41.2729993975668
-40.2085250538703
-39.8827507831999
-39.0639945643754
-37.4343581438478
-35.7581382953719
-34.6208740485786
-33.4671940604281
-31.2539205933828
-27.8624500708195
-24.3738309265861
-21.7971603474725
-19.891897808976
-17.6128439897101
-14.5708544585946
-11.5708325953965
-9.52777880988829
-8.22500786396741
-6.58768129853113
-4.11710707593669
-1.5656088741122
0.075572012593621
0.956009974796052
2.27991222293126
4.83981251560539
8.07600493941399
10.872449122071
13.0037174680091
15.2953079059933
18.2883878426879
21.2178021045251
22.7290783532256
22.4641189933915
21.4722138412888
20.9184517022867
20.7756558743521
20.1777074553806
18.8972517273758
17.9249951622318
18.3385110730504
19.9451626993081
21.5117826290558
22.3082116483186
22.9538297041764
24.4735369052016
26.8318270038677
28.8922858215711
29.8479103420755
30.212286527556
31.0518011797145
32.491779658336
33.5135914665937
33.3537406657831
32.6727544614208
32.9292208135145
34.7352084014052
37.2969611610285
39.6071026438081
41.7553170307728
44.602711440011
48.2717632756343
51.5068154859597
52.8327826577331
52.0748265383875
50.3254793446056
48.4758335405189
46.2700482313755
43.0771232871062
39.2534121282026
36.1924217691772
34.9382282186914
35.1741263019333
35.8996094997287
36.8570398255488
38.7885007851419
42.2024951654676
46.3518621649114
49.845286040514
52.1090462425947
53.7588111392804
55.4075259619369
56.5602013823222
56.1501360852494
54.0473144994037
51.5010902908253
49.8450749280888
49.105183074046
48.308038341008
47.0347680247037
46.0977133852277
46.3936116120363
47.4693009083025
47.7922107402264
46.4799718298267
44.2658547289005
42.4321028784932
41.1166885756321
39.239233766065
36.1369996123868
32.6909759873762
30.3623972110141
29.3555799821715
28.3586184507505
26.2811504436157
23.748527229157
22.3732799337969
22.7311777613911
23.7022149436462
24.0629853772788
24.2321863065555
25.8279493604816
29.5661155129628
34.2467025630218
38.1831265787266
41.2214157102265
44.7046670232765
49.4358920515579
54.3359303607698
57.5799580154962
58.7194167701098
58.9962995638383
59.4688230422521
59.4897479050575
57.6067221524001
53.6953054482916
49.440306964443
46.4505589225023
44.460721672008
41.9891538299521
38.5472674642662
35.3997503491766
33.8126020333879
33.1526675065398
31.49522405993
28.0644547309808
24.2938758034888
22.0287102949801
21.192460772376
20.0228402935147
17.5848990579619
15.1590398369329
14.5184734410316
15.3074563923576
15.1107450730074
12.35224649179
8.32819562814268
5.63973026016025
4.97628316621172
4.47567286792862
2.58421721115947
0.652722709049499
1.66224036620022
6.47890428562313
12.4127123670905
16.0471923737463
16.8228257708104
16.8606138487152
17.40637990379
16.6856267469025
12.0314910763638
3.38459214379345
-6.64060657182188
-16.3201644118052
-27.2258301560234
-42.1668948130797
-61.506638912018
-83.0816671745061
-105.923746374047
-132.138776525302
-163.119705351959
-194.269440428728
-215.963479100935
-221.575761699946
-213.745783902615
-200.540847425036
-184.954711872172
-160.437217354185
-119.220210900631
-64.4100796017282
-9.96461860175133
35.1742451153739
83.6030404619386
167.540019650926
316.489507074212
532.982907321705
786.940121424094
1031.34045447634
1223.83606161985
1338.50294754533
1365.78154699129
1308.88853643365
1181.67932461606
1004.64444880847
796.034583592987
563.964765776377
309.23063681601
39.0541150773121
-221.632640249382
-435.582108821357
-574.066047616218
-635.766319901946
-647.000320981318
-643.528436660224
-649.771483101661
-670.558715594976
-696.893817630897
-716.268913902655
-719.175780631346
-701.267486544516
-664.366351584236
-616.681960688847
-569.88504048849
-533.232362644139
-509.254443342825
-494.893673851701
-486.254142282575
-481.313292746152
-478.020575473607
-471.395675681421
-454.713503237542
-424.709429113726
-385.351123063018
-345.740201351501
-313.87195772077
-292.020210668571
-277.165418349199
-264.587892791922
-250.689878701847
-233.620108349359
-213.14271990183
-190.862996377308
-169.883314696979
-152.902659000242
-140.047673928634
-128.892716056351
-116.988583619575
-104.195275005565
-92.2002286113494
-81.9528938116749
-72.2311762545254
-61.041270783723
-47.9806103951647
-34.5906799577998
-22.3896290337576
-11.1914992797738
0.212746926485423
12.0777889025956
23.1082817309297
32.0066210949047
39.1004749283359
45.9366998875952
53.4095402946597
60.8361889204022
67.0615741541925
72.0266806147016
76.7479016209737
81.8500398442442
86.6891147764488
90.2348476667472
92.5071647891957
94.6542849362507
97.5934251094678
101.014516663569
104.003226519686
106.370533624745
108.891237406862
112.176439361883
115.746604752597
118.580247841425
120.422484576136
122.122770890796
124.560701245963
127.569840685748
130.235224206291
132.110026892985
133.719211930776
135.719648468612
137.887073688365
139.304919854071
139.508879940569
139.077430158746
138.909506632783
139.15681908852
139.185020986349
138.534002580789
137.542903580986
136.819774130996
136.326597579973
135.362726073976
133.498590404547
131.218599318195
129.416822816826
128.419565404477
127.822463534248
127.311936518632
127.306707603617
128.502559531635
130.900139923664
133.628093794753
135.845971651933
137.58089163475
139.424677483679
141.510820168279
143.136241676644
143.543770677491
142.855113196403
141.943771911439
141.41565363098
141.010069879471
140.162092368924
138.952962231913
138.199150305028
138.578332890906
139.929334148765
141.594055784848
143.302992806067
145.453859279679
148.497306945708
152.316702931056
156.421625768653
160.626719670398
165.241502881615
170.49834503338
176.000592696108
180.939499714302
184.776139250852
187.467731070874
188.977465840908
188.826110247763
186.406972765487
181.720457832514
175.541563641716
168.72257435057
161.465126122656
153.453061841275
144.616133801138
135.472001468717
126.569866104989
117.777583783975
108.393398907143
97.9919691500602
86.9426829054751
75.9540195018218
65.2563843124167
54.4806229316923
43.3457353386364
32.1998060914876
21.6788367063434
11.9490871889901
2.56676272563556
-6.83661811954086
-15.9496545733014
-24.0739482622412
-30.9484561551842
-37.0355702919522
-42.9122506907824
-48.5918457481453
-53.6802474907972
-58.1400561275666
-62.6057219910883
-67.7747049505568
-73.6293722341939
-79.4898181152693
-84.8272626395182
-89.7920147482684
-94.8123221196046
-99.8571013761633
-104.383309313169
-108.048773886549
-111.226624900218
-114.606525734709
-118.381110481249
-122.075088770671
-125.229509384486
-128.025516877251
-131.022202168901
-134.372401971735
-137.581714623665
-140.14762338685
-142.223178426653
-144.390825922184
-146.80656191048
-148.833779553796
-149.677404850424
-149.23426300014
-148.095067576789
-146.742279942837
-145.031517848879
-142.648109929921
-139.914967968257
-137.828912626842
-137.18783111724
-137.857821954232
-139.065673103844
-140.30085998805
-141.667540014788
-143.295054900665
-144.67008105303
-144.849417779069
-143.339918535414
-140.541457311026
-137.202761333405
-133.600176423792
-129.469274030175
-124.706476439121
-119.860877062645
-115.747701958943
-112.686838714973
-110.345022725974
-108.339408036602
-106.762328353336
-105.93159326409
-105.732963220049
-105.468237457878
-104.439353271291
-102.522908567829
-100.026673956268
-97.0953150339217
-93.5161942726687
-89.1876522832125
-84.5673453979701
-80.4139073906651
-77.0881730692993
-74.2992717934396
-71.6131943472491
-69.0372582093052
-66.9078275652651
-65.2682454112162
-63.6369472934278
-61.5505824689123
-59.1941669721452
-57.2512465984168
-56.1043348953168
-55.3865039440504
-54.4536916115868
-53.1517198930019
-51.8665107025826
-50.800151446035
-49.4632296652446
-47.1172847933752
-43.6499114994222
-39.7597038895431
-36.1888691763319
-32.9657789938421
-29.6075206778578
-25.9864398194986
-22.7044067178736
-20.4679426625344
-19.2686229069387
-18.4315027607487
-17.4626253709748
-16.5872442777524
-16.2822230731653
-16.4263863208902
-16.193580053541
-14.8471265456714
-12.4326562967313
-9.52152520126448
-6.40378215267793
-2.82070048487237
1.43085138564063
5.87344422191672
9.59384382732734
12.0992563498196
13.7160897775026
15.0560933494832
16.2779550952237
17.0959570934462
17.4555099410383
17.8969855175039
19.0599551528756
20.9546026003943
22.9682024315986
24.6190568411395
26.0874626119114
27.8528095121315
29.9508135679694
31.8580991595972
33.1573403544821
34.0780712809879
35.1660654255138
36.5059090874318
37.5417577995191
37.7661415317441
37.3917232564157
37.1245879121517
37.3314473855189
37.688622287767
37.7572422474202
37.6926671356054
38.1109772419604
39.260823937946
40.5981591864473
41.3622455092289
41.4432279854608
41.4379248798382
41.8421813693936
42.4479250230722
42.7254160756895
42.6557854157792
42.8773411630478
43.9222060601689
45.5400479325819
47.0094519951316
48.0407765529984
49.0907260523009
50.6826964465657
52.6397215022994
54.2475138572842
55.1222787114242
55.6136264204927
56.1936012245506
56.6534333710736
56.2182365629691
54.4858234755426
51.9823628132049
49.5976135431099
47.6208604585338
45.6208369243162
43.2911514658603
41.0909700745414
39.7734274891413
39.3873856446124
39.0842990250879
38.0411499727662
36.3432235342684
34.7034315188001
33.4153235282004
31.9489364215297
29.7446579518938
27.1463306313717
25.1873848320221
24.445324720852
24.4457914120723
24.4214204339433
24.4524872166719
25.4742169964368
28.0927694080195
31.7342171046658
35.2620757918029
38.2963118094275
41.5243960876741
45.5829497574645
49.9643213530732
53.4087326910694
55.3273169095995
56.4372919280944
57.7750421154321
59.3373468519187
60.0812936974964
59.2531391052439
57.3013988872536
55.1978509681915
53.0968833868533
50.1403250741709
45.7004032630485
40.436619142857
35.7591337096047
32.3727686638085
29.7768208631037
27.3154137006551
25.3004464999116
24.6355954480214
25.4143295951602
26.4248150549338
26.360732013414
25.2491857886292
24.2265402648494
23.9240763971708
23.5965114502825
22.1918543265637
19.9529059054253
18.3156862280728
18.0558050751728
18.0510973867363
16.4159411981486
12.7370728025034
8.59571992790071
5.64692646062381
3.68733358206035
1.25522368423665
-1.93587757372477
-3.92007408277696
-2.36950306865811
2.71653934618542
8.84260627846287
13.6154407005062
16.9012334556398
19.9302697191701
22.6663980205896
22.9707455245968
18.7132226919282
10.1161053053926
-0.675829292504915
-12.1455908597861
-24.7117339920096
-39.3324417916743
-55.8416035053398
-73.8045999939669
-94.6709895281209
-121.173698497573
-152.963396350336
-183.237946810376
-201.767362996629
-202.882604471434
-190.21164700375
-172.229640054055
-152.834765626187
-127.640964471986
-90.8651714241069
-45.0995155584314
-1.43278059978302
32.8942594230969
67.6680644165196
129.030734695961
242.798131398972
414.918005972437
624.683450884643
834.448229777894
1006.50230094726
1115.62161215555
1153.21521544655
1125.42539424898
1047.44158634685
934.531335355632
792.991577028084
618.467627852964
406.228106316761
166.760246447836
-68.4107657515699
-259.75847468623
-383.357947773732
-445.244426878805
-474.044426220341
-499.052535388205
-533.058461477026
-572.136401869246
-607.180311446043
-632.986293298896
-647.790478139641
-648.75689158859
-632.047622382652
-597.964786980564
-553.954811835652
-510.7470013394
-475.626708574271
-450.217469415754
-434.013685112528
-427.521935426965
-429.950450963762
-434.56070132114
-429.33997617219
-405.145629453586
-364.105663224776
-319.255625618477
-284.871161717719
-266.365753221609
-258.601330014755
-252.555385920026
-242.683791634632
-228.642781500389
-212.229502405154
-194.636708482726
-176.610162073019
-159.511534676882
-144.699229462594
-131.905695611955
-119.244954995783
-105.350773075094
-91.0495092625306
-78.3370280798694
-67.8842398392034
-58.2385185716586
-47.7094700731054
-36.4778225968544
-26.2457215311996
-17.9836145812292
-10.7535862476633
-3.08281285167353
5.01327934759804
12.0590922485297
17.1425054916733
21.2444012844846
26.1199051799002
32.2020263649885
38.2599526429537
43.2187522441684
47.7190929610987
53.3642319688682
60.64767554562
68.2743807104231
74.7546970689941
80.1901650260928
85.9459941771185
92.674901642747
99.2891191355907
104.21727570731
107.310771342102
109.948459394584
113.243094326243
116.68029312654
118.895644287016
119.501617380711
119.570762274012
120.20404361764
121.116066835627
121.093058601275
119.696660938473
117.985372677444
117.357601943343
118.067231124024
119.308140311136
120.627142243613
122.683194080353
126.307859278366
131.137432763331
135.681604323843
138.794037967427
140.661487334755
142.083857648391
143.088414010754
142.779274611672
140.634386987708
137.485955362187
134.80029474308
133.120659269143
131.671770641431
129.625240668633
127.353564951071
126.021692340372
126.06052232169
126.547521915866
126.331557089121
125.441961843779
124.941184142974
125.423038361942
126.141331416149
125.93028313562
124.726075759895
123.704142306437
123.850590360632
124.821394827943
125.54735121843
125.749662664513
126.355064569864
128.270412573551
131.142531964518
133.740232331774
135.453121266923
136.939112594349
139.090587571175
141.713003888805
143.680008567277
144.36314810119
144.43576359044
144.96698505483
145.977775413811
146.350091605435
145.211768704943
142.990846784058
140.77850664987
138.863540993976
136.37058652238
132.450963649489
127.413016968966
122.268896672443
117.294031946759
111.53221433617
103.951944999923
94.778590773851
85.2733813320875
76.2511225446857
67.2691777227606
57.5206409920876
47.2096142753632
37.5489211700794
29.3437368451546
22.0075147699786
14.31441871571
5.93033348779858
-2.24811225709185
-9.3526023178511
-15.7224803726405
-22.4555880842153
-29.9394623937744
-37.3114204072468
-43.5616967127865
-48.8235754516754
-54.1498639460544
-60.0704971637469
-65.8275264851211
-70.288875243447
-73.3420024321652
-75.9595290917667
-78.8920331665323
-81.735529883497
-83.5877869407592
-84.3832739297482
-85.1057867308166
-86.5854750493148
-88.4734645453046
-89.7487576629441
-90.0821633040355
-90.2674434206508
-91.198830524173
-92.811554820518
-94.4138530853812
-95.9219321019697
-98.252976819008
-102.244858333689
-107.477278522245
-112.563692472793
-116.565974573266
-119.698095519005
-122.438566892975
-124.322471042876
-124.151479691138
-121.468372133713
-117.380103997594
-113.565781641476
-110.651067944867
-107.988589064884
-105.074557448643
-102.689793971023
-102.203007561817
-103.896401059267
-106.503493996924
-108.613316295854
-110.171883124525
-112.172530117323
-114.976850245703
-117.490036697115
-118.296890057126
-117.3025649285
-115.761905088725
-114.680253651158
-113.673569041789
-111.736526160338
-108.841928652681
-106.209936341867
-104.858181332568
-104.325879192052
-103.247502070119
-101.028910050411
-98.4495118355843
-96.4538750346497
-94.7886054101207
-92.319852329023
-88.6071697315036
-84.6167442830027
-81.5835316979562
-79.4890441556161
-77.1494199849778
-73.7970261543996
-70.0765416505654
-67.1608565905521
-65.1852525305588
-63.0955769949482
-60.115635445074
-56.8693344991322
-54.6327557458746
-53.6713647398572
-52.8512297689723
-51.0504196752392
-48.5261912018203
-46.4556332978393
-45.2880913897572
-44.1206594264914
-41.9394039248642
-39.0671946048783
-36.8531803700609
-35.9591801065726
-35.48031079223
-34.0700570913503
-31.6098815279631
-29.2444511080259
-27.7606015007951
-26.4782192926702
-24.140676475406
-20.6302861800462
-17.2162020911225
-14.9670442256637
-13.3964572975583
-11.127520994469
-7.71490247511144
-4.24121071289586
-1.92267043368543
-0.583460823981987
0.984779415839329
3.28067795429849
5.32216529894457
5.91717475183015
5.3193774890618
5.06587864415421
6.17335792664916
8.03239358500337
9.41330550645813
10.2006278386974
11.5201258222255
14.0879376003531
17.0184963576849
18.7542424720633
18.9587629508508
18.893871942415
19.76852375227
21.2212950128324
21.923586459544
21.4735597743137
21.0247541593184
21.774836872768
23.3177826425631
24.0963789689435
23.4237404156897
22.4260382623813
22.6359118136891
24.0591617048581
25.2520141909354
25.2990106986032
25.0549691188624
25.9762227677666
28.0782979824068
29.7625407297045
29.8111287025821
28.9584461159638
28.954040897461
30.3166359753953
31.7148684614151
31.7764225217267
30.9176970193663
30.7551804630571
31.8764765826722
32.9581356223069
32.4585235554276
30.6838760082066
29.4822934170432
29.9313056726624
31.0513450152387
31.2383477464837
30.5005537436615
30.4977808967939
32.3032711141822
34.8834643028424
36.3939694923391
36.644038131111
37.4538577426186
40.3532882259562
44.601654888874
48.1439658014326
50.2636636963786
52.4202832405505
56.1334658703159
60.7131303990356
63.9084230830533
64.7133631413241
64.6574690717331
65.8272814441516
68.1555169390986
69.5173628768723
68.5023811607683
66.1956722122941
64.6058673198542
63.8457288426916
61.8804836123243
57.2748897470368
51.3317657414025
46.7245815616834
44.3367634986262
42.4389297322061
39.2777402023654
35.6034352584962
33.7009053742017
34.1642932180714
34.7787937934031
33.1770558367922
29.8774483567302
27.6454885091604
27.9052761439682
28.9071359087421
28.1391321718906
25.8221039490127
24.7440317934966
26.4690341191212
28.9057828215691
28.6574087149236
25.3059841575265
22.0319619763073
21.5959634035179
22.8489212952379
22.4362608546138
19.6033771767306
17.7535496569152
20.4423424769682
26.7879895796522
32.2660346180504
33.9915023777915
33.7031442592531
34.5841560690129
36.1588804624211
34.1509854038937
25.676796412266
12.926157742416
0.271006398766815
-11.5143297343428
-26.1292328145194
-46.3357897032117
-69.6112199529835
-91.2845009705487
-111.390458734428
-135.370735541677
-165.899122915996
-195.430201270637
-210.262651235678
-203.561771444198
-182.551859538808
-160.230244741138
-140.11099889869
-112.064759008044
-65.262800746276
-3.39509347540971
57.3503693048333
108.307070219128
165.340370369826
262.335811394557
424.106389960031
642.910549294062
879.266935103619
1084.3878442412
1223.62833070125
1284.4720448849
1270.13552818324
1190.39869169454
1056.84845519846
880.879990055193
671.751078463646
436.992806987751
187.856455152352
-54.6102592196993
-261.905558025045
-411.171315862258
-499.024389932171
-542.884365786143
-567.844863832606
-591.055105431661
-616.648191784481
-641.88884282676
-664.211174879899
-681.278620517886
-687.369109073603
-674.534923803948
-640.023534560524
-591.933496286097
-545.532866274731
-512.792200387472
-495.172451144363
-485.802321415172
-477.077546244891
-465.378065339363
-449.954568772843
-430.21493838452
-405.891101826944
-379.026011664246
-353.679377209084
-332.645417021163
-315.110217826787
-298.353503608362
-281.333267458309
-265.478723084158
-251.774526982399
-238.282074649138
-221.792426839828
-201.801965017771
-181.670305382598
-165.15980023722
-152.385474883152
-140.040965457657
-125.502103614383
-109.716474569746
-95.5209704774456
-83.8184724884359
-72.510109168848
-59.3134346148992
-44.6521565061287
-30.9625542851298
-19.5320235226277
-9.05252839517956
2.3778367297993
14.6081415987852
25.6347997650303
34.279598314874
41.7594372284951
50.1246038122999
59.668789606499
68.662440339933
75.6335544139484
81.1409734695193
86.8009581839713
93.0037185487495
98.3973184583942
101.768788611681
103.76740490727
106.183633107078
109.755598594102
113.370401377757
115.629407868519
116.654206896485
117.793445858406
119.729685073261
121.563328515002
122.074065317041
121.444702308453
121.150249943939
122.165746782024
123.835914957799
124.823710310304
124.819419244757
124.775280946625
125.461408137204
126.350544827551
126.32383065988
125.218694218708
124.134079151947
124.08936839966
124.807183694108
125.177097629319
124.707755412692
124.017361185783
123.777341281675
123.621780618604
122.550009101275
120.303453236571
117.865706413385
116.397836794192
116.002922740747
115.924683571189
115.856793787772
116.560984809265
118.93467886659
122.762781807807
126.832497832962
130.289510094778
133.463748645207
137.088255866295
140.959139877299
143.831941937201
144.736041152682
144.039000963117
142.926467190199
142.019827691705
140.930701458875
139.267779762449
137.688532256873
137.545146221628
139.528065865978
143.010185804277
146.870444210106
150.689147323719
154.82478488985
159.428648055937
163.832162995306
167.160968306911
169.337326088059
171.109804449544
173.057120357321
174.866985327672
175.792078628885
175.607797808964
174.767327293692
173.583495254241
171.605407504669
168.092202053
162.983196121092
157.054655465432
151.002963265137
144.612359356582
137.068324353967
127.992952428162
117.865507823462
107.336868563157
96.4103422064911
84.6099164358575
71.9197692430712
59.2409408883259
47.7309093459355
37.8281247757587
29.1300494949558
21.1549410686847
13.9137705339744
7.57900275459467
1.80996590658843
-4.25049687283794
-11.2322144626522
-18.9978639959842
-26.9877392377243
-34.9543450351077
-43.1121365318845
-51.5699705087114
-59.9046460997322
-67.5188801206976
-74.3146833623526
-80.7424227015176
-87.1191103842086
-93.1195580088737
-98.1412917980394
-102.07556771409
-105.455113416527
-108.771776400278
-111.875385793598
-114.269050596225
-115.912396966548
-117.439345706197
-119.4549344974
-121.808801766929
-123.807027739559
-125.110727428303
-126.170748985478
-127.652642425442
-129.620735142605
-131.543657961212
-133.078926028755
-134.562503719714
-136.534398971127
-138.924510292626
-140.982871576069
-142.061139219654
-142.24254579891
-142.041599043885
-141.633259178391
-140.66430152001
-138.871493485548
-136.61643739623
-134.554416569081
-132.838938190748
-130.92289069544
-128.248866234253
-124.942748137611
-121.61647300553
-118.569468599695
-115.47540176903
-111.979956744383
-108.39325270876
-105.503184960181
-103.693372977574
-102.493646210475
-101.159548097234
-99.5553492221171
-98.2358925368696
-97.6764216328555
-97.6908273435719
-97.780167490697
-97.8885084655066
-98.5040944238572
-99.9351461001929
-101.706864200117
-102.879517527167
-102.885763617462
-101.836578687534
-99.9951635597626
-97.2322015985752
-93.2500778362415
-88.2535924037109
-83.0790477626059
-78.496810856004
-74.5333358151382
-70.6752230254747
-66.6700894345315
-62.8589505414216
-59.6208212305139
-56.7245224748847
-53.5243283073365
-49.7924215224037
-46.0814995849922
-43.088574229232
-40.8083159040055
-38.5674522093085
-35.8924314862507
-33.0764621797623
-30.7231315010163
-28.9109921452729
-27.1239543491761
-25.0505370679401
-23.1602392361104
-22.2292372489027
-22.3819444276869
-22.8858307555298
-22.9719318198407
-22.6176104885885
-22.2964842256887
-22.0882089027076
-21.3980245479695
-19.7079834832483
-17.3652783492761
-15.3114845071145
-14.0354865679536
-13.0728696516323
-11.6804989736122
-9.78798522795616
-7.98735341596484
-6.62125010730977
-5.23773469727088
-3.17958304884272
-0.530781988013558
1.87400392923371
3.44491094576927
4.5568298372383
6.05267244599401
8.18572363463278
10.3887728810791
12.1378165880221
13.6970748259776
15.6873351274356
18.0303968416084
19.7314704763785
19.9061705763362
18.7990885931251
17.4939480654629
16.6938882513028
16.1576284118226
15.4950424788955
15.1940700646957
16.404427903191
19.6441987979155
24.0775724673059
28.3468614148234
31.9516589128441
35.4528089243644
39.301998724027
42.8838546971291
45.0627270181852
45.5292945798282
45.1687195623575
44.9461699537737
44.7587771952074
43.7579912186761
41.7164617112583
39.6329630170081
38.7585364862628
39.288224324476
40.3835725178467
41.4252151058562
42.784124472959
45.0762472627561
47.9251782894789
49.9572467904795
50.1480945239207
48.846366292071
47.1972475086605
45.7594135984223
44.119263162156
41.929355925429
39.8764964434706
39.1818297683326
40.2213530724677
42.0757832391377
43.6300680031937
44.8130672954463
46.3974628541765
48.6984950810552
50.9591712929164
52.2545424734662
52.6733883782329
53.1389589373789
54.0659108693734
54.6578841467949
53.8378682206248
51.6186240886387
49.0926406767944
47.0372334254765
44.9908323485935
42.0465349462299
38.2965369446107
34.9382522039772
32.8137354052544
31.2949222884089
29.0576246984165
25.8152635844528
22.7643492198187
21.1336237544193
20.7176531249085
20.3124830288613
19.4554387582717
19.1148613349284
20.347920517959
22.6772926530574
24.394935653767
24.5055989607684
23.8334808778865
23.8627600938915
24.8422598237847
25.6518560713773
25.5802213551704
25.5818730880733
27.2252366753014
30.625639685769
34.0988976448269
36.0855853963667
36.9028490010027
38.0550953411299
40.0224201624372
41.4683166018225
40.9490760405806
38.8699195865356
37.0458619849176
36.3723011947053
35.6639140578084
33.2500283028111
29.285864183376
25.7417176149454
24.0496723621999
23.4778349884874
22.3521597533069
20.462463319982
19.3898213359184
20.2618758504988
21.9408157788427
22.1705186762004
20.2910967033386
17.964543345924
16.9192909214247
16.6894039054196
15.3726939516858
12.3798393413497
9.37552068625271
7.96275306520847
7.14193213306275
4.13696258981287
-2.1823561653232
-9.66818716311494
-15.3245954815797
-18.7493080086122
-22.0359966923563
-26.1677514314421
-28.7521951348814
-26.4804470136243
-19.4998127459722
-12.0086621666812
-7.91146111759614
-6.75613557457501
-5.06908490116378
-1.41438803248434
1.34860665655154
-0.383286577245059
-6.14886330412014
-11.7217767164437
-14.4131387954113
-16.8061009116319
-24.3355828027599
-39.9930111971547
-62.7736822840553
-90.8555955511969
-123.675576445444
-158.82709513877
-188.190414783693
-200.96994718019
-193.232706491027
-173.46493228176
-155.66660883215
-145.529568408941
-134.852555465089
-111.229208510469
-72.0185985003106
-25.2288485323012
25.4308202440395
94.3558224096836
208.585030224756
385.2861967627
613.612884122321
858.322479639748
1079.90254549133
1250.70412630128
1355.14846105763
1382.21536584646
1325.0881731252
1189.20519420914
995.267020104435
768.263691219854
522.347530841856
259.805798999882
-12.5536605818258
-268.260084488645
-467.835645633574
-584.984312498559
-627.455115083136
-631.361693439232
-634.170157937594
-651.773619968567
-677.952518563481
-700.192574085879
-712.112321356656
-712.431995628357
-698.515664978575
-666.772944160059
-619.937689279608
-570.230775044642
-532.010573265167
-511.044277588444
-502.147216224479
-496.849874971126
-491.069228276884
-484.153901378325
-472.747077027616
-449.788844841619
-411.832504703519
-366.000163757207
-326.761927126871
-304.241622738021
-296.00323079265
-290.783298126757
-279.57886049271
-262.219077293657
-243.869643396311
-227.437518309779
-211.020724739935
-191.974606561048
-171.17336098265
-152.045484325615
-136.364420189041
-122.602542026733
-108.62770312265
-94.6925431917446
-82.7110600576124
-73.1245348084412
-63.8497594502018
-52.7946032748465
-40.5267263473838
-29.4804923859104
-20.7164633385491
-12.4762130299389
-2.39178179893754
9.55011005669621
21.0896526113054
30.6099187924615
39.0672634626726
48.524362958231
59.3034563599766
69.4422526712179
77.0331407513629
82.3425304345798
87.0751531858924
91.9554785178989
95.8863901221531
97.7108802318252
98.139524790108
99.2582755639898
102.255098403629
106.286742770579
109.831161868609
112.638753874322
115.762472138376
119.811909269984
123.91396101959
126.818014292814
128.649873879593
130.931750384427
134.781721805611
139.598316160996
143.872626804182
146.980511418057
149.594170920129
152.270787601747
154.230343431573
154.068339438445
151.542696058428
148.096067446815
145.380012595575
143.62192867845
141.849729863972
139.562061642019
137.595463040307
137.068178881358
137.845497828515
138.596660932159
138.406541629562
137.855651159795
138.170940932636
139.555167858121
140.848023151046
140.923359101511
139.995289775627
139.186699105079
139.016457236296
138.847113499439
138.016316964014
137.121362184113
137.699594589491
140.628100395923
145.226191988409
150.137173728287
154.802891687722
159.666623062284
164.976449069934
169.899584994812
173.206803002241
174.679959486307
175.412378931736
176.583237424288
178.233532749755
179.529862234662
180.067655162653
180.473095222838
181.555179414698
183.18297211939
184.395677812187
184.602379607513
184.290961770909
184.314319502683
184.677240041806
184.379424852404
182.487363773987
179.046174135633
174.720086599854
169.744380245052
163.633876937054
156.025036759012
147.485584822444
139.153201458835
131.606217306558
124.37894595607
116.695349554213
108.432569462883
100.090861430452
91.9102196389577
83.4050328365234
73.9956115773426
63.9089227039806
54.1152287494069
45.3095094497643
37.2003252610813
28.9824305995688
20.35074113602
11.7509350622191
3.60622450283381
-4.38270153930537
-12.8852709428988
-21.9809522485301
-30.8769237220192
-38.7307132908651
-45.5704188031723
-52.1717763137282
-59.0882148932431
-66.0880793505132
-72.6676080406314
-78.876329592947
-85.3033293266734
-92.2222009234674
-99.0440599292564
-104.853561929748
-109.392687876751
-113.265184834422
-117.136015602816
-120.979110555657
-124.314996953313
-127.046582223085
-129.715775551173
-132.797848757297
-135.964634900304
-138.334319835641
-139.455423543893
-139.806929204218
-140.204299475345
-140.89297290009
-141.475853732984
-141.698534621245
-141.989371702732
-142.995919967932
-144.710062519378
-146.347889567119
-147.189045997295
-147.340205319462
-147.485642012325
-147.987464194566
-148.501221108473
-148.551387545005
-148.239440623542
-148.109931177553
-148.350077329289
-148.408201375128
-147.578522758579
-145.826921441191
-143.80623339788
-142.059237428427
-140.448621720008
-138.521404596032
-136.263942936446
-134.196018676436
-132.657661815698
-131.251116988049
-129.228602414974
-126.375703355025
-123.266829728413
-120.56421552642
-118.262555402217
-115.833542202569
-113.030767342991
-110.249738233786
-107.943927816366
-105.876541695581
-103.242948906114
-99.574357802749
-95.2952426089241
-91.2248080696067
-87.6557550563535
-84.166620217579
-80.3508301375361
-76.4549032402728
-73.0662863806102
-70.2724413345607
-67.4341263169499
-63.9238037928741
-59.9124559231282
-56.2081518540591
-53.3619453404872
-51.1749136388295
-49.1757143886418
-47.355261413362
-46.1403552655094
-45.6476586300522
-45.2581091262675
-44.1499652862859
-42.1532230530594
-39.836941210906
-37.7271019597934
-35.6795757180516
-33.2059478330843
-30.2659258526287
-27.4084838771459
-25.021538771038
-22.6827151610359
-19.5351041825435
-15.2883867877807
-10.5942802059479
-6.31312800350119
-2.60623979422138
0.992099269479768
4.65324218678262
7.73579847946399
9.40723152210922
9.64447467437404
9.323947912014
9.25791449984853
9.38141689911373
9.0960796163248
8.28883671741371
7.69116498494947
8.11991688531771
9.59059206279002
11.4350178043217
13.2294313792879
15.2961752782931
18.1354757497362
21.5677979393536
24.7418894243026
27.0129569876151
28.5547745391261
29.9397752323428
31.2896774573778
32.139541603938
32.1646089337735
31.7379866831105
31.511147797409
31.5438049379975
31.1588478421695
29.766210298739
27.6091935065679
25.4668777949047
23.7171366318439
22.0126873477986
20.0013970346153
18.1033854238796
17.23875360879
17.7781628423219
19.0575562359568
20.1168890297853
20.7472104145906
21.5255503782202
22.8370385601081
24.2095721814466
24.8672449321753
24.7815077006207
24.8095027619013
25.6891697736687
27.1741428784893
28.4345112305164
29.2019347048876
30.1567916277426
32.0455886466058
34.690656526888
37.2028976873908
39.1186557117692
40.9446955661077
43.3630178588809
46.1321017604831
48.1650749482913
48.7483522346036
48.3577169358578
48.0259789381133
48.093148449515
47.9702754051202
47.2047285695014
46.3996372222655
46.7058281607568
48.4798920909867
50.8318709519537
52.6653729244651
53.8859693359049
55.2431500799762
57.0637094401937
58.5839058760939
58.7872029365325
57.6537558539926
56.1665903756345
55.0492152058675
53.8864688335696
51.7822698395619
48.6779929019476
45.5743483635542
43.3470049573814
41.7177041061038
39.7494781753767
37.2093421732453
34.9653054157745
33.8473392261586
33.4629126741505
32.5744497658155
30.6128326702004
28.3765943598037
26.9933451253907
26.4938835779775
25.8819668838078
24.6325521097551
23.649720100567
24.3759570487682
27.140976848579
30.8450633859833
34.3529591107005
37.761774305519
41.8950433532876
46.7197577919186
50.8071687224814
52.5936310010797
51.8470048324357
49.5025640706851
46.198998813308
41.5316532862394
35.0107207857214
27.3625416054688
20.3099041320448
15.0058995110484
11.1375931384389
7.85050347946613
5.19984791882231
4.11702391097228
4.92033388750838
6.4728726927552
7.3210949579131
7.45183836496361
8.30951963541388
10.9084506965397
14.4501156439644
17.3092574466125
19.1351583073967
21.2169009178759
24.4603245886202
27.5792139463956
28.0623182165222
24.960524262552
20.0339702446777
15.7201090456657
12.4421462501602
8.71909192105613
3.96813920143518
0.305305397521693
0.770205968539585
5.95647506499535
13.1991238371047
19.3566706112496
23.7371566364293
27.6284818340319
31.3328498343743
32.7928136091609
29.6641878459217
22.0148542956981
11.9688661068176
0.768495837643968
-12.7240866407093
-30.0789469618638
-50.8615877817454
-73.5716987718725
-98.8692847927045
-129.764980975427
-166.558797683008
-201.895997185133
-223.400807086133
-223.535361209714
-206.858700950898
-185.817415051311
-168.282951954247
-149.971239006804
-120.26367873669
-74.786367806528
-19.5349103731349
39.8609363917545
112.810258153742
224.919419073791
400.510514280572
640.031843745555
911.578508012349
1163.30508981304
1346.3822581082
1432.52718718569
1418.231960189
1318.53735042913
1156.81895497545
954.826968888956
725.854172679359
474.676908538912
205.757812749758
-65.8326325648327
-311.456653216106
-499.74962051522
-614.458367492653
-664.492050371584
-677.325369710782
-681.483306193088
-692.405031755175
-710.564261100344
-728.48583112506
-737.570825903309
-730.616417413084
-703.175023214149
-656.968785577386
-602.594970965062
-556.076730048417
-529.338620355069
-522.241257217536
-523.756609725229
-521.268478136066
-509.145856132618
-489.284994287781
-465.16870833606
-437.115768210301
-403.564704730146
-365.658956238447
-328.972566993558
-300.110381213753
-281.813232251146
-271.394193157951
-263.359703860254
-253.112697989878
-238.72010194102
-220.552921249738
-200.317064616345
-180.262756274522
-162.242597987628
-146.647663395681
-132.201322099396
-117.197640410511
-101.153382436357
-85.1539689428636
-70.5648552171033
-57.6495844578732
-45.6452029627825
-33.9953383261543
-23.0850009057412
-13.6109046625439
-5.52543644605787
2.03678466435921
9.80855128923348
17.6996173623153
25.2216260154887
32.3651862429185
39.7043000422016
47.5923843712325
55.5501188589969
62.6913183274324
68.6672970813988
73.9521957852366
79.1707005860636
84.3855940738561
89.2338419410324
93.6332890608481
98.0529877114661
102.973672409908
108.264130151643
113.30269059372
117.686775654504
121.627719753796
125.57578367794
129.617279398594
133.414737125622
136.683180734231
139.49747822172
142.018499263493
144.057342289245
145.123991793583
144.946813977776
143.816333876181
142.342425673829
140.970489097379
139.856741379443
139.151180614765
139.168566660606
140.119239625149
141.735350148041
143.332816534206
144.303539943553
144.474795293273
143.95691298824
142.771708447361
140.804633485712
138.128206213965
135.195023849049
132.556132933616
130.416416315259
128.596239966066
126.959443187962
125.758733097467
125.453562258096
126.240406422265
127.896361267279
130.102915821618
132.775511065506
135.934790283499
139.300722711454
142.203388501294
144.022769477306
144.686441898274
144.662332348508
144.500624996292
144.49975385395
144.836251558155
145.849059977116
147.975504532762
151.340657919839
155.515427874288
159.790388946803
163.680841721562
167.108098207113
170.130155886068
172.645778959174
174.460441464348
175.567270326941
176.197449079276
176.52381194712
176.398052195613
175.489092509471
173.679934656312
171.245865400201
168.611632402185
166.000058016706
163.373747131684
160.649563939059
157.813335942002
154.738957478206
150.963148973455
145.777313407592
138.625159018062
129.42617482166
118.541394094982
106.50540545605
93.8419091346862
81.0638116616636
68.6801539000505
57.0674033946863
46.316792883261
36.2549066051255
26.6326616177856
17.2845247556687
8.14202064289967
-0.799006922706816
-9.43661182436738
-17.5205124474187
-24.7736377173438
-31.1431450324785
-36.9157130591726
-42.5270434976368
-48.247912029315
-54.0858532881352
-59.9709299023512
-65.9336149822121
-72.0152243668611
-78.0463424155361
-83.6535433136987
-88.5797338071751
-92.9689708660806
-97.2565990171419
-101.766194431819
-106.465667800934
-111.121139158553
-115.587285650737
-119.840319401778
-123.757725298983
-127.029425976278
-129.420905178168
-131.108406065201
-132.647116154311
-134.554925061073
-136.96237568328
-139.683495035618
-142.528756072416
-145.41201060133
-148.143110456999
-150.275346082802
-151.334608611303
-151.238030787955
-150.408053409811
-149.423326681381
-148.59802738226
-147.935584706865
-147.404323995282
-147.097498581626
-147.064523839381
-147.101947687135
-146.872515046301
-146.265399923983
-145.547316992131
-145.093808319327
-145.023165919427
-145.164845236853
-145.332702993737
-145.473869024246
-145.478347982417
-144.965438424204
-143.454824907513
-140.812499335384
-137.423132527151
-133.816359757175
-130.155248300122
-126.189596543294
-121.695091508724
-116.801065451975
-111.774909019425
-106.580633144443
-100.870300413128
-94.5167790063334
-88.0491397090497
-82.3986726406301
-78.1847125254169
-75.3302584676462
-73.3803964313266
-72.0400794842227
-71.2488217035653
-70.7952801646583
-70.1160951716645
-68.6692581454024
-66.4702881882388
-64.1065467687155
-62.1738374550648
-60.7864408706356
-59.6762662446833
-58.6220074245691
-57.5763613094745
-56.3650379162785
-54.4936039971086
-51.4853619277072
-47.4206937989946
-42.9896007159075
-38.9335308015659
-35.5188173132015
-32.6272079255137
-30.2292115827969
-28.5176166148638
-27.4887108431617
-26.5853179104626
-25.0161154508472
-22.4846654880113
-19.4552633545229
-16.5990232994264
-14.0788247145778
-11.5272948733346
-8.67231168144091
-5.73457494304107
-3.05440856523295
-0.467797680689337
2.66745027498227
6.72731421588356
11.2620718550889
15.3470124027656
18.443098244971
20.7422658844706
22.6526200350028
24.1698305325579
24.9631175379715
24.9985484345445
24.7832904136198
24.8275662462485
24.9960721215642
24.6140511547068
23.2339760585146
21.1224062892463
18.9098190532944
16.9385323877544
15.1860579773158
13.7915723385144
13.3406821316424
14.372986408917
16.6710730907668
19.281920877244
21.3364567681325
22.7124820221919
23.7896875604475
24.7223112020449
25.2495806318326
25.283326769415
25.4033441480193
26.4610771574408
28.6819884700879
31.3868977697016
33.7172862705555
35.4834809736527
37.1194625646096
38.9047314548076
40.5447227561286
41.6567770723647
42.4344778751316
43.4915252737975
45.0058857735695
46.2930376307604
46.4440223220059
45.2849277931617
43.4840987690286
41.7483826841835
40.2314284272239
38.9298738663311
38.4215715707682
39.7445729584341
43.3450056328102
48.364917245265
53.2511256283102
57.0282160522731
59.7237293477565
61.5352783861808
61.9808604489682
60.2811060894468
56.5272426240683
52.0254599725671
48.1838759767924
45.2160971783189
42.2632714172553
38.7760559170244
35.3933539390133
33.2116428568389
32.4339651286595
32.1902122938029
31.7622990157918
31.5658201138007
32.5310240332093
34.6448065137231
36.5805080395565
36.9826622211222
35.8345545990966
34.2224176031842
32.888651358281
31.5118431819667
29.622813950221
27.8244356299033
27.5222235402633
29.349140223871
32.2821197343146
34.6540160179428
35.8424412721691
36.5390401447584
37.3564627655319
37.7018053055298
36.4648344994563
33.6171186319391
30.5388033263835
28.5190973452493
27.3040780847973
25.574379525239
22.76025679432
19.8675201533734
18.2830864884803
18.1637048254612
18.5179642202998
18.8058387726028
19.8417683149033
22.7214243011421
27.1700695563529
31.5514561814626
34.616324730809
36.7568989598486
39.1672378599663
42.0796399432298
44.4600711035164
45.5469857054964
46.068173876859
47.3398490207967
49.3323900201556
50.3251662016085
48.7933434551271
45.1969547869789
41.3610292685952
38.2493397616009
35.0714456341315
30.9105193328275
26.6416800737096
24.3904621277914
24.9989485240034
26.7492791113683
27.1581650829441
25.7128003023045
24.112797098598
23.7524757817286
23.7747162420638
22.2980973509881
19.2085386635465
16.7197790649866
16.7327484103294
18.2750282523632
18.3733094958702
15.3651436601756
10.4964854348111
5.8617723133242
1.50834330724547
-4.40015079485318
-12.5549742293838
-20.6894476677956
-25.5527801985645
-26.2446207765401
-24.6331802467553
-22.4384366744385
-19.0502355930798
-13.1705008257526
-6.05869721694069
-1.66606765421278
-2.93199975772353
-8.91148504580997
-16.778146704641
-26.3791128277878
-41.1601570002761
-63.5596494791189
-90.4539417860007
-115.094721206193
-134.233045646251
-152.033069215596
-175.257447576302
-204.333624201988
-230.195392824609
-240.585916587672
-229.101273042236
-198.029261043001
-154.088059606302
-103.871918483652
-53.6028232723792
-9.53987684874252
26.7435704046628
65.9833974174956
131.636046607435
247.154255748003
417.928011061936
623.459144410951
827.096003104428
994.601438766945
1106.28216667102
1156.46256770922
1146.96369332568
1083.35545372362
974.352221320908
829.123529273123
652.412441493595
444.932070491555
213.373244092728
-18.6145178409896
-213.672826645401
-341.881069610002
-403.500976560552
-431.046489534495
-465.738597898364
-527.687827522069
-605.178532413414
-669.902146861335
-701.371395985955
-698.633365843139
-673.382833230507
-636.637376509871
-593.210219216552
-545.898443517037
-500.674367979432
-465.835211474746
-446.879200198464
-443.18908159457
-448.961681877579
-455.941535526565
-455.62115229826
-441.582538630383
-412.767162687477
-375.261612889141
-339.226450439619
-311.95768609473
-293.066183341402
-276.567299516424
-257.65148111629
-236.990156750948
-218.514314851172
-204.06726465468
-191.372155244476
-177.139131396703
-160.911861654209
-144.948955746299
-130.839084286157
-117.510929588263
-103.048664142192
-87.61391179692
-73.5042373269955
-62.314672042841
-52.9532599522938
-43.0338682100206
-31.7529599844265
-20.572789024121
-11.0361628148598
-2.73403683462638
5.94341692466582
15.408978561974
24.0874962323595
30.283981206915
34.2689106984984
37.9217037790953
42.4830986149248
47.3322943505004
51.2300239779261
54.2367009542498
57.7677369849478
62.8157634334558
68.7598642973996
74.3031995706442
79.2290366364895
84.6427711954758
91.4272638738496
98.9670713577887
105.75502954908
110.988703058144
115.059717724784
118.442636818998
120.653383240018
120.778034528562
118.878824679088
116.358096269234
114.727475737488
114.321456533786
114.519100253336
115.011142535425
116.315037721986
118.856786467978
121.952188407242
124.195638215095
124.867235635445
124.562855892254
124.243078329605
123.97164930274
122.997423332231
121.009555370211
118.809991149655
117.441019668077
116.930480920562
116.402211662078
115.490679024586
115.167850484611
116.739345539455
120.165296308817
123.888205775312
126.544828775759
128.506103163247
131.265889033606
135.320030795831
139.12289416417
140.510293323383
139.036345498059
136.550835819596
135.381272592639
136.198179481949
137.835752303525
138.955399731259
139.443552982563
140.082250403706
141.254198358274
142.440184732262
143.021095879219
143.204549110332
143.873569329946
145.622894782705
148.21513583006
151.017732453991
153.708928978976
156.334256234071
158.780727569109
160.506835393178
160.944152704736
160.040529623163
158.238081157356
155.944294026121
153.183138098516
149.795162181426
145.79695705033
141.35998164535
136.47744360498
130.86320403269
124.303229447774
117.023128493207
109.569767985739
102.334504749655
95.3169161157107
88.4004083728508
81.7255879918721
75.6259804423846
70.194662254185
65.0682506660739
59.7510077167321
54.1000307619968
48.3734090558901
42.7913183630673
37.1640927669422
31.0358763084259
24.1394014919504
16.600341613422
8.69033120384471
0.500301362980125
-8.04094673837366
-16.8627378095356
-25.5880445198472
-33.7333530225054
-41.0380984460461
-47.5640696243229
-53.5196561099961
-59.0652512247668
-64.2847542170621
-69.2393499083805
-73.9484980888723
-78.3218925924761
-82.1844385527179
-85.4101694973415
-88.0157135332145
-90.1245942435373
-91.9128361187446
-93.6672998101942
-95.8702473155333
-99.0888009401005
-103.647840212119
-109.378100596338
-115.718853862768
-122.070738669839
-128.006725596395
-133.147322376928
-136.959966685604
-138.863307177398
-138.621974523448
-136.5980674592
-133.534693132695
-130.077431338127
-126.538978349622
-123.10479940551
-120.144071777875
-118.18770011322
-117.573424623242
-118.17824642492
-119.549060497627
-121.26592094296
-123.126317278813
-124.997175228543
-126.588449451167
-127.461415307303
-127.270089699581
-125.963922578064
-123.757347308225
-120.944439128684
-117.758649214923
-114.35647481962
-110.851656774817
-107.324369613577
-103.814215803426
-100.326491626798
-96.8377532009406
-93.2891644770516
-89.612301005662
-85.8229983529019
-82.1092889358494
-78.7809364737323
-76.0726959473069
-73.9814369779127
-72.3131117370561
-70.8824734468444
-69.625604409377
-68.5014068890692
-67.3412073145473
-65.886104248244
-64.0081528988824
-61.8527571508596
-59.7121130214783
-57.7629931103976
-55.9622161294059
-54.1851172219426
-52.3936592782395
-50.6203224109956
-48.832850932577
-46.9117958374798
-44.8031501607816
-42.6492650804152
-40.7207971566167
-39.2417394213796
-38.3329207266122
-38.1039221802459
-38.684671591786
-40.0699548093011
-41.9577270404667
-43.8438628774715
-45.3244620789866
-46.2545637469277
-46.5683953384459
-46.0231268201459
-44.2698529781117
-41.2357261073462
-37.3396921820624
-33.2052199407305
-29.1583075558629
-25.1090583030567
-20.9600485369318
-17.0075938303641
-13.7865806848002
-11.5183989660233
-9.85927936030384
-8.29577736884459
-6.71576621101105
-5.44918411829961
-4.74351827855969
-4.3600901209346
-3.81293719451921
-2.93223250689343
-2.01383319588328
-1.36454520130023
-0.845323628578235
-0.00678053981344107
1.37975079077841
3.10894766879511
4.91392549416267
6.89052533984544
9.37028702470557
12.4021691707066
15.5608688352002
18.3747424430515
20.8163113245385
23.1876192660754
25.5472300184069
27.4765325530693
28.5547725352393
28.9365248558301
29.2228421672009
29.7216856152007
30.0371382503515
29.5544191710989
28.2295708928618
26.6653939694764
25.3662235829111
24.1524886720678
22.5349352571047
20.5908734280001
19.1857878808638
19.1902165177539
20.6339698369705
22.8317378114368
25.2701229941293
28.0854492298446
31.5415573405807
35.2668728785948
38.3387218183557
40.1704851175694
41.0698981488402
41.7493281418447
42.4384623515738
42.7491677395285
42.404282073573
41.7681994462876
41.4026765632486
41.2409281317
40.5571372666474
38.8683157749532
36.6149674494584
34.699483670196
33.4669452833321
32.4816349856732
31.3988266612958
30.7231313034203
31.3363383118568
33.3267424465332
35.6764081115462
37.319091692629
38.2713007448702
39.3749498707871
40.9767367920533
42.2927762194706
42.3416292847139
41.2474861589575
40.1661460107139
39.8644973214311
39.7907298454155
38.8873708644213
37.1206398994267
35.7139730158185
35.7338358890605
36.8443628627231
37.852467339074
38.3167941915974
39.0793973503214
41.0039212182216
43.6142232819765
45.5060908165262
46.0581113374274
46.1928542036093
47.1441577884718
48.8275982297148
49.9679148163381
49.8063822108817
49.0710419332232
48.8528558833506
48.8815704173525
47.6088940928465
44.147491466381
39.5568258997478
35.6966247301596
33.0557745544792
30.396923997028
26.7103945989152
22.8582613046354
20.60474160794
20.2092918955742
19.8254161147497
17.7070930336711
14.4770887529271
12.4506080414497
12.7764979879243
14.0896725656329
14.4812242082995
14.1998362212521
15.3971614409082
19.0652501058302
23.1616070988766
24.5886055642833
22.6996385494668
19.852842858688
18.2402691729839
17.1047538404782
14.054990344326
8.82321404814547
4.44922688098529
4.09395080031925
7.44087991884885
11.3312324582618
13.7877168497564
16.0610298414899
19.9171270542434
23.8552565608763
23.6429191742187
16.8708191118686
5.55035568503246
-6.9989683684276
-21.0190281966031
-40.068817944833
-65.3036586798765
-91.8575002589843
-113.296876820334
-129.727902369863
-148.930821489736
-177.029996152388
-208.320266542576
-226.772812866328
-219.417817352088
-187.913630531849
-145.898467992031
-105.418300398669
-67.6078410289147
-26.7953012059166
19.3750132890655
68.1857692239242
121.614635139235
194.948602376165
310.615276620723
479.457232683459
686.352424954017
894.000392439357
1061.64399243338
1163.10211743682
1192.24271886563
1156.85401711634
1069.26491155266
939.602627734587
772.913231349507
570.912727606666
339.35971195451
97.1857365582413
-122.593459087808
-286.917469956941
-384.051683531134
-433.280930826007
-470.926930520188
-522.593186508657
-586.135898817384
-640.161819878354
-667.739534203991
-670.946284926949
-663.612608257473
-653.537841552789
-635.140377467297
-599.638978873899
-549.615435047133
-500.967909671106
-470.40799064463
-462.183474589108
-466.796343965621
-470.552133648582
-464.879579978618
-448.053947676268
-421.900154870959
-389.616786049146
-355.943782596007
-326.276966492814
-303.46712644569
-285.83472039104
-269.585284283754
-253.221638414702
-238.486536350575
-226.57117715101
-214.63714014848
-197.692241661312
-174.127710905372
-148.253050390997
-126.456883157676
-111.221260224416
-99.686488887024
-87.8583939172813
-74.9926063912218
-63.1682742156017
-53.4582865984704
-44.0752587423533
-32.7169191962894
-19.6529897439708
-7.35579888988137
2.70577527559976
11.7385324726322
21.5967328738703
31.9035951471344
40.2688494922867
45.3650056941555
48.8015384728999
53.3129297661344
59.5917919548203
65.7950762841588
70.1954395576103
73.4081457278284
77.3574756573546
82.5346796019111
87.2892761012943
90.0877101975576
91.6974377726076
94.3713001163811
99.075686922285
104.338843894278
108.115024498064
110.140386335532
111.762567241007
113.685068497546
114.805161408372
113.748604381879
111.01314114544
108.778347133516
108.525500982038
109.501124299942
109.933247051172
109.312045260278
108.753452492744
109.124014896974
109.611412824291
108.773988245865
106.70658113504
105.379344482911
106.559651552927
109.896691750772
113.544576164841
116.409824919476
119.079503871625
122.351212257957
125.515811481828
126.844152174323
125.733045903202
123.679809590332
122.723347195587
123.276051486296
124.045841867258
124.013325635471
123.802386160412
124.692332745532
126.702580747496
128.401551884854
128.756736979673
128.575164067447
129.561633154081
132.125042080197
134.713838456584
135.505793726058
134.288450666649
132.228330517273
130.047783169951
127.166152665199
122.978027102392
118.523374890709
116.21304843703
117.761857577367
122.773859364814
129.566091655186
137.003694368373
145.025014581927
153.465722862587
161.077306667114
166.2662797085
168.658154185214
169.410794662141
169.816742354715
169.945510655908
168.949031157311
166.425128565443
162.919871947749
158.959060924305
154.083908416973
147.370919984872
138.841935235105
129.853034717786
121.817488974421
114.808697008932
107.774825704143
100.009206481414
91.9241766028314
84.1810781618237
76.4745403771412
67.7417260796392
57.6270076884295
47.2725643419901
38.29766485414
31.1592644375952
24.8899965189334
18.4333068035446
11.7841734792365
5.52427287367674
-0.447938497053002
-7.11993848869416
-15.1135053849763
-23.6257723971114
-31.0532836363914
-36.6239875052773
-41.04724407533
-45.4617423649956
-50.1307597070866
-54.5503248821965
-58.6614555292522
-63.3590386190917
-69.4686374401516
-76.4946420507559
-82.8578935440765
-87.4528312548265
-90.64543680356
-93.5556837148714
-96.6607899018928
-99.533351995073
-101.910807034979
-104.478345421998
-108.16291000453
-112.805825510735
-117.014404271116
-119.514775040181
-120.382515467088
-120.686179311219
-121.124114549152
-121.461590330856
-121.392726957307
-121.484145879124
-122.754660913699
-125.340271319292
-128.029588469045
-129.407202035978
-129.266065526669
-128.587471475465
-128.22446295255
-128.043006977426
-127.561083456649
-127.066618678341
-127.551319093979
-129.424947965439
-131.691309229751
-132.762104612152
-131.994911685353
-130.109868588192
-128.0827549947
-126.022418018329
-123.427861746624
-120.299231362186
-117.440858875265
-115.444155198468
-113.699723144143
-110.841901995628
-106.182408881494
-100.393283538984
-94.6699023729077
-89.5431183017531
-84.8498672188157
-80.708444363283
-77.9533277182957
-77.251849867514
-78.0111139649618
-78.6164298375388
-77.8807055753262
-76.0045827287151
-73.9541881673121
-72.173207796023
-70.3140650406901
-68.209290163812
-66.5895682639697
-66.3962910276166
-67.4826068839317
-68.4330024491699
-67.867233137898
-65.6992636199485
-62.8862260194588
-60.1344538866717
-57.283385200206
-54.0481515085325
-50.9131308580196
-48.7818288702269
-47.741336600456
-46.6090629183841
-43.9972508129288
-39.6682274739284
-34.5701738061538
-29.6526561346272
-25.085839674393
-20.8281544253113
-17.5545241593392
-16.4155928680184
-17.7162613680412
-20.2029743029795
-22.0178836966465
-22.270259677966
-21.3702838217209
-19.8704663523347
-17.4751921042907
-13.5702811180905
-8.49764716537896
-3.70673781162102
-0.364865601904139
1.88374275838149
4.38091719840705
7.74120227998099
11.0782808923775
13.0875321642384
13.5331117881091
13.2364131788161
12.6977749804015
11.3049524579131
8.27919199864055
4.14601078773238
0.730315298075325
-0.468746765244575
0.413281275212743
2.13904483076702
3.92472558753505
5.99680466920482
8.59732423175678
11.0093206298192
12.1105416907124
11.8229765086593
11.5057418202882
12.6404883009862
15.3736465727164
18.6665665184284
21.7134215699808
24.6963638943273
27.9561615798747
30.878891431049
32.2207708220629
31.6183150586052
30.308628783109
29.9783685936761
31.0573582353926
32.5171845551802
33.3146968864123
33.5441309722107
33.8551504510881
34.0806945785221
33.1054161949696
30.3258611292663
26.8345070975651
24.6800255174545
24.9804186215972
27.1285821936392
29.9141802849877
32.9601760517418
36.6154105293098
40.6374777456735
43.6757801097536
44.4744204189816
43.3274859741915
41.8556825364644
41.294651034877
41.3951883527488
41.2027727795991
40.5228758509452
40.0651055542905
40.1513455498834
39.8942099882991
38.1487120107151
35.0967465432269
32.3415202976691
31.25521778407
31.6039350289458
32.1271490400631
32.2042586693022
32.3698607318834
33.0685793023427
33.4824584328916
32.214674758716
29.0893612612627
25.7004939835696
23.8552109158287
23.7757371390744
24.2531807183911
24.4150372691566
24.708445738789
25.843699364629
27.2585619999539
27.3670930423274
25.4589637622472
22.79917416098
21.3871755439985
21.8441502547932
23.041619797774
23.817502114166
24.4252940811778
25.8095556397581
27.7985390573216
28.8288411148684
27.7777454412077
25.5650821369478
24.3316274503646
25.1098752196974
26.890998246684
28.1859195979217
28.92778158161
30.1806240760039
32.1344342369305
33.2538255637419
31.9565691488264
28.7482758396817
25.9514489179694
25.2058064899897
25.8353621176716
26.0857723799084
25.5081779687104
25.3137098833078
26.2959546439098
27.2477775221423
26.2094831324773
23.0825018074396
20.1724938768242
19.7985846364926
21.9100540356547
24.6569807695924
27.0063109072069
29.8579159742028
34.2108069274919
38.9819355044996
41.6445111554297
41.0879257927365
38.9981566053732
37.8457547657635
37.9936395551775
37.6295531387733
35.5138596662034
32.7927607077419
31.3876667249247
31.135469379302
29.6782025648811
25.5030199365771
20.2061982383007
16.8560007812808
16.3954081821799
16.6955577110976
15.4707104091737
13.1707758582115
11.9783411442
12.2852464222131
11.558851505981
7.44459137875378
1.17536412254378
-3.3728513895191
-4.05640150928792
-2.69970334367622
-2.25625759865108
-2.67083815366544
-1.10407453865361
3.5784332075749
8.13036891541657
8.1640190354567
3.60034383368071
-0.805988271518288
-1.0591365204674
1.19074521543254
0.779828425582622
-4.42330299688666
-11.1289416181893
-15.8261704173302
-20.9085056410691
-33.1997559327796
-55.8525510109037
-83.66898890113
-108.421539985295
-128.242111350926
-149.242552243661
-176.445867429473
-204.526710427697
-220.079183211503
-213.947571202058
-190.200254829867
-162.04676467409
-139.779024038708
-123.738959312914
-107.456584946441
-83.3549367435487
-42.2071046301018
31.2605974153425
156.180306389871
343.077254021622
581.159940799917
838.451623002157
1075.42208901821
1259.51485734168
1369.65989367446
1393.44183009674
1327.17125517165
1181.2109720582
981.010275793579
755.958842364061
523.379223623039
284.516660733782
38.728625632226
-198.716666602579
-396.267083588333
-526.709349399142
-589.279000062152
-610.945472130602
-625.514385659571
-650.850275900206
-683.894756438391
-712.987802416519
-730.905047389397
-736.317198096508
-727.681031083911
-701.349271236484
-657.400587497788
-604.919095882774
-558.41932745782
-527.972889287358
-513.111441995651
-505.849684497876
-497.990837811382
-484.851530887652
-464.027224344362
-434.197786756151
-397.110608392521
-359.420420429144
-329.669852826393
-311.734564237145
-301.516104217283
-290.909925346638
-275.024585124935
-255.110124711084
-234.908339169344
-215.607305600593
-195.349022532203
-173.012679004425
-150.879793874576
-132.780303731735
-120.218490847858
-111.178649030114
-102.573070618401
-92.9294800125856
-82.3555574509567
-70.8077324152367
-57.6337770950904
-42.9868404022627
-28.7191515010117
-16.9971177021446
-8.15545195624183
-0.588069017088017
7.09527375641994
14.4058983791886
19.9443462815792
23.6991463806783
27.6486061956474
33.856378199977
42.4604166273988
51.9899960853784
61.3880957177234
71.0402263690031
81.6330732495158
92.6048380839298
102.380731936507
110.066396172124
116.278789822532
121.98572313443
126.931306822724
129.784380761549
129.83470337747
128.000182095516
125.843573881607
123.945542359997
121.79344912096
119.258477724521
117.559750930406
118.267314322753
121.518654415451
125.740692035723
129.29296449643
132.024279851828
134.905922998775
138.399372158713
141.765349795024
144.162922063589
145.979895262566
148.541342701097
152.489372037084
156.86581954985
160.024523733118
161.199068591098
160.846683290548
159.584276780237
157.30949456682
153.667765481463
149.095753578731
144.877889941361
142.008142496918
140.275594961391
138.713123187364
136.78191060331
134.78518129528
133.132229025595
131.627587933152
129.845547916449
128.072032594535
127.432042578914
128.860333007683
132.125675004026
136.101534023523
139.904213690046
143.469862876102
146.970494314006
150.028666859135
151.898149932093
152.398717331061
152.316198840813
152.65928565225
153.681931973442
154.894416248609
155.977874626685
157.3390570823
159.563707292431
162.538164093448
165.477018150649
167.883355121228
170.187192855327
173.172984722111
176.86233965045
180.236519850739
182.134241059955
182.213403039158
180.871691148086
178.404602279876
174.598334503226
169.254868437186
162.835160996262
156.24828391395
149.981460551481
143.664882807903
136.603479121547
128.565125558879
119.851617970839
110.702107072227
100.969416076594
90.5676224778276
80.0469719832195
70.3948060532932
62.1674502441952
54.9819394968343
47.9816085489514
40.6669522920449
33.0679563560764
25.1652669097787
16.4873400576904
6.54902549327864
-4.39349432384392
-15.3089398056393
-25.2362489338608
-34.0360505408341
-42.182841759267
-49.9438792796954
-57.0262140159018
-63.0921014650409
-68.371255856741
-73.4868540556873
-78.6880960885534
-83.5028716346212
-87.3003264404148
-90.079331000224
-92.5150668537921
-95.2538328204743
-98.3735227531806
-101.631583725489
-105.047734202097
-108.961478926178
-113.476225646643
-118.079813639934
-122.024976314615
-125.04594451504
-127.533980152713
-129.996384387342
-132.535074312108
-134.992414161387
-137.468315509538
-140.401844627235
-144.024216058987
-147.894827544935
-151.191853848128
-153.468162152366
-154.965241647852
-156.127955019361
-156.970150291475
-157.094893895665
-156.288565983485
-154.858585312929
-153.247889442262
-151.440102103917
-148.969332587744
-145.57618942839
-141.717147430322
-138.310574809839
-136.038182734523
-135.007652871905
-135.043348818111
-136.066709303005
-138.002674218389
-140.372632456253
-142.205692014381
-142.506091483359
-140.808456094042
-137.262948582978
-132.289883059429
-126.307906132645
-119.798328529323
-113.427664367238
-107.877837760945
-103.494260607104
-100.174166863511
-97.6323345574557
-95.7008121036839
-94.3128447408125
-93.2836670454311
-92.2721161295012
-91.0105526152835
-89.464439752283
-87.6560898058141
-85.3771001304619
-82.2233942770958
-77.9832029929957
-72.9203860327337
-67.6037440447193
-62.5146808608292
-57.9321088469793
-54.16983971281
-51.7091636338291
-50.8878431633847
-51.4512140218967
-52.5589069184203
-53.3282862287774
-53.3258356544128
-52.4903735555169
-50.7169221794542
-47.7586532226906
-43.6263084808715
-38.9136517819071
-34.491960436561
-30.8287438651611
-27.7287399832723
-24.8082992537424
-22.0940698138157
-19.989121924306
-18.6885899528919
-17.8560721953457
-17.0179449591233
-16.1533251248814
-15.6616229797333
-15.6995080667513
-15.7399258783121
-14.9633496794928
-13.0345107626946
-10.3239045771204
-7.35492811765578
-4.24668002765143
-0.875955543293527
2.52801798071776
5.25715148419721
6.75035088546244
7.2206226170544
7.47067762032539
8.10390326287017
9.09987305149266
10.2176529584189
11.5893154544632
13.6411939505468
16.4330370205715
19.3490687854522
21.6502851731543
23.2426988366243
24.6779405574919
26.3697848744267
28.0287877854164
29.0330552227407
29.2234758649394
29.0596539168277
28.9399577512263
28.6306855170944
27.6337353936181
26.072411926304
24.9351740608393
25.2889575705433
27.3750086486217
30.6381838885936
34.5380941337704
39.0236498480722
44.0768860832256
49.0308821216316
52.7067899356183
54.3417640700384
54.213586703961
53.2188066906091
51.966147921507
50.4960736938241
48.8417436864027
47.5286348818649
47.2516710014844
48.1401816203339
49.6191784498619
51.0926624135505
52.5762917084899
54.4791158715243
56.8743455398615
59.261776516458
61.1210586868351
62.4593863079373
63.5767787524153
64.3839192670684
64.2740433900023
62.8193089460989
60.4008451321088
57.8948944747747
55.7667481326139
53.7319330710517
51.4055969017405
49.0296657282054
47.2453436667928
46.1796910258959
45.1099738897675
43.2721238455151
40.8532982462704
38.8848982153393
38.1252203652965
38.322913108876
38.755729227973
39.2703393332385
40.4067849308556
42.4396611155361
44.6572944860476
45.9308364602699
45.921827661422
45.3937414214858
45.2270218521648
45.4083740085717
45.2605594132227
44.5058253122292
43.6542221072777
43.1620408575863
42.5338862458192
40.6907050305526
37.2445201549073
33.0494365504734
29.2862428588559
26.2513256519537
23.4039448068912
20.5291451261111
18.3521678274481
17.670434804354
18.1209367232152
18.3084910388743
17.2840877335846
15.5393566567652
14.2391558230148
13.6928471887526
13.0662265161141
11.6865305531774
10.1448617512981
9.6360603152566
10.3438736052041
11.039611712226
10.5348996382417
9.16832288820089
8.38902331287238
8.95881334050694
10.1130011954912
10.7575442948137
11.0646595955381
12.2745924959098
14.9110453197187
17.8057537474522
19.3377156383082
19.3605820981265
19.3089747555895
20.321321419671
21.8337911502094
22.4847378066966
22.0800478112223
21.9168453332542
22.9522158977672
24.2656354497136
23.9900267022937
21.6247769119394
18.7100092655565
16.9126893456735
16.0028517749432
14.3987159165661
11.5510869741906
8.91415919573777
8.07410731814437
8.47044656649778
7.86553854890842
5.15481045694676
1.89705108982258
0.463024948244694
1.12868319205295
1.92871135678828
1.49397725221749
1.05599976693583
2.76961134524306
6.4158888800426
8.93737553644174
7.73955806107481
3.68925512020702
-0.0887428712921512
-2.13477714097795
-4.18253238865223
-8.22870320818387
-13.0115244687814
-14.7477085451702
-11.4832770529869
-5.53718062707369
-0.814250169527995
1.57213292343907
3.67572433382974
6.72351391047934
8.32330829820282
4.91916180611085
-3.67398253744677
-14.0078288632712
-23.7758664345833
-35.2210250271085
-52.0679271673342
-73.7287324869715
-95.1839031841439
-114.02673187989
-135.65637509901
-167.857327335875
-208.808460545987
-242.797388193847
-251.383788088836
-230.114597126718
-192.84629819182
-158.272633611163
-132.922861461834
-108.586531849947
-74.9629055933019
-30.514894684586
22.4708130907047
92.1513069184028
201.092769379266
370.828947919062
600.196979412528
858.659170843325
1100.57378719106
1286.04920668962
1391.33089260795
1406.87605437343
1333.79770552168
1184.81207704131
983.495557162588
754.72577085046
512.201975768402
257.631281471677
-4.35090959442361
-251.156762065252
-446.9152116102
-566.801034443933
-617.949836861187
-634.719388129648
-651.654972072862
-680.088189302246
-709.023196941793
-724.573193505323
-724.680678096424
-715.433485058631
-698.421143589313
-667.55647002347
-619.695149607548
-564.997518918457
-522.715142168781
-505.398107722636
-508.133944757919
-513.734215922126
-507.526648973071
-486.716303234335
-457.437597737059
-426.149101081753
-395.422970494469
-366.102442842893
-340.079953298289
-319.377746275648
-303.685719832569
-290.519569178071
-277.810328071878
-265.063225343005
-251.574129194244
-234.909357343233
-212.857063114845
-186.990239589842
-162.863020240016
-145.457028934022
-134.560515609325
-125.386012461579
-113.747995896039
-99.8484175859893
-86.6620316240293
-75.5154925918715
-64.471166055162
-51.1181389914565
-35.7787947832938
-21.0127208401107
-8.36775027866583
3.21725954958938
15.4172962254315
27.8271013865704
38.2548497775784
45.5927792214583
51.4206651974691
58.2038133095884
66.4097714178394
74.1978327958879
79.9148442567468
84.0594573636008
88.2730825826125
92.9206215766503
96.5934936139318
98.1779070244388
98.6702900106159
100.271090709571
103.897824955764
108.312955160201
111.904248602716
114.708827507827
118.07176615053
122.543907747281
126.941793084169
129.882809732075
131.765971451673
134.531405901215
139.41863878454
145.542523242
151.033219943894
155.192718073692
158.90631444145
162.920056659148
166.381591234581
167.622855130691
166.174064032978
163.388074758188
160.876071140751
158.765211109473
155.940707437291
151.828072554217
147.356060915009
143.935974345845
141.907553997975
140.492121239987
139.197463060338
138.697160856175
139.972849147018
142.857293891262
145.906275822002
147.767772271858
148.296516961377
148.098290950744
147.312740387494
145.385283194371
142.127011449948
138.528910743382
136.069628782117
135.268191987954
135.285987681728
135.062037653575
134.514948344059
134.330230879326
134.761498713923
135.160871603719
134.925404198763
134.591915374574
135.54066673506
138.553408688015
142.973735800819
147.474882861575
151.429956978537
155.206006727512
159.182819390989
162.941468374405
165.74077070717
167.604004418846
169.485492810465
172.191104519085
175.371701425356
177.826384671272
178.679792722886
177.946697417088
175.907646816493
172.322783853934
166.663240906259
159.073868443904
150.696178135227
142.755830474051
135.444950580645
127.951375411809
119.5608423216
110.436881268751
101.174726179321
91.8574434064669
81.9649314137177
71.3007016258132
60.6898808933356
51.4331393110342
44.0832712629046
37.990603588088
32.1116618250805
26.0348476354465
20.0124551646122
14.1442139159819
7.92853489884491
0.820119690968646
-6.96960958546886
-14.54992157891
-21.2871726699335
-27.4607324266129
-33.8551403182106
-40.8452133574536
-48.1068789656815
-55.1996613309226
-62.1345875104528
-69.1454757490816
-76.0271159884663
-82.0310498783293
-86.583879146809
-89.9867932240824
-93.2315604901546
-97.1521740376255
-101.90765220649
-107.284765904991
-113.236924238554
-119.85420264812
-126.831632004304
-133.258960005632
-138.172858925518
-141.305309880175
-143.169821048963
-144.433231095248
-145.36495487808
-145.956570970612
-146.375801006009
-147.013627126557
-148.01482745328
-148.963212402041
-149.247379474318
-148.740315767971
-147.976256788735
-147.611171314302
-147.829070831543
-148.370541913443
-149.019660373867
-149.814869072394
-150.691844467896
-151.106546474355
-150.279713145555
-147.901830137211
-144.49004559898
-140.959894940729
-137.904065606488
-135.373272228642
-133.266597135464
-131.676496684079
-130.680880748669
-129.901661082343
-128.535755315656
-125.982670081341
-122.397046566624
-118.528217921818
-115.041745134059
-112.09368155202
-109.539292748472
-107.343859692229
-105.580803176416
-104.047913079759
-102.115690784766
-99.1565668972295
-95.1356971105621
-90.6825934591463
-86.5564238911175
-83.1104569811977
-80.2874784204731
-77.9757306100987
-76.1526679713265
-74.6348385500388
-72.8714509305894
-70.2169095215331
-66.4865179949875
-62.17526344392
-58.0738581633527
-54.7074056577746
-52.1766283394063
-50.4295775138152
-49.4703058255526
-49.1873347004302
-49.0902066200502
-48.4439277246925
-46.7976464525714
-44.3531678724523
-41.7436430142461
-39.4609721125804
-37.5496288876533
-35.8122810118397
-34.1430210149281
-32.5194029425053
-30.7210088590048
-28.2680854200733
-24.8120684986176
-20.5914657635657
-16.401313379298
-13.0514385859856
-10.8630739574349
-9.667997785592
-9.15730918700402
-9.06545465888293
-9.00350761822648
-8.30976061579725
-6.31636329713889
-2.87913959181084
1.40321324161518
5.57532617639997
8.94618727205699
11.3349635147286
12.8068351304779
13.3562063001838
12.9740987257856
11.9582485423721
10.9489914699814
10.497938228696
10.5990922578405
10.7374192819562
10.4500765684137
9.81508879979755
9.37853042314667
9.67687314186865
10.9227512156617
13.1319014363487
16.3823749486965
20.7605709962461
26.0122408091245
31.3676548864961
35.8626338455729
38.9070189921997
40.561474552013
41.3148818484163
41.6813861139539
42.0252054785598
42.6270748158348
43.687271548895
45.1280377201469
46.449135731199
46.9379664944829
46.1385271990998
44.1493630510185
41.4963450773144
38.7974203807845
36.6008496056559
35.4417697298789
35.8036891062545
37.8067569771408
40.9138963484853
44.0941947035136
46.4316967945055
47.6360534338127
47.9861679279287
47.8699780923384
47.5021592189994
47.0834481430942
47.0276338008386
47.7703307933034
49.2611648611237
50.7681333476187
51.358203994977
50.6323871836965
48.9613114480448
47.0311478372763
45.2858428810827
43.8790718288366
43.0204293672742
43.0784511015254
44.1752062530199
45.7778617725007
46.9177613084084
46.930727980156
45.9418697600467
44.5951225104815
43.4200121927245
42.597321780115
42.2702440399146
42.7827175792391
44.349700292046
46.5237772327011
48.2448988130233
48.6064127178196
47.5402413796383
45.6532348294478
43.4624963647386
40.9940267647759
38.1819031169804
35.4077211744909
33.3117065825252
32.0093015453278
30.7551831305293
28.6510050599064
25.6788688328174
22.8439306967885
21.2360436901264
21.1186890943856
22.0696308903379
23.8276944241767
26.612847302278
30.4459952380438
34.4144634360604
37.0217350763221
37.4101958150953
36.0746096132645
34.2371963666682
32.6634115872291
31.3076021292848
30.0200421875382
29.1567079383622
29.1456269216993
29.5846083863547
29.2166770613404
27.0580832718625
23.4089144140839
19.5230113423621
16.3592672295058
13.9547862908095
12.0749058002856
11.0692062718661
11.6060859658975
13.5495619693321
15.5567058930628
16.1748505367177
15.2599720440528
14.003050708057
13.5365244734143
13.8612703622234
14.3620787952771
15.0555856554603
16.7451260446894
19.7704352564603
23.0517593829142
24.8998105426483
24.7781910407085
23.8481260605871
23.5776656399628
24.1518708779718
24.6536762303137
24.6286267643344
24.7906198315978
25.7919728271441
26.6966097630231
25.4102734992194
20.8525747323525
14.2564822085629
7.90097665304643
2.79197732730046
-1.84059370560057
-6.72590672360982
-10.9784157278917
-13.0309305512
-12.949567897308
-12.9645162331216
-15.1922618011388
-19.2081106503303
-22.5147101598071
-23.3673821379167
-22.4249339922353
-21.2415080675518
-19.7684962757462
-16.3536662165433
-10.3809708490105
-4.03165283219538
-0.585638916029524
-1.15647115524298
-3.91657387563258
-6.7453867845977
-9.80566256309935
-14.6820194425261
-21.3400173258835
-27.1739773967702
-29.6700881846024
-29.2426265191158
-28.3411471159292
-27.8745396606535
-25.8419138225371
-20.3590314914909
-13.2348329123377
-8.99943109515755
-10.0465503715251
-14.0742858674716
-17.6208256226445
-21.5800573531231
-31.3305417825033
-50.4708723445215
-75.6426018827401
-99.4304665854908
-118.558472475365
-137.430690783201
-162.024909011483
-190.84856511562
-213.742830043238
-220.307119315703
-208.422924861763
-183.705751821272
-152.109517150725
-115.70527205431
-75.8314583631687
-36.2569084890771
2.20772745010475
51.97246221624
139.73206170601
290.796471983082
507.445877610434
761.119487765359
1006.2212999356
1202.73526396582
1328.4457858758
1375.43980621851
1342.24822872706
1233.14839250643
1062.07709134123
850.253825780195
615.487126740095
365.153371848402
103.79392075158
-151.316092532423
-366.34932019111
-508.880375417619
-573.518499429074
-589.67619967319
-601.558642904043
-637.329725358155
-694.017559729808
-747.946366718675
-776.69201760168
-772.308646295969
-739.568371210933
-688.313294389781
-629.611989733693
-575.348309990175
-535.614134692841
-513.640214162899
-504.332394137851
-499.584858827861
-494.964495538446
-490.179673828375
-483.671387308957
-469.532739969446
-442.094330035548
-403.155428066178
-362.40494739037
-329.286313851828
-305.067091701634
-283.924225124589
-261.180227499518
-238.596007431853
-220.865924564439
-208.548500759177
-196.680630769029
-180.636552677332
-161.540627432448
-144.401269266032
-131.597604954349
-120.119685665277
-105.868034773673
-89.210667012537
-74.5790743102529
-64.7063018410446
-56.9410642636034
-46.2806138397525
-31.2041534839933
-15.0638389638362
-1.66078757772365
9.10928149683903
20.2017823238036
32.8421233423713
44.664828427262
52.9187149981533
58.337984921117
64.5152665954735
73.5848396699313
83.7726636453397
91.8130973808293
96.9327595590924
101.307355115798
106.721818422127
112.0907138025
115.131131584695
115.84071348759
117.038796270916
121.138478292069
127.273688036476
132.414697316508
134.931357033248
136.036811740077
137.509878545004
138.993255316975
138.549785509946
135.671077551133
132.606671650618
132.088037448487
134.275860738739
136.784630025145
137.650012316595
137.388428650943
137.667821201999
138.629355492312
138.574323470083
136.439512189119
133.680043699865
132.909460097133
134.91137920836
137.793586031594
139.295159476953
139.242045925509
139.111233763576
139.546602117666
139.299788642328
137.036990831768
133.54030755796
131.24723358019
131.562551877959
133.315234212679
134.267775228613
133.680381605343
132.703125262088
132.33731925929
131.882814035265
130.006378049848
126.955212210204
124.837316378927
125.413972856448
128.141501382084
130.916440691772
132.515716869852
133.634176866264
135.386448004921
137.487693224279
138.6378521872
138.573518554184
138.941435568031
141.659612885001
146.748107817356
152.344495602705
156.821189283367
160.28948908193
163.726186181532
167.147515877517
169.429113650631
170.027429113134
170.189978574672
171.840778093883
175.404775511973
179.293296208821
181.662823425637
182.164092035491
181.527930913847
179.776514267287
175.669607413038
168.273850814979
158.586935227927
148.928757854224
140.68095028854
133.15190927983
124.947324705879
116.028701409946
107.81293086146
101.275600520948
95.6361261427973
89.3967154957609
82.3554568874977
75.8752647520218
70.944622105789
66.4792454278418
60.0797320812945
50.3700419697902
38.087900936697
24.7662653771395
10.9138937719362
-3.90711748648844
-19.3532055233348
-33.421384163165
-43.8374453146225
-50.1523308777527
-54.0151403426339
-57.35536650945
-60.7438520030231
-63.7755300378823
-66.6058306644606
-70.3702007282583
-75.8775264604583
-82.387043571926
-88.2251057529444
-92.5813315757107
-96.2684158182812
-100.570654797373
-105.737497610863
-111.008762412399
-115.933442026499
-121.045485538565
-126.927756945551
-132.973904483327
-137.654779812926
-140.123999912184
-141.178891483924
-142.359024250344
-144.323504176652
-146.507672729459
-148.319592762838
-150.123454114416
-152.625146915421
-155.50103977851
-157.211805989131
-156.43870628804
-153.443932492543
-149.700457819007
-146.30572448415
-143.160159021955
-139.785106617554
-136.488583102561
-134.21666599267
-133.284190187403
-132.748257324913
-131.377524684406
-129.062890053332
-126.904704537077
-125.897626943326
-125.892313284648
-126.060039296137
-126.078537903556
-126.372645969063
-127.115086220856
-127.440379062809
-126.092539050266
-122.819229461269
-118.781167183396
-115.456259110918
-113.391525796045
-112.247371706327
-111.82226405517
-112.502457953314
-114.477591731434
-116.846327196063
-117.981393609639
-116.883292021936
-113.914349458916
-110.063632901974
-105.753097954192
-100.70117651353
-94.8689036631905
-89.0432621110754
-84.1377519934265
-80.0986628084318
-75.9439719596474
-71.0223074751626
-65.9425049044366
-61.9812178231833
-59.7046837055776
-58.528499331667
-57.6893134478578
-57.2575308259592
-57.8091846747594
-59.2090546524819
-60.2052250665828
-59.525480484321
-57.1973235555753
-54.4622900983129
-52.3969610899127
-50.9378647874293
-49.4045223517212
-47.6537144255248
-46.2519166579268
-45.4570738576444
-44.4554469859811
-42.0020528515397
-37.7609074075125
-32.6842531478369
-27.9705777755016
-23.9228539150259
-20.0713803073516
-16.2182737708902
-12.8826765789826
-10.5162786209493
-8.59431015900168
-5.9281904793138
-1.94990393440071
2.60620183114105
6.48508634704535
9.1811974407739
11.1551088939154
12.8747189360225
14.0787456471132
14.2864530300224
13.8357220602331
13.9543563112196
15.6056672125503
18.4788609134837
21.3680295530689
23.4530077892017
24.9092387163372
26.2198915990417
27.2639474232009
27.4723102240884
26.8310233238689
26.3064565929468
26.9860397103871
28.9260592350164
31.1300978073891
32.6684606845202
33.5347408459645
34.2525245281435
34.9098027114354
35.0042105884222
34.3192454828219
33.5947546817691
33.9632995865765
35.742729878476
38.0704449417807
39.8403809851776
40.7810999592901
41.3957772495971
42.0001864421089
42.2419938460706
41.7719285451653
41.1326242335394
41.5713173693958
43.8580696417234
47.5061387987993
51.3254046312365
54.5952744096692
57.4406696518147
60.1010735856814
62.2131655864157
63.1238649378043
62.8052932260913
62.0982241383768
61.8762106197942
62.1376622244885
62.131941656375
61.2995925093566
59.8127647199582
58.1164421734463
56.2244929857866
53.7991289227058
50.9035454940025
48.335647937695
46.9745679382799
46.9103052990365
47.471750087126
48.1233134217823
49.0691768103293
50.7998099102634
53.2300082954312
55.6297612286327
57.4802856272835
59.1012017125225
61.126922153975
63.4153181900965
64.7927469344808
64.05602590787
61.0817056213252
56.7505500713323
51.8797690591952
46.5697175267356
40.7616152231231
35.1685404219397
31.2078534465997
29.8336924571484
30.6166384523036
32.1814614030613
33.4851749185491
34.4548054616534
35.3896458549035
36.0894425132395
35.9146258220628
34.6704192576054
33.0830748659474
32.1514168920051
32.1099969189858
32.2430532653355
31.7208113705826
30.3947862119047
28.6489032201576
26.6744430771572
24.2294024438177
21.1978757707647
18.1331097078645
15.967572823228
15.1837812074249
15.4669986389531
16.2419000085403
17.3616185955241
19.0693668259593
21.3635704664838
23.7000351608634
25.4846343165521
26.700255806291
27.7808839932964
28.8367668443498
29.2428268879893
28.1921123786584
25.5791630238747
22.1255680388989
18.6111903121708
15.212867609426
11.7881014008002
8.66849764635298
6.80702580161382
6.93092693653741
8.67916537370661
10.8239367719882
12.3821069604275
13.3328304916944
14.1625181301415
14.9264574641533
15.0821841180332
14.2976857740567
13.1276781849643
12.5813014778148
13.0253461501337
13.7589912127442
13.7978780713522
12.9144734909356
11.6900385988607
10.6064701254385
9.40964288065922
7.57070538841234
5.19528319041608
3.10930401281406
1.91160456184003
1.16680409991159
-0.193801633921581
-2.69953193712774
-5.81879739355689
-8.69313121301575
-11.1350165185691
-13.5821429199407
-16.0961615043292
-17.8010667943004
-17.6400234850677
-15.6001382167727
-12.851663916582
-10.5569231924672
-8.80278269389156
-6.98451604449302
-5.09993718297455
-4.18537650000376
-5.20015607418352
-7.74331656814481
-10.3482578628293
-12.1289896138267
-13.6987448972054
-16.0477918758341
-18.6837334318886
-19.5069280462447
-16.9202602450163
-11.8281274667428
-7.07365081510514
-4.86218907288188
-5.22088069709677
-7.33033648425317
-11.9683973655634
-21.7963770332101
-38.8516623485942
-62.2257268169273
-88.870891772917
-116.592582875304
-145.356190071762
-175.005265155703
-202.203872965247
-220.917832019962
-226.68345162894
-219.958271936064
-204.374512617801
-181.728825068133
-149.967414180926
-107.320886538669
-57.9386199295668
-10.985499527383
28.821475955456
71.3779819803406
141.059835360147
263.083573192868
444.933103350536
666.310004733617
885.041555958
1055.26932240066
1146.89772020109
1155.67543442003
1099.32221372377
1002.78846320706
881.890589484271
736.227975003606
556.865779884246
343.238503217749
114.967954318999
-93.1875946166757
-251.035174830818
-351.391872595243
-411.603590631803
-457.528333251527
-504.900816632829
-553.620695000634
-596.273269824691
-628.634602004836
-650.995641838154
-662.021085467405
-655.834064540479
-627.964572162626
-583.608097934904
-537.480827272355
-503.650375710161
-485.305975826249
-474.804175405768
-463.092374112881
-447.860380173814
-432.399603958242
-418.345372594012
-401.905441988929
-377.967344484111
-346.688529021646
-314.530875234382
-288.606184839013
-270.781973815169
-257.518439945612
-244.411369813505
-229.751620848829
-213.970863811345
-197.321146377911
-179.468518169426
-161.03504659071
-144.087437148477
-130.226164725753
-118.644507055248
-106.95446134459
-94.0146888456566
-81.2426877986869
-70.7166023520222
-62.4553347044553
-54.289797481702
-44.3932928553994
-33.1962679469901
-22.3546550796709
-12.3204965327903
-1.77871180936586
10.3768330561131
23.2372930593612
34.6820049694416
43.7516383125831
51.5010148548061
59.2841372869875
66.8036991458011
72.5106540384946
75.785775407365
77.9786499066781
80.9155097306211
84.8437980030793
88.5084189391181
91.2120848058628
94.0784071617533
98.7923045676626
105.434316154758
112.240383492083
117.609871019541
121.760488146612
125.929760226797
130.27072219746
133.300704021663
133.692025431544
132.076902005325
130.478350666261
130.054310524842
130.021879198655
129.069889326251
127.331370508943
126.308650932042
126.879417974548
128.047486053419
128.118052727297
126.790007212094
125.457264308567
125.354162332508
125.977213542191
125.813492746542
124.368309275041
122.810426485378
122.410081987109
122.856621609829
122.681448668539
121.226121140838
119.566501409503
119.183870546782
120.123286532766
121.025207602869
120.944440196559
120.552614045662
121.179758644118
123.009475275911
124.825119581987
125.622047166636
125.935790531727
127.130566959075
129.587053701582
132.152605823318
133.525736515839
133.717667242696
133.705264863057
133.844933276736
133.257984784183
131.055315284674
127.766228996523
125.028282802751
123.891891411766
123.92618802136
124.234818103967
124.941977680796
127.097336948366
131.100829611077
135.793034935973
139.537384292728
141.983114158728
144.238796745961
147.219416960243
150.310748643606
152.082592869708
152.093719393622
151.389915560678
151.007667239384
150.427419271674
148.019491803513
142.950263523113
136.125431707544
129.001999297805
121.85006322213
113.705514256375
104.000196335485
93.6678461379993
84.2523605328746
76.1880391777304
68.4903547515189
60.217303673085
51.7463514173319
44.2037263929392
37.8523308892016
31.6058129451048
24.3140268183044
16.1140284432804
8.08188633025194
0.700819775563108
-6.77428236543402
-15.2010927913987
-24.1895501329685
-32.3448484446688
-38.8313959012947
-44.219278607122
-49.532991652802
-54.8113400800672
-59.1164013869522
-61.9601301665649
-64.1875343166917
-67.0607304923258
-70.7054333732948
-73.9799053936399
-75.9753078647297
-77.1942501647636
-78.8677408722466
-81.3400831701735
-83.7029117940931
-85.2024890495639
-86.5491210538606
-89.3165594029421
-94.1076119380878
-99.8205185966035
-104.964489979512
-109.322305639736
-113.815373145593
-118.793032227379
-123.053841090139
-124.968714955856
-124.324419734542
-122.536393098089
-120.967826487922
-119.519344604142
-117.262889978644
-114.211124451816
-111.846005512342
-111.671615124674
-113.634907026102
-116.409171674009
-119.101065870343
-122.133552489517
-126.213575471654
-130.842667489817
-134.408203821069
-135.781738189282
-135.36924902543
-134.305472866507
-132.926241282616
-130.542899545947
-126.740086122535
-122.361752136508
-118.781210349233
-116.370611924752
-114.181864024527
-111.259477809853
-107.851508440257
-104.939407493802
-102.760991728892
-100.345338474745
-96.7197520934807
-92.1978064508482
-88.0201849135215
-84.7937342559226
-81.7760730026649
-77.9484039879152
-73.4619003754188
-69.552810444085
-67.0461695139373
-65.4243705928697
-63.6696348609527
-61.7256246289513
-60.6040871210615
-60.9723374371932
-62.0895173169177
-62.5150849943801
-61.6832399051282
-60.3120838063901
-59.1786783111948
-57.9529688925727
-55.6711431269085
-52.2051576500975
-48.7250371967064
-46.4740150580417
-45.4221379971381
-44.5360039840863
-43.2661373785828
-42.253017185638
-42.3208763656669
-43.1379762751149
-43.3834047381296
-42.2470129913022
-40.2878412142441
-38.5093206790713
-36.8863453006079
-34.3275891084096
-30.1524473149467
-25.1247877255645
-20.6433930749947
-17.1293938609764
-13.7335766310629
-9.74507361472722
-5.80780105751325
-3.27679723625772
-2.510388801234
-2.34317621494621
-1.47289245020865
0.0125469709773967
0.933986043683625
0.717586270273699
0.229100967188529
0.639398483464106
1.83413695203339
2.49948018951855
1.80600468174027
0.492679683309497
-0.0680067355983738
0.411939411272177
0.889645866011664
0.507663484125779
-0.174282984760151
0.114933045714436
1.66337837638392
3.38183781421541
4.27545724850401
4.84080459958279
6.5071451181845
9.81799466435273
13.7320067099621
16.955612464166
19.5277051410655
22.5391263518726
26.362779167193
29.7942411776437
31.3401976688188
31.0417663031087
30.4560468226087
30.7943271274188
31.6232907457196
31.7887312883031
31.2822129298669
31.5176868178856
33.5931181944169
36.8113983562649
39.4436016236546
40.7875254170948
41.8601265030086
43.8434157606099
46.3517023497585
47.8170007324252
47.4870950207078
46.3926458334164
45.9974006011514
46.3134782568294
45.9823225942896
44.2257807122534
42.0846904181265
41.2817708066547
42.1715527370346
43.4444492096276
43.9369012311066
44.1249067880591
45.3210531157385
47.6717392277277
49.6746536340865
49.9327461982551
48.8730875842213
48.1628103622239
48.5751295841283
49.1050260678673
48.477779251437
47.0109797509731
46.3091139178826
47.1558056599195
48.4049128598897
48.3958258242481
47.0776885154045
46.0442386000205
46.4005265117865
47.2456123358799
46.7690358774114
44.5290062245652
41.9238540020548
40.2566460198591
38.9861831504693
36.5268699151962
32.5848390911579
28.9482871604523
27.6378900926795
28.766411216721
30.8176265559006
32.8600361533243
35.6892844297948
40.3804215185706
46.2405780183413
51.0027824354237
53.1400676778772
53.3371280148779
53.2348294373179
53.1533275324815
51.8268356585708
48.4613412314414
44.2776244249786
41.3566009484665
40.2305474074524
39.4154095116874
37.5507130684979
35.3220725756605
34.5725816927706
35.7383628533675
37.0316218576417
36.5291842108255
34.4472464306285
32.5741030050645
31.5966231190848
29.9273355475478
25.7198119122653
19.4931099033088
13.8452754327692
10.4938590677
8.44391342958904
5.67683925944203
2.12307648440851
-0.0663364810187854
0.608973084421235
2.76844374571955
3.6105940627409
2.26791963714309
0.682120268738405
0.822723048460929
1.9152512890752
1.39227441573447
-1.64480355581151
-5.06827742662967
-6.34418954204487
-5.6516892084779
-5.24729719619858
-5.85570604757238
-5.08438480178218
-0.412021511489179
6.87037063817257
12.0785521712964
11.8087072143529
7.07214858940463
0.787758000603858
-7.1956509339736
-20.9011887525163
-43.3935029166573
-72.3030932799337
-101.624171181881
-127.802239577764
-152.430952301438
-178.013769430189
-202.213495075568
-218.194799983274
-220.89769910305
-211.25985108634
-192.980905900728
-166.455125679568
-128.748889873516
-80.5085305179049
-30.1031744130834
13.4793048142259
54.0310647358457
112.853464146628
216.504107895069
376.53874043106
578.962994729842
791.45290038049
979.53154579913
1117.46631428763
1189.67178776109
1189.58145639546
1121.57529307026
1001.67861600216
850.002268373411
678.038356865633
484.098555744683
264.884722620185
33.3498311733986
-177.110366702911
-330.580560383423
-414.354022511527
-448.578859096675
-470.525190519917
-507.834724083471
-563.546255257342
-621.981791089884
-665.11478172306
-683.591186240979
-677.030079512061
-649.798967779758
-608.973064518824
-564.003891310198
-524.213783312676
-494.447929524141
-473.641914244401
-458.482159662977
-447.878447901203
-442.63568607863
-440.90529624941
-435.915300983239
-420.187401092099
-392.374401346004
-358.994920045883
-328.724752112675
-305.20825970432
-285.726453542238
-266.140961586548
-245.783270552287
-227.067651968021
-211.444229693228
-197.262906278671
-181.926276087367
-165.10633228351
-148.871692726186
-134.898328268805
-122.56319271599
-110.18850820304
-97.4625677076782
-85.7467994930415
-76.0119910925032
-67.2839901172796
-57.666076150069
-46.552058307525
-35.1725660493033
-24.9031634710853
-15.6361951590105
-6.24950702863498
3.65650526102003
13.1735213751464
21.3999432683208
28.8247145285298
36.884373451209
46.2363245333315
55.9608159742507
64.6595324245131
71.9776981889316
78.6327651099778
85.0652160668121
90.6005590930719
94.2483332492238
96.0623325943917
97.2568088408802
98.9079593587736
100.879305580704
102.2701994028
102.725167208361
102.924915411859
103.735606581348
105.219578887613
106.780675273582
108.155571008749
109.876911322093
112.591501277024
116.136124430199
119.559419213499
122.035313617248
123.520413260789
124.439965464525
124.973487704445
124.935997340562
124.337705167161
123.751441737778
123.891485985622
124.890370394684
126.182828103586
127.129970893193
127.59820409398
127.841178154929
127.98370158156
127.884956512101
127.562359086565
127.533593995378
128.503455697184
130.687249046527
133.570195021478
136.385863880825
138.734453404688
140.656016688382
142.214681124582
143.245473015485
143.617751329379
143.621706464391
143.887717314437
144.843439482814
146.309573186858
147.675195082089
148.414265930305
148.372980516887
147.633303400695
146.289805084529
144.484953920736
142.59872292233
141.231992035276
140.893082433289
141.699667515783
143.399942139594
145.631413757643
148.098033689837
150.542195694117
152.703155462122
154.439800617763
155.891270942374
157.406443603643
159.222694692315
161.200607861916
162.887731161693
163.819056393783
163.721226830113
162.458864493359
159.900942703766
155.953266506399
150.734680273236
144.63996509568
138.140376819993
131.482473416141
124.570688727099
117.121362190998
108.910442226965
99.9020808739358
90.2267629881762
80.1215054148013
69.9040415414751
59.9387445030846
50.5378761502286
41.831530397939
33.6990370794464
25.8122303372098
17.7635195698643
9.22224970392938
0.0721325769740417
-9.51801326750422
-19.1366574020769
-28.2815182270207
-36.5403407865562
-43.7036827728582
-49.786328603093
-55.0055010344225
-59.7422144408592
-64.4440979293998
-69.4424976553665
-74.770168147131
-80.1310793857845
-85.0711114113613
-89.219526365074
-92.4242781323593
-94.7431390794281
-96.3961326441717
-97.7538264012659
-99.2967166712481
-101.454448723269
-104.384081861558
-107.87624176439
-111.490156785314
-114.798262052188
-117.538170625561
-119.619677683362
-121.105062592155
-122.241895031956
-123.45264789466
-125.155028179717
-127.48750144451
-130.18953374073
-132.771080023794
-134.807933522319
-136.087057985606
-136.543999493293
-136.194333251425
-135.214189900903
-134.038636277178
-133.230968275587
-133.129923209272
-133.597524687274
-134.138401099963
-134.269967674548
-133.76930442994
-132.620231662123
-130.865317405236
-128.631352325162
-126.274958267539
-124.346459373977
-123.262564537525
-122.978004148357
-123.014047824339
-122.817706739083
-122.068245069153
-120.670076286062
-118.594957992035
-115.888126109182
-112.838348574682
-109.98561024732
-107.789081053134
-106.238723371572
-104.844131518698
-103.03092909446
-100.513311869065
-97.288585056103
-93.4114762218427
-88.9652758770172
-84.3004720120357
-80.1361523315424
-77.1992216426155
-75.6646982646782
-74.9941375829474
-74.3663013225662
-73.2256598795052
-71.3861567166508
-68.7330389100284
-65.0725695402702
-60.4189045609233
-55.3269166800343
-50.7056343538546
-47.159161406862
-44.5331075012614
-42.1615565491893
-39.511447207286
-36.5038383560533
-33.2648075568953
-29.7884051136921
-26.0351056072421
-22.3199559863941
-19.3807092929259
-17.8909246559822
-17.9093053201209
-18.8763471158339
-20.1222212444931
-21.2766623372127
-22.1932701374632
-22.6744147391867
-22.4903524575975
-21.6789208864167
-20.6312976246303
-19.7131852142827
-18.8233526126587
-17.4445347432639
-15.1472309236501
-11.9448469362576
-8.12958621269416
-3.93125736097204
0.448217415256067
4.47194102709125
7.20633483727255
7.89360622852925
6.63631894107942
4.39981201921452
2.28789214754983
0.900267053894538
0.423515215389244
1.1256694734482
3.40995830424467
7.24017715153877
11.7191903361718
15.5543171695873
18.0581242739023
19.5938883068912
20.9839565014208
22.6266381141655
24.3535207943129
26.0430953584817
28.0204980074962
30.6118134119199
33.4319911292226
35.4452410422775
35.8930400930485
35.0442955283177
33.8870709867157
33.1666313656444
32.9285736819801
32.989940072489
33.5303879706025
34.9017701110937
36.902491511138
38.5891995544159
39.0572612278862
38.3332166524519
37.3041668305945
36.7866291556726
36.8843909564111
37.3330725656865
38.1932033266589
39.8248029350827
42.1303230253268
44.1599034080477
44.7984931451561
43.8377474566178
42.1513624546903
40.7627627297979
39.9548771624037
39.4461651905209
39.2165100187654
39.7278679426126
41.1689466972999
42.7730355724331
43.2784365395259
42.1345311727856
40.0260268482758
38.0895396371565
36.8169941967566
35.9645249121938
35.4002118027345
35.5838342139087
36.9370286847169
38.9663512961244
40.4550488306049
40.6708117752581
40.1418371764451
40.0255364978614
40.8651100159811
42.2721585365388
43.7958821083163
45.6459880844433
48.1806758622315
50.8473940017294
52.1603480397548
51.0209074655403
47.8669640009144
44.2260871888022
41.2208127918681
38.8721077800284
36.9357420145492
35.9368023919469
36.8115253353762
39.5131261831862
42.4959217008933
43.9946778751693
43.6794619980144
42.6776486362071
41.9824471782993
41.3106374358012
39.8303350769734
37.6635573363864
36.012460277873
35.6166560953253
35.5872340626997
34.3151094093579
31.4624132288163
28.5324776071451
27.2519085618346
27.7906256677582
29.0273362378415
30.3572561717161
32.500922696647
36.1466504533972
40.2655181848648
42.5457659217734
41.676767878512
38.6979901247145
35.7028345717562
33.5470307028
31.459508444861
28.8946316717983
26.9487812922918
27.2348672465807
29.5888822988136
31.7418790738519
31.6546469420617
29.6804265078372
27.8011576973002
26.9189179117354
25.7248027939233
22.5973580880641
17.9465335045173
13.7735157325685
10.9304277698288
7.76781989662872
2.18935514408901
-5.37177179175168
-11.938147839521
-15.0969308288134
-15.3248319606078
-14.6168954404816
-13.3839369675593
-9.91946212189392
-3.30528554958066
4.14359264454148
8.48033402378503
8.12727184787594
5.29413754941458
2.97278539475491
1.3751156923311
-1.56265864244627
-6.363303467586
-10.1469370481187
-9.53715200092883
-4.76298763479279
0.458392560043368
3.27425467573114
4.64288423723323
6.97879567867692
9.71166586888372
8.97925122533864
2.20398793727556
-8.58963262072555
-19.6299281719542
-30.9814422484865
-47.018394908493
-70.2460530439992
-96.4168503396536
-118.569177850878
-136.309546141795
-158.24142083297
-192.02751771899
-231.94103569097
-259.150157559517
-256.989768205204
-226.030067841291
-182.709080932735
-143.038331617767
-109.212423203847
-72.634789481778
-27.0480054193649
26.0619383169918
86.9418845203077
169.216113388745
296.274349238129
481.703251542048
711.864622084148
947.838844969284
1144.80775485009
1271.45083602164
1315.8772181475
1280.30911000495
1174.8448874353
1014.59904352892
816.388305569719
593.182233591327
352.290653148587
102.607569856218
-135.411484172793
-331.13423669183
-461.090786178637
-527.886421497978
-560.33807601579
-591.484846202546
-634.139479873262
-676.802390761347
-701.612108550692
-703.723608962934
-692.510975116232
-676.930086824705
-654.513371126153
-617.020213072278
-564.966694495837
-513.003684083406
-479.326758310766
-470.523218558155
-477.391687653613
-484.270624074981
-480.747636109549
-465.11563420402
-440.188403697455
-409.281187469099
-376.262328793814
-346.26663686489
-323.276723271608
-306.707759078731
-292.008248869001
-275.566466894576
-258.296050195118
-243.502614079393
-231.786447397845
-219.541235443587
-203.026557906355
-182.885024302052
-163.449649800956
-147.801819600802
-134.745606788115
-121.153915464387
-106.272693476404
-92.4004985383297
-81.374638325875
-71.7228333159059
-60.228254494717
-45.7721912369985
-30.4703687416674
-16.8315483476576
-4.83134086187587
7.346851994085
20.1727485218513
31.6351621835702
39.7131688430058
45.1762078205328
50.9649047372926
58.8755935678123
67.7395608259176
75.2613458183573
80.9437000783916
86.306540563018
92.3550154385416
97.8931072316995
101.036801611788
101.922891595863
102.963497016661
106.202539232128
111.107795128777
115.525128459305
118.407976374537
120.753357529023
123.706472612512
126.585107373564
127.604555021679
126.394098458314
124.932744875334
125.551331475936
128.45998258266
131.852098186384
134.285285482735
136.183672374176
138.638222289065
141.334586378351
142.549903973512
141.318412436921
138.899907902122
137.535377056373
137.998686526871
138.999378460842
139.060680846259
138.329496127124
138.014873444484
138.391417963977
138.202450970577
136.361201282084
133.69709363014
132.340578074525
133.401969139212
135.837004076453
137.861543801604
139.005356125729
140.174213489052
141.820391961084
142.856199127916
141.925389635905
139.430231587964
137.56858259624
138.123049445907
140.653126780963
143.285515221561
145.046428552486
146.801927900082
149.733595141836
153.43177238275
156.105551002472
156.649128888169
155.966076555407
155.956421941691
157.491936527969
159.793876549316
161.681400846607
162.874363349827
163.801616070972
164.557830205772
164.704561641825
164.216513398777
164.107611728134
165.627790752094
168.900342000102
172.720874242682
175.757657826293
177.573612740519
178.207994796816
177.086752501394
173.000650552015
165.43182246215
155.554498895791
145.460056214671
136.36774724127
127.904721852878
119.203467891414
110.283433983906
101.924598318742
94.3205284093365
86.4582604551527
77.2139725251107
66.839671245119
56.9069867249656
48.6956648141632
41.9731301512284
35.5729803569926
28.8802672470855
22.2756843327848
16.0975101046327
9.6910195060538
1.96132679807015
-7.22811042112931
-16.6726905383939
-25.0432089745922
-32.2179434699428
-39.1172619528463
-46.3848491585639
-53.7019043325928
-60.5668733691351
-67.3437706381358
-75.0115624680174
-83.8312227286315
-92.6879944263729
-100.075128392175
-105.573682672465
-110.031644373427
-114.319034252576
-118.3343438716
-121.508946709104
-124.001622557582
-126.840648674384
-130.699786537254
-134.881879115572
-137.905066290335
-139.047039964174
-138.971900380203
-138.752175730341
-138.637626773062
-138.146583559226
-137.21569500982
-136.711992248045
-137.489842539101
-139.182023330832
-140.362050259195
-139.982490799365
-138.350645937726
-136.506417789916
-134.915463882913
-133.193070989929
-131.109337710144
-129.374735915431
-129.005396651022
-130.013135755189
-131.153083203362
-131.152718019335
-129.945985751543
-128.440341853471
-127.239805152117
-126.037221509774
-124.400297855725
-122.759658356565
-122.128850494205
-122.8155396292
-123.807129727398
-123.71363254619
-122.155030656535
-119.911577617458
-117.759697074351
-115.578690326859
-112.859073996046
-109.809375965618
-107.436176069581
-106.362034655054
-105.894505293734
-104.621132600479
-101.861732864101
-98.2084053370775
-94.5726732861603
-91.0693370932343
-87.1897191964075
-82.9222450987238
-79.1762780282813
-76.8013175993498
-75.424701804005
-73.6701958611649
-70.5771222593431
-66.4915552242409
-62.3890759366785
-58.6123480049673
-54.7042356385224
-50.48293872045
-46.7929074047302
-44.7687955048681
-44.455196391364
-44.5704100545479
-43.7966486923341
-42.0315412573053
-40.0952634190077
-38.3849879292633
-36.2937443876921
-33.1387534265298
-29.3030380622018
-25.9856570678639
-23.7964169635314
-21.9975133079379
-19.4107025085584
-15.8785943125621
-12.4644894301081
-10.2043938445902
-9.05208790386996
-8.31689647360946
-7.87964049200815
-8.45946135343439
-10.5123601207812
-13.216477512053
-14.9493272487551
-14.7505130997273
-13.0040294249831
-10.6047219038555
-7.810715513746
-4.28003497810747
-0.105061061224347
3.72093867862327
6.19637556630488
7.47348519970815
8.74920670864469
10.9546870501507
13.8631597345338
16.6689959514049
19.1594961301877
21.8711307561208
25.0552788652722
27.9437692855553
29.447938063696
29.4913382578643
29.2456152129854
29.8965757770727
31.4603365267888
33.0989952660236
34.4252315418581
36.0148869367729
38.4485133917525
41.2167597973755
43.0592497200332
43.413711121543
43.1237639704628
43.4450875909581
44.5755515014916
45.5538454200331
45.5926732967087
45.0594091462461
44.8255170033872
44.9060870893089
44.2878018866542
42.2796450725922
39.6594093677013
38.0667217675918
38.3231899150888
39.7434239235036
41.2206495162425
42.5934890256735
44.5031351830349
47.0098364916166
48.9279443104808
48.9143123105213
47.0076091527432
44.6481880234477
43.1157717237905
42.3282776541993
41.433931263995
40.2826846785937
39.7638505983984
40.5697946188713
42.0872257832373
42.9802285583771
42.7872672426196
42.4777979201113
43.2394302686817
45.0585995840237
46.895852049665
48.1332031016928
49.3050042924574
51.1269347531315
53.169140241543
54.052584247059
53.0329361645714
50.9348961480377
49.1736851495104
48.0828662038561
46.6897764238787
44.1882110288471
41.1198673830628
38.659969838769
36.9381799750654
34.6703132873026
30.7068454006271
25.5679239784536
20.9743512384432
17.9343286259272
15.803654180695
13.4671975647486
11.0363318676209
9.81611865464455
10.6014776747954
12.5790022054701
14.3185051744423
15.5757963383724
17.5381868002649
21.1729315339358
25.8197142828484
29.8339736238771
32.3881365220071
34.0498355432273
35.4459061885905
35.9249560355929
34.1543419989317
29.9668738307179
25.0020525005147
21.180360994668
18.8822462148691
17.1122602887513
15.3208109244437
14.3664191947961
15.2702838507194
17.434186712652
18.8306212575887
18.127929757476
16.0986940940547
14.4857248833496
13.7739051815953
12.7497639133896
10.3820706363054
7.47692808337951
5.83814068012688
5.99070575395949
6.50960829639777
5.93753066603095
4.82235006030441
5.14950134985774
7.82386222675641
11.4561841890082
14.0388570450741
15.2854195144403
16.50979164155
18.214886191123
18.7224584766239
15.916669000735
10.0161192808969
3.73370774801044
-0.546278157306127
-3.02879132308464
-5.32419844796446
-7.47011082602425
-7.27522196444407
-3.09343316689901
3.53717621532578
9.06305229796194
11.7076860873213
13.1349610192197
15.7932124251205
19.3370601777735
20.8480103457165
18.6874899222476
14.9434830619234
13.0573773096449
13.475506814972
12.9582396769257
8.64040711896667
1.75148788993133
-3.83251289057185
-6.42186661431457
-8.46943162736381
-13.0164010841706
-19.2019903685349
-22.7914220902478
-21.2152170078394
-16.6277740495523
-12.9587886889384
-10.8453972270875
-7.2855828178629
-0.65279771350113
5.68008260308649
6.4232774728922
0.575380880515965
-7.54309818327948
-14.3907005805453
-22.6865292018067
-38.4403996364259
-62.4656546690403
-87.4889451342433
-106.070942136829
-120.619493474398
-142.294130771602
-177.746314115962
-217.910988743385
-242.598837756756
-237.558076719584
-206.412634559436
-165.374132833757
-127.626035817051
-94.501855812798
-60.5227371046342
-22.1252231325093
23.106625359214
85.4360903139909
185.770637742175
343.272775004061
556.953774347991
799.320719454123
1028.73518206037
1208.70632651619
1317.96202376626
1348.11573984849
1298.76750825027
1177.6742196996
1001.82339052864
791.667221004647
561.047417341613
314.908604911316
60.3351876853524
-180.717263749418
-374.725326570138
-497.993710395956
-556.623544662214
-583.51233400328
-612.942191918477
-656.171735574284
-699.915029931797
-725.619266157624
-727.658989152268
-713.559902397066
-691.104330306792
-660.077091657709
-617.566531246831
-568.119613477122
-524.964222265603
-500.26068073871
-495.290591912619
-500.595515542458
-504.284694055395
-499.071263449474
-482.814484396368
-455.921327234886
-420.716840335468
-382.399215083697
-347.597835501218
-320.108960333844
-298.521433132859
-279.131039680451
-260.864223979596
-245.922647268542
-235.169234727304
-224.408155138141
-207.186631168019
-181.663474638786
-153.487150428875
-130.831056578294
-116.867316852555
-107.888603441864
-98.5205103310258
-87.400410698092
-76.9871180110464
-68.8465523925734
-60.9724536312301
-50.3354477242537
-36.8516997837133
-23.422893416417
-12.1706176494162
-1.97747798894138
9.49169592970356
22.1467386020811
33.152175164129
40.4018710388889
45.2421711511711
50.8989275375218
58.6529876336883
66.6366620744794
72.6118411519055
76.9585541157049
82.0207875179748
88.8536691091378
95.7753873314424
100.628075800788
103.718734148103
107.547759257124
113.676734455436
120.796114523744
126.414324734832
129.864742572727
132.734030366513
136.331612410247
139.710929976428
140.915790341044
139.76931613357
138.451894863565
139.027588258236
141.084746422631
142.485946315324
142.156678969383
141.257918308452
141.33001980092
142.027499146291
141.551817247316
139.239479840678
136.841770988748
136.703250802681
139.096792960472
142.076247385484
143.940150999608
145.069085972472
146.842121894526
149.244377817218
150.478674481146
149.183167936474
146.350306417797
144.372494485342
144.363940246036
145.132968566705
145.011764900929
144.065126574425
143.814302454869
144.964786166567
146.260829921167
146.052922282532
144.526594034154
143.6180003876
144.647399838835
146.681196700328
147.688461402635
146.950917848163
145.638205047562
144.946149646949
144.397042121313
142.616576926269
139.556722012803
137.163680665197
137.483996599311
140.528722879883
144.524304475722
148.105141110109
151.589189694741
155.829668788588
160.386347684232
163.604735477466
164.571677097326
164.352230091268
164.80565481334
166.431621898941
167.946937700875
168.019835348411
166.818551162676
165.394610726031
163.87087977098
160.992399962457
155.731764970071
148.832478956902
142.176837597127
136.691630793749
131.423064487782
124.894458118926
116.916840921617
108.523445503513
100.257750050956
91.2364974813831
80.3301394550726
67.9118701220947
55.7892251304107
45.2845681076306
35.8699190138342
26.0592486854517
15.3399158804123
4.6343208221166
-5.19561594411954
-14.6610458698732
-24.9019600341869
-35.82056021236
-45.6325426783598
-52.6044817660224
-56.8906871461625
-60.2032760121182
-63.8064052561199
-67.4231909989939
-70.3516676986373
-73.1294904359613
-77.3704477409031
-83.8598617703783
-91.3813810120813
-97.8903577331593
-102.647139102652
-106.695676054825
-111.213284294969
-115.957963618317
-119.792164291929
-122.45202992312
-125.090595354315
-128.796994566575
-133.03518346356
-136.112497966864
-137.153745147255
-137.091333874952
-137.463859762208
-138.641912760247
-139.758217425844
-140.28776729341
-141.026090973344
-143.062511077584
-146.090666437297
-148.370551499743
-148.537472013204
-147.027877053092
-145.363310923326
-144.288571735341
-143.180276786414
-141.382304054879
-139.539671009025
-139.021939419847
-140.118667411165
-141.405470031595
-141.22072672718
-139.454551631937
-137.429022579852
-136.101353487426
-134.940136064706
-132.857778163912
-129.843017523031
-127.046568162948
-125.180374472176
-123.382610548963
-120.1352681501
-115.141487999363
-109.802489607332
-105.731362223359
-103.225828115721
-101.552922222854
-100.43719221722
-100.590203441416
-102.5094023995
-105.203041396345
-106.690003547739
-105.806597259626
-103.109954200192
-99.8223781056086
-96.281517248311
-91.907064836333
-86.5689994603862
-81.3164962831212
-77.3001820793548
-74.2338201822383
-70.5040356176024
-64.9579249131708
-58.1877263693096
-51.7324515536283
-46.2823680931577
-41.2129205136449
-35.9583219164285
-31.2648864109964
-28.5191350580045
-27.9382582930049
-28.0107416644397
-27.0327192042345
-24.8880243068431
-22.8954246129569
-22.0234922432553
-21.8142433131334
-21.3173234832926
-20.6345823792897
-20.8945799680918
-22.6280031327429
-24.7156623571622
-25.3904738527346
-24.0950705176474
-21.8709092882048
-19.8687795961354
-17.9881073631515
-15.3866774446965
