Value(μV)
9.25092315673828
12.6842555999756
11.5398111343384
7.6296272277832
15.0685138702393
19.5509204864502
15.5453653335571
9.25092315673828
3.33796191215515
0.381481349468231
4.00555419921875
10.7768487930298
7.43888664245605
-0.667592406272888
-2.1935179233551
-1.9074068069458
1.71666610240936
8.86944198608398
8.67870044708252
4.48240613937378
7.53425693511963
9.44166374206543
10.6814785003662
18.6925868988037
20.9814739227295
14.4009208679199
11.1583299636841
14.4009208679199
13.7333288192749
8.48795986175537
-1.04907369613647
-23.0796222686768
-44.0610961914063
-72.0046081542969
-123.218475341797
-169.282348632813
-199.133270263672
-217.92121887207
-231.845291137695
-237.472152709961
-201.803634643555
-150.971252441406
-122.741630554199
-99.0897827148438
-84.8796005249023
-73.3397903442383
-19.9324016571045
59.4157218933105
110.724967956543
206.286041259766
432.123016357422
708.887756347656
972.872863769531
1219.40515136719
1373.80969238281
1416.91711425781
1414.81896972656
1321.16528320313
1099.90612792969
857.09326171875
631.351623535156
404.560974121094
162.606430053711
-124.172180175781
-383.293395996094
-515.667419433594
-562.017395019531
-596.064636230469
-614.852600097656
-622.196105957031
-648.041442871094
-692.6748046875
-737.689575195313
-768.494201660156
-771.45068359375
-737.02197265625
-680.276611328125
-612.182189941406
-537.411865234375
-487.819274902344
-472.846130371094
-479.140594482422
-495.544281005859
-503.746124267578
-506.321136474609
-489.631317138672
-437.654479980469
-379.955444335938
-331.507293701172
-292.310089111328
-272.091583251953
-269.421203613281
-275.238800048828
-281.437866210938
-281.437866210938
-266.273986816406
-236.518447875977
-199.133270263672
-157.265686035156
-122.455513000488
-107.291633605957
-108.054595947266
-110.820335388184
-110.534225463867
-108.722190856934
-100.329597473145
-78.2036819458008
-44.6333198547363
-17.6435127258301
-5.91296100616455
-2.67036962509155
-1.81203651428223
-0.572222054004669
6.00833129882813
18.2157344818115
29.1833248138428
36.7175827026367
37.5759124755859
34.810173034668
43.2027626037598
60.274055480957
74.4842376708984
83.3536758422852
85.6425628662109
91.269416809082
99.4712677001953
95.084228515625
92.5092315673828
98.899040222168
100.329597473145
101.569412231445
104.62126159668
108.149963378906
112.25089263916
111.011077880859
119.785148620605
134.66291809082
129.417556762695
120.262001037598
122.360145568848
119.308296203613
111.869407653809
113.967559814453
126.461067199707
143.246246337891
150.112915039063
142.292541503906
139.526809692383
133.232360839844
116.924034118652
116.637924194336
122.074035644531
117.114776611328
117.400886535645
132.374038696289
148.205505371094
149.826797485352
142.006439208984
133.709213256836
125.507369995117
114.444404602051
109.00830078125
118.831443786621
131.801803588867
140.575881958008
151.448104858398
159.459213256836
156.788833618164
147.919403076172
135.139770507813
128.749954223633
131.706436157227
132.183288574219
136.856430053711
150.303649902344
164.227722167969
174.050872802734
167.470321655273
153.83235168457
150.017547607422
146.774948120117
145.2490234375
148.491622924805
152.974029541016
163.464767456055
184.160125732422
204.092529296875
210.196228027344
207.811965942383
204.092529296875
198.465682983398
192.743453979492
188.642532348633
184.160125732422
183.969390869141
187.87956237793
189.024017333984
187.974945068359
180.440689086914
164.036987304688
148.873107910156
137.142547607422
127.128662109375
118.73607635498
111.774040222168
109.771263122559
107.673110961914
100.424964904785
93.1768188476563
78.4897918701172
54.5518341064453
35.0962867736816
28.9925842285156
27.3712882995605
22.6981410980225
19.4555492401123
13.3518476486206
7.53425693511963
2.76573991775513
-17.1666603088379
-48.3527641296387
-71.5277557373047
-83.4490509033203
-86.5962677001953
-72.3860855102539
-55.9823913574219
-53.9796104431152
-55.6009063720703
-62.3722038269043
-77.345344543457
-90.6018218994141
-100.806449890137
-113.967559814453
-123.504592895508
-121.883293151855
-123.027740478516
-126.174957275391
-126.07958984375
-131.515701293945
-134.472183227539
-136.188842773438
-141.338836669922
-142.197174072266
-138.096252441406
-133.804580688477
-135.616622924805
-136.856430053711
-132.850875854492
-131.897186279297
-134.853652954102
-138.668472290039
-141.529586791992
-146.679580688477
-151.73420715332
-152.211059570313
-150.017547607422
-144.676803588867
-138.382369995117
-137.142547607422
-134.949035644531
-130.561996459961
-131.897186279297
-131.706436157227
-127.700881958008
-128.654586791992
-130.657363891602
-128.940704345703
-130.943481445313
-139.431442260742
-144.295318603516
-142.197174072266
-137.333282470703
-127.605514526367
-118.926811218262
-121.215698242188
-128.845321655273
-135.139770507813
-136.284210205078
-124.458290100098
-113.681442260742
-115.016632080078
-106.910148620605
-93.5583038330078
-92.5092315673828
-94.2258987426758
-89.2666397094727
-83.0675659179688
-80.8740463256836
-80.9694213867188
-80.111083984375
-75.5333099365234
-72.6721954345703
-65.805534362793
-52.5490570068359
-57.7944259643555
-69.4296035766602
-62.8490524291992
-61.6092376708984
-65.3286819458008
-59.1296119689941
-57.3175735473633
-52.9305381774902
-39.6740608215332
-30.70924949646
-28.6111011505127
-29.9462871551514
-37.3851737976074
-45.0148010253906
-42.5351715087891
-42.0583190917969
-47.5897979736328
-39.5786895751953
-22.6027698516846
-16.30832862854
-14.2101802825928
-6.48518323898315
-4.67314672470093
-15.4499950408936
-19.8370304107666
-11.3490705490112
-10.2999963760376
-17.738883972168
-16.30832862854
-7.6296272277832
0.9537034034729
4.00555419921875
6.6759238243103
15.6407356262207
17.357400894165
9.44166374206543
5.24536848068237
9.15555286407471
20.0277709960938
24.5101776123047
19.9324016571045
22.9842510223389
27.5620288848877
24.891658782959
22.9842510223389
16.4990692138672
5.7222204208374
6.77129411697388
13.4472179412842
16.7851791381836
24.4148063659668
34.2379531860352
36.9083213806152
31.9490642547607
28.7064723968506
29.278694152832
28.3249912261963
24.4148063659668
23.2703628540039
28.8018417358398
28.6111011505127
25.3685111999512
32.6166572570801
37.2898025512695
37.2898025512695
35.9546165466309
36.431468963623
46.6360969543457
51.9768333435059
48.3527641296387
52.8351669311523
60.274055480957
53.5981292724609
46.9222068786621
47.7805404663086
40.8185043334961
34.5240631103516
35.5731353759766
35.0009155273438
30.995361328125
29.278694152832
34.0472106933594
41.7722091674805
50.4509086608887
53.2166481018066
48.6388740539551
47.6851692199707
53.0259094238281
58.0805358886719
52.6444282531738
46.4453544616699
51.5953521728516
53.4073905944824
48.066650390625
46.9222068786621
48.3527641296387
44.0610961914063
39.2925796508789
48.066650390625
56.1731300354004
54.6472053527832
56.6499824523926
54.2657241821289
46.4453544616699
40.4370231628418
37.6712837219238
35.8592491149902
26.226842880249
24.7009181976318
29.5648059844971
23.1749935150146
24.2240657806396
31.1861019134521
27.5620288848877
27.1805477142334
29.278694152832
26.8944358825684
27.4666576385498
26.7990646362305
21.6490669250488
18.9786968231201
24.3194370269775
32.2351760864258
42.5351715087891
55.219425201416
56.7453536987305
60.5601654052734
65.137939453125
59.7972030639648
57.2222023010254
52.8351669311523
50.7370223999023
52.2629470825195
47.8759117126465
49.4018363952637
48.6388740539551
36.1453590393066
31.1861019134521
38.2435073852539
45.0148010253906
48.734245300293
50.4509086608887
44.6333198547363
30.6138782501221
19.6462898254395
15.5453653335571
12.4935140609741
10.0138854980469
6.19907188415527
4.48240613937378
14.3055505752563
19.1694374084473
10.6814785003662
8.77407169342041
8.86944198608398
13.256477355957
22.2212886810303
16.5944385528564
9.82314491271973
9.537034034729
4.38703584671021
4.57777643203735
4.7685170173645
1.62129580974579
6.29444265365601
9.34629344940186
8.67870044708252
4.7685170173645
-2.67036962509155
-3.91018390655518
-2.38425850868225
2.47962880134583
2.1935179233551
-17.2620315551758
-42.7259140014648
-72.0999755859375
-112.060150146484
-149.254577636719
-184.827713012695
-218.493453979492
-236.136962890625
-242.908248901367
-222.975860595703
-167.851791381836
-125.507369995117
-113.967559814453
-106.051818847656
-94.416633605957
-66.4731292724609
3.43333220481873
78.394416809082
142.864776611328
292.691558837891
540.940551757813
806.070129394531
1061.47192382813
1263.65698242188
1355.1171875
1382.67919921875
1360.07641601563
1200.23571777344
958.185791015625
745.41455078125
543.324829101563
306.615631103516
22.8888816833496
-267.895294189453
-473.704467773438
-559.919250488281
-588.053527832031
-605.220153808594
-612.563720703125
-622.291442871094
-657.197021484375
-710.795166015625
-748.657165527344
-755.237731933594
-734.351623535156
-684.949768066406
-613.135925292969
-542.085021972656
-491.538726806641
-468.649841308594
-467.123931884766
-481.620208740234
-509.277618408203
-525.8720703125
-514.904479980469
-479.808166503906
-422.967468261719
-362.502655029297
-315.294342041016
-281.437866210938
-262.64990234375
-261.314727783203
-275.906402587891
-283.917510986328
-270.756408691406
-247.009185791016
-208.670303344727
-160.031433105469
-132.660140991211
-118.44995880127
-96.2286758422852
-86.1194152832031
-94.8934860229492
-103.095336914063
-108.912925720215
-104.525894165039
-74.1027526855469
-44.0610961914063
-29.9462871551514
-8.96481227874756
6.77129411697388
5.1499981880188
10.0138854980469
22.125919342041
25.8453617095947
31.8536930084229
45.4916534423828
52.0722045898438
57.1268348693848
68.3805313110352
73.4351654052734
71.7184982299805
78.2990493774414
90.8879318237305
98.1360778808594
99.3758926391602
100.615707397461
102.427742004395
100.711082458496
100.234230041504
100.711082458496
96.8962631225586
101.37866973877
118.831443786621
129.131439208984
129.799026489258
129.799026489258
124.839775085449
122.074035644531
125.411994934082
125.602737426758
122.93236541748
130.752731323242
148.205505371094
155.453659057617
157.742538452148
153.069396972656
139.145324707031
130.848098754883
122.646255493164
117.973114013672
121.024963378906
122.550888061523
132.946258544922
146.393478393555
153.546249389648
158.600875854492
153.069396972656
137.237915039063
119.117553710938
108.436073303223
106.337928771973
110.915702819824
124.458290100098
140.194396972656
155.549026489258
159.840682983398
147.251800537109
135.616622924805
131.515701293945
128.36848449707
128.749954223633
136.093475341797
145.153656005859
152.687911987305
155.644393920898
156.02587890625
158.028656005859
146.298095703125
123.123107910156
117.400886535645
122.360145568848
128.559219360352
146.870330810547
161.843460083008
169.568466186523
177.865676879883
183.015686035156
182.443466186523
170.903656005859
166.993469238281
172.429580688477
171.571243286133
173.478652954102
185.113830566406
198.179565429688
200.468460083008
195.986053466797
186.925872802734
163.178649902344
141.434219360352
132.56477355957
119.308296203613
108.817558288574
116.924034118652
121.597183227539
108.626815795898
93.9397811889648
85.2610855102539
72.0046081542969
50.355541229248
31.3768424987793
18.5972156524658
14.1148099899292
14.8777732849121
6.48518323898315
-1.9074068069458
0.762962698936462
-8.3925895690918
-34.1425819396973
-46.8268356323242
-51.3092422485352
-60.3694267272949
-60.9416465759277
-56.936092376709
-62.0860900878906
-63.2305335998535
-58.7481307983398
-67.9990539550781
-82.3046035766602
-90.8879318237305
-102.809226989746
-113.299964904785
-112.060150146484
-108.722190856934
-110.534225463867
-111.678665161133
-111.011077880859
-112.823112487793
-119.212921142578
-120.166625976563
-125.602737426758
-141.529586791992
-147.824020385742
-151.257354736328
-153.069396972656
-143.913848876953
-142.674026489258
-146.393478393555
-139.526809692383
-142.769393920898
-152.687911987305
-148.586990356445
-143.15087890625
-140.385147094727
-139.240692138672
-141.720321655273
-138.096252441406
-132.660140991211
-136.76106262207
-141.243469238281
-141.243469238281
-142.197174072266
-148.777725219727
-158.600875854492
-149.63606262207
-134.376815795898
-141.624954223633
-138.096252441406
-119.68977355957
-113.872184753418
-105.384223937988
-98.7083053588867
-105.670333862305
-111.678665161133
-119.403663635254
-126.174957275391
-121.501815795898
-118.44995880127
-118.163848876953
-104.239784240723
-86.6916351318359
-84.8796005249023
-90.6018218994141
-87.8360824584961
-81.9231185913086
-82.9721984863281
-84.6888580322266
-81.6370086669922
-76.4870147705078
-76.0101623535156
-77.1546020507813
-69.5249786376953
-62.3722038269043
-57.6036834716797
-54.5518341064453
-58.7481307983398
-59.1296119689941
-53.0259094238281
-54.0749816894531
-59.7972030639648
-61.323127746582
-58.1759071350098
-48.734245300293
-45.3962821960449
-45.8731346130371
-36.2407302856445
-32.2351760864258
-31.7583236694336
-33.3796195983887
-41.7722091674805
-36.9083213806152
-31.1861019134521
-26.4175834655762
-7.24814605712891
-1.62129580974579
-11.7305517196655
-14.7824029922485
-19.1694374084473
-24.891658782959
-20.9814739227295
-16.4036979675293
-14.8777732849121
-9.72777462005615
0
5.53147983551025
2.38425850868225
2.67036962509155
8.10647869110107
2.28888821601868
-1.43055510520935
16.30832862854
30.1370277404785
25.9407329559326
23.8425846099854
21.4583263397217
16.022216796875
14.3055505752563
13.8286991119385
18.2157344818115
25.0823993682861
30.1370277404785
35.0962867736816
37.099063873291
35.5731353759766
38.148136138916
43.679615020752
37.6712837219238
27.5620288848877
27.4666576385498
27.0851764678955
28.9925842285156
41.3907279968262
47.017578125
42.5351715087891
41.7722091674805
41.4860992431641
39.864803314209
41.6768379211426
42.7259140014648
37.7666549682617
30.2323970794678
32.8073959350586
41.962947845459
45.0148010253906
49.2110939025879
53.7888717651367
50.1647987365723
46.0638732910156
46.4453544616699
46.1592445373535
37.8620262145996
31.7583236694336
44.3472061157227
60.274055480957
69.5249786376953
75.5333099365234
65.805534362793
54.0749816894531
53.4073905944824
46.7314682006836
35.4777679443359
34.0472106933594
43.679615020752
50.5462799072266
50.2601699829102
48.4481315612793
43.8703575134277
43.9657249450684
45.3962821960449
36.6222114562988
32.3305435180664
32.9027671813965
28.3249912261963
28.1342506408691
29.7555465698242
27.657398223877
27.1805477142334
26.3222141265869
25.0823993682861
25.8453617095947
20.1231422424316
15.9268465042114
23.4611034393311
27.3712882995605
34.1425819396973
51.6907234191895
59.1296119689941
57.2222023010254
52.1675758361816
42.2490615844727
40.6277656555176
46.3499870300293
51.3092422485352
56.0777587890625
61.7046089172363
67.7129440307617
64.4703521728516
56.4592399597168
52.6444282531738
49.9740562438965
47.017578125
39.1018409729004
30.8999900817871
28.6111011505127
29.278694152832
33.9518394470215
27.657398223877
14.9731435775757
22.6027698516846
33.6657295227051
30.2323970794678
27.2759170532227
23.8425846099854
19.9324016571045
19.4555492401123
16.7851791381836
20.2185115814209
25.0823993682861
20.409252166748
12.7796258926392
8.0111083984375
6.86666440963745
11.1583299636841
17.2620315551758
9.9185152053833
-3.05185079574585
-4.7685170173645
0
7.43888664245605
10.204626083374
4.00555419921875
4.29166507720947
12.302773475647
15.1638841629028
12.9703664779663
11.9212923049927
8.0111083984375
0.667592406272888
-0.667592406272888
-0.286111027002335
-8.10647869110107
-20.1231422424316
-31.9490642547607
-54.4564628601074
-92.0323791503906
-129.036071777344
-169.759201049805
-213.248077392578
-226.218444824219
-221.449935913086
-211.245300292969
-164.323089599609
-109.294410705566
-89.4573822021484
-78.9666442871094
-50.355541229248
-17.9296245574951
16.30832862854
65.137939453125
122.074035644531
210.673080444336
373.184143066406
615.7109375
877.979370117188
1058.80151367188
1130.61535644531
1164.28112792969
1176.01171875
1073.20239257813
890.94970703125
746.940490722656
600.928527832031
401.795227050781
146.011993408203
-121.787925720215
-292.310089111328
-368.892486572266
-411.809112548828
-433.553558349609
-462.641510009766
-509.945220947266
-559.4423828125
-605.983154296875
-649.853515625
-678.846069335938
-676.366455078125
-649.185913085938
-610.847045898438
-557.725769042969
-491.443359375
-435.556335449219
-415.147094726563
-421.346160888672
-435.556335449219
-454.630401611328
-465.788726806641
-455.870239257813
-419.534118652344
-361.835083007813
-311.288787841797
-276.097137451172
-244.338806152344
-227.362884521484
-234.611038208008
-245.864730834961
-246.723068237305
-241.57307434082
-227.935119628906
-193.601791381836
-151.543472290039
-127.319404602051
-106.433296203613
-85.4518280029297
-89.0758972167969
-101.283302307129
-97.6592254638672
-89.4573822021484
-76.6777496337891
-54.170352935791
-33.2842483520508
-19.074068069458
-6.00833129882813
4.1962947845459
6.58055353164673
2.47962880134583
2.47962880134583
9.82314491271973
14.4962921142578
17.0712909698486
31.3768424987793
45.4916534423828
46.3499870300293
47.3036880493164
54.0749816894531
67.7129440307617
82.5907135009766
75.3425674438477
64.9472045898438
76.3916397094727
88.5990447998047
93.1768188476563
98.2314529418945
104.049041748047
113.20458984375
121.787925720215
130.085144042969
137.524032592773
134.281433105469
124.553665161133
116.828666687012
107.005523681641
96.5147857666016
94.8934860229492
105.86107635498
119.880516052246
131.134216308594
136.474960327148
135.330505371094
132.46940612793
127.986999511719
127.700881958008
128.940704345703
125.698104858398
125.984222412109
132.850875854492
146.965698242188
160.699020385742
156.02587890625
146.202728271484
143.055511474609
128.559219360352
115.111999511719
113.109222412109
111.487930297852
117.210144042969
136.474960327148
151.257354736328
144.104583740234
133.613845825195
125.411994934082
112.155517578125
107.482376098633
109.96199798584
111.869407653809
123.313850402832
138.85920715332
143.15087890625
144.676803588867
151.161987304688
144.486068725586
118.44995880127
102.809226989746
107.482376098633
109.96199798584
112.346260070801
130.943481445313
151.829574584961
166.70735168457
177.007354736328
173.478652954102
155.930511474609
139.526809692383
131.992553710938
127.033294677734
124.744407653809
131.706436157227
144.772171020508
147.633285522461
140.671249389648
136.379592895508
129.703659057617
113.872184753418
98.8036727905273
91.8416366577148
87.0731201171875
80.111083984375
78.2990493774414
81.16015625
70.7647933959961
56.3638725280762
51.9768333435059
36.2407302856445
12.7796258926392
2.28888821601868
-10.0138854980469
-25.2731399536133
-24.0333251953125
-12.6842555999756
-5.53147983551025
-7.34351634979248
-21.9351787567139
-38.6249885559082
-48.5435028076172
-60.9416465759277
-72.2907180786133
-76.296272277832
-78.6805267333984
-78.9666442871094
-69.6203460693359
-60.274055480957
-67.4268264770508
-78.4897918701172
-87.9314498901367
-97.182373046875
-96.6101531982422
-94.3212661743164
-92.6999740600586
-87.8360824584961
-84.4027481079102
-84.1166381835938
-85.8333053588867
-88.3129348754883
-95.3703384399414
-104.716636657715
-109.771263122559
-114.444404602051
-120.166625976563
-117.782371520996
-106.910148620605
-108.245338439941
-121.883293151855
-121.787925720215
-118.44995880127
-123.504592895508
-122.074035644531
-118.44995880127
-114.539779663086
-106.242561340332
-101.187927246094
-100.711082458496
-102.046264648438
-102.809226989746
-103.286079406738
-104.049041748047
-101.092559814453
-104.812004089355
-119.308296203613
-126.937919616699
-122.550888061523
-121.215698242188
-125.125885009766
-121.501815795898
-111.487930297852
-106.814781188965
-105.288856506348
-97.7546005249023
-94.2258987426758
-99.2805252075195
-99.6620025634766
-98.7083053588867
-100.043487548828
-97.4684906005859
-91.9370040893555
-84.0212707519531
-80.6833038330078
-83.5444183349609
-80.8740463256836
-77.1546020507813
-76.4870147705078
-76.9638671875
-78.9666442871094
-72.9583129882813
-61.8953514099121
-53.5981292724609
-45.5870208740234
-37.7666549682617
-34.9055442810059
-42.9166526794434
-57.0314636230469
-64.2796096801758
-66.3777542114258
-60.274055480957
-45.3962821960449
-39.3879508972168
-35.2870254516602
-24.6055469512939
-20.5999927520752
-27.3712882995605
-38.148136138916
-41.1046180725098
-36.431468963623
-36.6222114562988
-30.5185089111328
-15.7361059188843
-15.0685138702393
-16.6898097991943
-8.67870044708252
-6.58055353164673
-13.0657367706299
-14.1148099899292
-6.6759238243103
-3.71944332122803
-2.00277709960938
3.147221326828
0.858333051204681
0.572222054004669
6.86666440963745
10.2999963760376
16.4036979675293
18.8833274841309
10.0138854980469
-0.0953703373670578
-4.57777643203735
2.47962880134583
13.9240694046021
21.0768451690674
23.8425846099854
21.2675857543945
21.839807510376
29.1833248138428
25.3685111999512
11.8259220123291
11.2537002563477
18.5018463134766
21.6490669250488
28.8018417358398
33.2842483520508
30.4231376647949
30.8999900817871
26.0361022949219
13.0657367706299
6.77129411697388
14.1148099899292
23.6518440246582
28.5157318115234
33.0935096740723
35.5731353759766
36.8129501342773
38.3388748168945
34.9055442810059
30.6138782501221
30.4231376647949
29.6601753234863
25.5592517852783
25.9407329559326
29.7555465698242
29.3740653991699
30.4231376647949
36.2407302856445
35.6685066223145
24.7962875366211
20.1231422424316
26.7036952972412
32.2351760864258
37.2898025512695
45.7777633666992
47.017578125
39.2925796508789
37.0036926269531
39.1018409729004
33.6657295227051
34.1425819396973
44.1564674377441
41.1999855041504
41.4860992431641
57.3175735473633
65.805534362793
68.8573837280273
72.9583129882813
75.4379425048828
76.5823822021484
69.6203460693359
59.3203506469727
56.6499824523926
56.8407211303711
56.8407211303711
62.9444236755371
68.0944213867188
65.805534362793
62.5629425048828
55.9823913574219
47.8759117126465
45.0148010253906
33.2842483520508
28.4203605651855
38.2435073852539
31.2814712524414
16.8805503845215
16.5944385528564
23.9379558563232
32.9027671813965
41.1999855041504
43.8703575134277
39.3879508972168
30.5185089111328
23.7472152709961
22.7935104370117
18.1203651428223
14.687032699585
19.4555492401123
21.1722145080566
25.5592517852783
29.1833248138428
24.3194370269775
31.2814712524414
38.2435073852539
29.3740653991699
26.226842880249
26.7036952972412
21.4583263397217
19.2648086547852
20.7907333374023
24.1286964416504
24.2240657806396
15.35462474823
7.34351634979248
6.77129411697388
7.24814605712891
0.572222054004669
-18.2157344818115
-49.2110939025879
-84.3073806762695
-119.785148620605
-160.22216796875
-197.798080444336
-214.869369506836
-225.169372558594
-220.11474609375
-168.90087890625
-115.111999511719
-97.182373046875
-85.0703430175781
-61.1323890686035
-32.2351760864258
14.8777732849121
87.3592300415039
147.251800537109
221.926788330078
393.974884033203
652.809997558594
926.236755371094
1138.91259765625
1240.00512695313
1279.67919921875
1308.48107910156
1232.47094726563
1039.91821289063
846.221008300781
654.717407226563
434.316528320313
175.099945068359
-102.61848449707
-317.106384277344
-432.027648925781
-476.660949707031
-499.168365478516
-530.354431152344
-560.872985839844
-584.238708496094
-623.245178222656
-682.565551757813
-726.054382324219
-729.392333984375
-698.110900878906
-647.278503417969
-587.958129882813
-527.302612304688
-475.993377685547
-452.246154785156
-456.919311523438
-472.464660644531
-491.061889648438
-499.740570068359
-476.279479980469
-427.735961914063
-379.764678955078
-335.989715576172
-300.130462646484
-280.198059082031
-269.802703857422
-273.4267578125
-286.015655517578
-285.061950683594
-266.369354248047
-238.616592407227
-209.337890625
-177.007354736328
-145.916625976563
-125.602737426758
-114.25366973877
-114.921257019043
-117.59162902832
-114.635147094727
-107.95922088623
-87.5499725341797
-63.4212760925293
-45.4916534423828
-23.8425846099854
-2.1935179233551
7.72499752044678
9.34629344940186
16.8805503845215
27.1805477142334
30.8046188354492
35.7638778686523
43.7749862670898
49.3064651489258
57.2222023010254
67.0453491210938
70.4786834716797
77.6314544677734
92.5092315673828
107.673110961914
123.027740478516
123.9814453125
118.068481445313
123.409217834473
119.880516052246
101.092559814453
93.5583038330078
100.424964904785
106.051818847656
117.019409179688
132.850875854492
133.899963378906
126.842552185059
122.741630554199
120.357368469238
118.545333862305
117.782371520996
120.73885345459
127.224029541016
134.281433105469
139.145324707031
140.861999511719
137.524032592773
124.172180175781
106.910148620605
98.9944152832031
102.904594421387
114.539779663086
124.93514251709
134.758285522461
143.436996459961
136.66569519043
125.221252441406
123.886070251465
115.49348449707
97.9453353881836
91.269416809082
97.7546005249023
114.158294677734
133.518478393555
145.43977355957
149.445327758789
146.107360839844
141.148101806641
135.044403076172
127.986999511719
126.365699768066
127.414772033691
131.420333862305
147.919403076172
161.938842773438
155.262908935547
150.399032592773
155.644393920898
142.292541503906
125.793479919434
127.796257019043
130.180511474609
136.856430053711
153.546249389648
170.236053466797
182.443466186523
185.113830566406
188.642532348633
187.688827514648
168.996246337891
158.886993408203
161.748092651367
161.080505371094
166.898101806641
174.241607666016
173.478652954102
174.432357788086
175.099945068359
162.987915039063
141.052734375
121.978668212891
111.583297729492
105.384223937988
100.806449890137
97.849967956543
92.8907089233398
84.6888580322266
72.8629379272461
60.0833129882813
46.6360969543457
26.8944358825684
5.53147983551025
-8.48795986175537
-7.43888664245605
-0.47685170173645
-1.23981440067291
-7.43888664245605
-15.9268465042114
-20.5999927520752
-24.0333251953125
-36.0499877929688
-52.3583183288574
-65.0425720214844
-73.3397903442383
-78.5851593017578
-79.9203414916992
-83.925895690918
-90.220344543457
-93.367561340332
-102.046264648438
-112.155517578125
-115.207366943359
-118.068481445313
-118.640701293945
-116.637924194336
-118.73607635498
-116.637924194336
-106.719413757324
-110.057373046875
-125.030517578125
-132.46940612793
-132.850875854492
-132.278656005859
-137.524032592773
-138.477737426758
-133.232360839844
-135.044403076172
-138.382369995117
-138.286987304688
-138.76383972168
-144.104583740234
-145.058288574219
-136.474960327148
-132.660140991211
-138.477737426758
-147.919403076172
-149.826797485352
-136.76106262207
-122.741630554199
-120.071258544922
-121.501815795898
-121.597183227539
-116.828666687012
-109.103668212891
-109.771263122559
-113.681442260742
-109.199035644531
-106.337928771973
-107.95922088623
-103.667556762695
-98.0407104492188
-95.6564483642578
-94.8934860229492
-97.9453353881836
-101.950889587402
-99.948112487793
-92.986083984375
-91.9370040893555
-101.855522155762
-109.103668212891
-106.242561340332
-101.950889587402
-99.7573776245117
-94.3212661743164
-86.3101577758789
-82.3999710083008
-82.3999710083008
-89.5527496337891
-92.6045989990234
-77.7268295288086
-64.9472045898438
-58.5573883056641
-44.3472061157227
-41.1046180725098
-53.8842430114746
-51.9768333435059
-44.9194297790527
-51.4999847412109
-50.2601699829102
-42.7259140014648
-38.148136138916
-29.278694152832
-27.5620288848877
-29.3740653991699
-21.839807510376
-16.022216796875
-16.30832862854
-18.1203651428223
-29.278694152832
-43.1073951721191
-36.431468963623
-22.8888816833496
-16.6898097991943
-10.5861072540283
-13.4472179412842
-15.8314762115479
-16.022216796875
-21.7444381713867
-16.5944385528564
-9.34629344940186
-13.5425882339478
-14.3055505752563
-9.34629344940186
-5.24536848068237
-0.858333051204681
3.43333220481873
2.09814739227295
-2.38425850868225
-3.91018390655518
-3.24259161949158
0.47685170173645
7.53425693511963
16.4990692138672
22.4120292663574
20.409252166748
19.1694374084473
19.7416610717773
21.9351787567139
22.8888816833496
14.7824029922485
7.43888664245605
1.23981440067291
6.29444265365601
23.0796222686768
24.7962875366211
22.9842510223389
28.8972129821777
25.7499923706055
23.7472152709961
28.6111011505127
32.6166572570801
37.0036926269531
40.7231369018555
44.6333198547363
50.832389831543
52.8351669311523
49.1157264709473
45.3962821960449
41.6768379211426
35.8592491149902
32.04443359375
32.2351760864258
35.0962867736816
41.962947845459
50.9277610778809
53.8842430114746
53.8842430114746
51.5953521728516
46.7314682006836
43.2981338500977
41.2953567504883
39.7694320678711
39.6740608215332
45.3962821960449
48.6388740539551
45.7777633666992
50.1647987365723
52.453685760498
45.4916534423828
39.0064697265625
32.3305435180664
32.9981384277344
40.4370231628418
44.7286911010742
53.121280670166
64.6610870361328
67.8083114624023
60.4647941589355
48.9249839782715
45.7777633666992
53.7888717651367
57.6036834716797
50.2601699829102
42.4398002624512
41.962947845459
45.1101722717285
38.2435073852539
24.5101776123047
21.6490669250488
23.8425846099854
18.0249938964844
14.9731435775757
21.839807510376
28.2296199798584
35.1916542053223
38.5296173095703
25.5592517852783
13.3518476486206
16.30832862854
21.9351787567139
25.177770614624
24.1286964416504
24.0333251953125
22.4120292663574
15.4499950408936
19.360179901123
27.2759170532227
28.8972129821777
31.9490642547607
37.5759124755859
43.8703575134277
45.4916534423828
41.3907279968262
38.8157272338867
36.6222114562988
34.6194343566895
33.9518394470215
36.3360977172852
39.197208404541
37.5759124755859
35.6685066223145
32.8073959350586
28.7064723968506
28.2296199798584
24.7962875366211
16.9759197235107
14.2101802825928
16.4036979675293
22.125919342041
26.9898052215576
21.7444381713867
15.2592544555664
18.3111057281494
19.1694374084473
21.4583263397217
26.3222141265869
16.4036979675293
3.71944332122803
-2.09814739227295
-6.86666440963745
-6.96203470230103
-2.09814739227295
1.62129580974579
-4.48240613937378
-10.5861072540283
-6.96203470230103
-8.96481227874756
-23.0796222686768
-31.4722118377686
-31.5675830841064
-32.3305435180664
-20.5999927520752
-9.63240432739258
-12.7796258926392
-7.43888664245605
-0.190740674734116
-4.57777643203735
-4.1962947845459
1.81203651428223
-0.381481349468231
-1.71666610240936
-4.1962947845459
-20.1231422424316
-52.3583183288574
-95.751823425293
-138.668472290039
-181.203643798828
-211.340667724609
-219.351776123047
-217.444381713867
-191.122161865234
-137.047180175781
-101.283302307129
-98.9944152832031
-96.4194107055664
-81.6370086669922
-45.4916534423828
30.6138782501221
99.5666351318359
167.470321655273
340.376739501953
599.497985839844
863.006225585938
1119.93395996094
1313.91711425781
1386.49401855469
1397.55700683594
1357.11999511719
1183.06909179688
935.5830078125
716.517333984375
500.885009765625
252.826766967773
-20.3138828277588
-290.116577148438
-481.238739013672
-562.11279296875
-594.252563476563
-608.748901367188
-612.372924804688
-626.010925292969
-649.853515625
-687.047912597656
-732.062744140625
-756.096069335938
-739.40625
-692.484008789063
-631.256286621094
-557.91650390625
-496.974853515625
-477.328552246094
-482.001708984375
-490.108184814453
-504.413726806641
-512.901672363281
-502.506317138672
-467.79150390625
-408.471160888672
-349.246185302734
-307.85546875
-282.582305908203
-276.097137451172
-280.198059082031
-285.348052978516
-286.683227539063
-275.143432617188
-254.25732421875
-227.076782226563
-187.688827514648
-145.725875854492
-118.259223937988
-109.294410705566
-108.912925720215
-107.482376098633
-109.103668212891
-110.057373046875
-99.5666351318359
-76.0101623535156
-52.9305381774902
-34.3333206176758
-13.5425882339478
0.47685170173645
6.86666440963745
10.1092557907104
11.635181427002
14.8777732849121
11.3490705490112
11.4444408416748
31.0907306671143
49.4972076416016
63.5166473388672
84.7842330932617
97.7546005249023
101.855522155762
105.574966430664
104.907371520996
101.187927246094
99.8527450561523
99.948112487793
97.5638580322266
98.6129302978516
99.3758926391602
99.1851501464844
110.629592895508
123.504592895508
128.273101806641
134.090698242188
139.526809692383
143.723098754883
141.624954223633
128.082366943359
124.839775085449
136.093475341797
142.292541503906
149.63606262207
162.224945068359
167.184204101563
165.086059570313
156.311981201172
143.723098754883
138.76383972168
130.848098754883
126.747184753418
138.85920715332
143.723098754883
139.526809692383
140.575881958008
144.486068725586
145.916625976563
138.000885009766
129.036071777344
127.510147094727
123.790702819824
128.463851928711
145.2490234375
152.211059570313
155.549026489258
161.557357788086
158.696243286133
146.107360839844
129.131439208984
122.455513000488
126.937919616699
130.46662902832
143.246246337891
167.470321655273
184.446243286133
194.746231079102
197.511978149414
183.969390869141
170.522171020508
167.565689086914
166.516616821289
168.80549621582
177.388824462891
187.87956237793
196.65364074707
198.370300292969
192.075866699219
184.827713012695
174.527725219727
164.323089599609
164.418472290039
171.094390869141
181.012908935547
188.356414794922
181.394393920898
171.285125732422
169.663833618164
161.938842773438
143.246246337891
125.507369995117
109.96199798584
97.0870056152344
90.1249694824219
91.269416809082
96.5147857666016
96.0379333496094
93.1768188476563
85.6425628662109
64.756462097168
37.9573936462402
18.4064750671387
7.24814605712891
2.00277709960938
8.10647869110107
12.9703664779663
5.1499981880188
-1.9074068069458
-7.6296272277832
-22.9842510223389
-38.5296173095703
-51.404613494873
-68.6666412353516
-76.4870147705078
-73.1490478515625
-71.5277557373047
-70.2879409790039
-72.3860855102539
-78.7759017944336
-90.6018218994141
-110.343482971191
-121.883293151855
-121.311073303223
-123.409217834473
-126.651809692383
-125.125885009766
-120.357368469238
-121.883293151855
-129.036071777344
-133.518478393555
-136.379592895508
-138.382369995117
-141.720321655273
-147.728652954102
-147.44255065918
-146.774948120117
-148.014770507813
-141.624954223633
-135.235137939453
-139.336059570313
-144.962921142578
-142.960144042969
-144.581436157227
-156.216613769531
-153.260131835938
-139.908294677734
-147.633285522461
-156.216613769531
-148.968475341797
-147.251800537109
-148.491622924805
-144.867553710938
-143.627731323242
-147.44255065918
-150.875885009766
-145.535140991211
-138.382369995117
-134.66291809082
-126.270332336426
-124.172180175781
-131.515701293945
-129.989776611328
-125.411994934082
-125.602737426758
-123.218475341797
-120.166625976563
-119.212921142578
-116.637924194336
-114.825889587402
-111.392555236816
-107.95922088623
-102.904594421387
-93.367561340332
-88.4083023071289
-86.1194152832031
-83.1629333496094
-84.7842330932617
-85.3564529418945
-83.2583084106445
-80.5879364013672
-74.198127746582
-62.4675712585449
-55.1240577697754
-59.0342407226563
-59.0342407226563
-53.7888717651367
-55.5055389404297
-57.3175735473633
-56.7453536987305
-50.7370223999023
-39.4833221435547
-31.8536930084229
-28.9925842285156
-32.2351760864258
-38.3388748168945
-42.8212814331055
-43.4888763427734
-36.3360977172852
-35.7638778686523
-45.2055397033691
-43.3935050964355
-27.657398223877
-11.1583299636841
0.381481349468231
1.52592539787292
-3.43333220481873
-1.43055510520935
5.34073925018311
7.82036781311035
5.34073925018311
4.29166507720947
5.34073925018311
2.5749990940094
3.43333220481873
6.58055353164673
8.0111083984375
15.5453653335571
15.6407356262207
8.48795986175537
10.4907369613647
9.537034034729
3.147221326828
6.86666440963745
18.1203651428223
27.1805477142334
33.1888771057129
33.2842483520508
34.4286918640137
33.6657295227051
20.8861045837402
14.5916624069214
22.2212886810303
31.3768424987793
38.9110984802246
39.864803314209
38.4342460632324
40.3416519165039
33.1888771057129
18.6925868988037
9.15555286407471
4.7685170173645
10.2999963760376
25.3685111999512
31.7583236694336
27.657398223877
23.2703628540039
22.3166599273682
21.0768451690674
13.7333288192749
11.2537002563477
15.1638841629028
18.6925868988037
24.3194370269775
30.0416564941406
33.2842483520508
36.8129501342773
40.6277656555176
38.3388748168945
31.3768424987793
26.6083240509033
21.3629570007324
19.5509204864502
30.0416564941406
41.8675804138184
46.5407257080078
49.8786888122559
49.9740562438965
49.1157264709473
53.6935005187988
56.5546112060547
49.4018363952637
40.3416519165039
43.1073951721191
50.9277610778809
53.3120193481445
51.2138710021973
50.9277610778809
53.2166481018066
51.7860946655273
48.066650390625
45.300910949707
46.1592445373535
51.9768333435059
58.8434982299805
64.6610870361328
66.7592391967773
64.4703521728516
59.8925743103027
55.1240577697754
50.2601699829102
40.4370231628418
32.04443359375
30.4231376647949
27.0851764678955
24.4148063659668
32.8073959350586
41.1046180725098
36.6222114562988
34.7148017883301
40.6277656555176
35.1916542053223
25.2731399536133
22.7935104370117
17.357400894165
9.34629344940186
9.15555286407471
20.5999927520752
37.4805450439453
45.8731346130371
46.7314682006836
51.7860946655273
57.0314636230469
55.4101676940918
48.1620216369629
42.7259140014648
44.7286911010742
43.3935050964355
33.5703582763672
30.3277683258057
32.9027671813965
23.8425846099854
11.3490705490112
11.4444408416748
10.5861072540283
8.67870044708252
15.35462474823
12.9703664779663
-1.43055510520935
-7.53425693511963
-0.9537034034729
6.19907188415527
7.91573810577393
10.3953666687012
23.0796222686768
37.0036926269531
37.099063873291
32.1398048400879
24.7962875366211
14.0194396972656
11.7305517196655
14.4009208679199
11.2537002563477
10.8722190856934
18.3111057281494
14.8777732849121
3.5287024974823
5.53147983551025
10.0138854980469
11.3490705490112
18.6925868988037
21.3629570007324
18.787956237793
21.3629570007324
25.5592517852783
23.4611034393311
12.302773475647
6.58055353164673
13.0657367706299
9.9185152053833
-6.1037015914917
-29.9462871551514
-68.3805313110352
-109.675888061523
-152.020324707031
-196.176788330078
-215.536972045898
-222.880477905273
-226.981414794922
-199.705490112305
-159.363830566406
-129.512924194336
-114.635147094727
-113.109222412109
-104.335151672363
-59.3203506469727
18.5018463134766
78.6805267333984
174.623092651367
396.454498291016
669.785888671875
935.392272949219
1197.37463378906
1377.81530761719
1438.85229492188
1445.71899414063
1372.28381347656
1162.94592285156
910.119140625
683.042358398438
453.867462158203
201.136047363281
-84.2120132446289
-358.592468261719
-530.163696289063
-597.399780273438
-630.779418945313
-637.836853027344
-633.735900878906
-661.774780273438
-707.171081542969
-746.559020996094
-772.022888183594
-764.488647460938
-729.487731933594
-674.554443359375
-599.402587890625
-531.975769042969
-490.585021972656
-477.423919677734
-494.590576171875
-520.245178222656
-533.883178710938
-531.975769042969
-510.708160400391
-466.933197021484
-405.323944091797
-341.998046875
-293.549896240234
-266.846221923828
-257.786041259766
-265.415649414063
-281.247131347656
-280.579528808594
-265.415649414063
-242.717514038086
-202.375854492188
-161.461990356445
-140.671249389648
-129.799026489258
-118.163848876953
-110.629592895508
-103.667556762695
-95.084228515625
-92.0323791503906
-79.4434967041016
-51.9768333435059
-28.5157318115234
-9.25092315673828
3.91018390655518
11.8259220123291
11.1583299636841
3.91018390655518
8.29721927642822
14.2101802825928
22.3166599273682
39.0064697265625
47.3990592956543
53.8842430114746
66.0916442871094
77.7268295288086
82.876823425293
85.2610855102539
86.6916351318359
84.4981231689453
86.8823776245117
93.8444137573242
99.8527450561523
103.381446838379
105.098114013672
108.626815795898
120.452735900879
136.951812744141
146.393478393555
148.777725219727
148.682357788086
147.633285522461
146.584213256836
139.240692138672
124.839775085449
121.215698242188
133.613845825195
138.668472290039
138.191619873047
149.731430053711
156.693466186523
152.974029541016
150.112915039063
143.246246337891
131.420333862305
127.605514526367
137.905517578125
146.202728271484
146.393478393555
154.595321655273
160.603652954102
145.43977355957
126.461067199707
115.684219360352
104.812004089355
104.716636657715
117.59162902832
128.559219360352
135.139770507813
142.006439208984
152.211059570313
158.219390869141
148.873107910156
139.049957275391
134.281433105469
119.880516052246
115.398109436035
129.989776611328
142.960144042969
155.739761352539
165.944396972656
163.846237182617
158.314758300781
154.690689086914
146.298095703125
137.810134887695
146.488845825195
164.036987304688
175.481430053711
185.113830566406
190.931427001953
191.312896728516
188.642532348633
179.105499267578
166.61198425293
156.121246337891
146.774948120117
146.202728271484
157.742538452148
171.475875854492
183.969390869141
191.026794433594
186.830490112305
174.241607666016
155.072174072266
132.946258544922
110.534225463867
102.52311706543
106.910148620605
104.812004089355
104.430519104004
100.901817321777
82.6860809326172
62.4675712585449
46.1592445373535
27.3712882995605
8.58333015441895
2.76573991775513
6.1037015914917
5.24536848068237
3.91018390655518
2.38425850868225
-8.48795986175537
-26.7990646362305
-45.7777633666992
-57.4129447937012
-60.7509078979492
-66.0916442871094
-72.3860855102539
-69.6203460693359
-60.0833129882813
-59.5110931396484
-65.9962768554688
-76.0101623535156
-94.702751159668
-108.054595947266
-116.256446838379
-120.83422088623
-120.166625976563
-118.926811218262
-109.866630554199
-108.245338439941
-116.828666687012
-121.120330810547
-130.085144042969
-136.856430053711
-136.951812744141
-142.387924194336
-149.63606262207
-149.349945068359
-144.581436157227
-144.867553710938
-149.54069519043
-146.679580688477
-143.246246337891
-148.586990356445
-152.401809692383
-148.586990356445
-145.630508422852
-153.355499267578
-158.1240234375
-148.491622924805
-140.385147094727
-142.387924194336
-146.202728271484
-146.965698242188
-145.2490234375
-139.526809692383
-139.145324707031
-147.44255065918
-148.586990356445
-147.34716796875
-150.875885009766
-148.396255493164
-141.911071777344
-135.998107910156
-128.749954223633
-122.646255493164
-118.259223937988
-116.44718170166
-119.117553710938
-122.741630554199
-119.308296203613
-106.051818847656
-91.1740417480469
-87.2638626098633
-84.7842330932617
-73.3397903442383
-66.3777542114258
-67.7129440307617
-70.4786834716797
-74.0073852539063
-74.6749725341797
-72.3860855102539
-73.6259002685547
-73.4351654052734
-62.2768325805664
-54.2657241821289
-57.1268348693848
-58.4620170593262
-55.887020111084
-58.1759071350098
-62.8490524291992
-61.4184989929199
-54.9333152770996
-46.8268356323242
-39.864803314209
-34.4286918640137
-30.0416564941406
-26.9898052215576
-28.0388793945313
-37.7666549682617
-39.7694320678711
-25.2731399536133
-19.360179901123
-21.6490669250488
-20.5999927520752
-18.3111057281494
-14.5916624069214
-11.1583299636841
-8.67870044708252
-8.20184898376465
-4.57777643203735
5.05462789535522
10.3953666687012
8.96481227874756
6.19907188415527
6.29444265365601
13.6379585266113
21.4583263397217
26.9898052215576
32.4259147644043
28.9925842285156
17.357400894165
14.1148099899292
20.1231422424316
26.7036952972412
27.3712882995605
23.3657341003418
28.7064723968506
33.6657295227051
18.787956237793
3.24259161949158
1.62129580974579
3.71944332122803
10.4907369613647
20.3138828277588
26.9898052215576
32.7120246887207
29.9462871551514
22.0305480957031
23.5564746856689
24.6055469512939
21.1722145080566
19.360179901123
17.8342533111572
18.787956237793
25.0823993682861
35.9546165466309
48.6388740539551
56.936092376709
50.5462799072266
34.810173034668
25.7499923706055
28.0388793945313
39.4833221435547
48.066650390625
47.1129493713379
42.8212814331055
45.2055397033691
53.6935005187988
50.7370223999023
41.1046180725098
39.6740608215332
41.2953567504883
41.2953567504883
37.3851737976074
36.2407302856445
43.4888763427734
51.0231323242188
59.0342407226563
66.9499816894531
68.1897964477539
67.0453491210938
64.2796096801758
54.0749816894531
39.9601707458496
33.3796195983887
36.2407302856445
43.0120239257813
45.4916534423828
38.3388748168945
30.4231376647949
28.9925842285156
29.9462871551514
30.6138782501221
29.6601753234863
27.2759170532227
29.7555465698242
34.3333206176758
36.431468963623
40.913875579834
44.0610961914063
38.4342460632324
27.943510055542
23.8425846099854
30.8046188354492
32.8073959350586
27.943510055542
27.3712882995605
27.4666576385498
27.5620288848877
32.7120246887207
41.0092468261719
44.7286911010742
40.0555419921875
33.9518394470215
28.2296199798584
24.0333251953125
23.5564746856689
23.3657341003418
18.1203651428223
16.5944385528564
17.9296245574951
13.3518476486206
18.4064750671387
24.7962875366211
23.9379558563232
33.2842483520508
32.7120246887207
22.6981410980225
28.3249912261963
37.1944313049316
46.0638732910156
54.5518341064453
49.8786888122559
45.7777633666992
45.8731346130371
38.2435073852539
38.148136138916
51.8814659118652
55.887020111084
47.1129493713379
38.3388748168945
30.995361328125
27.5620288848877
26.226842880249
24.0333251953125
23.7472152709961
23.8425846099854
27.2759170532227
30.2323970794678
24.891658782959
19.1694374084473
23.6518440246582
28.7064723968506
23.0796222686768
19.2648086547852
15.6407356262207
7.43888664245605
5.81759071350098
6.1037015914917
7.15277528762817
9.82314491271973
5.7222204208374
-1.81203651428223
-6.29444265365601
-12.6842555999756
-17.9296245574951
-17.738883972168
-19.8370304107666
-20.9814739227295
-17.0712909698486
-18.787956237793
-22.4120292663574
-23.8425846099854
-25.2731399536133
-16.30832862854
-12.6842555999756
-22.5074005126953
-26.7036952972412
-37.8620262145996
-62.1814613342285
-96.4194107055664
-142.674026489258
-182.061981201172
-215.536972045898
-240.905471801758
-247.295288085938
-236.232330322266
-195.127716064453
-140.480514526367
-107.100891113281
-87.1684875488281
-61.5138702392578
-31.9490642547607
9.9185152053833
65.7101669311523
118.354591369629
198.465682983398
355.159149169922
586.622985839844
840.212707519531
1035.14965820313
1130.32922363281
1170.09875488281
1200.99865722656
1140.81994628906
967.91357421875
805.59326171875
657.292358398438
460.829467773438
211.340667724609
-63.5166473388672
-269.993438720703
-371.276733398438
-416.86376953125
-437.368377685547
-463.976715087891
-512.615600585938
-567.453552246094
-616.283142089844
-660.248840332031
-696.298828125
-701.258117675781
-676.271057128906
-628.967407226563
-558.297973632813
-490.680389404297
-446.52392578125
-423.730407714844
-424.302642822266
-445.474853515625
-471.987823486328
-484.004486083984
-467.886901855469
-429.071166992188
-379.669311523438
-322.065643310547
-276.001770019531
-258.072143554688
-251.968444824219
-249.011962890625
-251.205474853516
-251.110107421875
-236.804550170898
-212.580490112305
-190.16845703125
-162.987915039063
-130.752731323242
-105.574966430664
-94.2258987426758
-91.0786743164063
-83.1629333496094
-80.4925689697266
-81.16015625
-69.0481262207031
-53.8842430114746
-34.4286918640137
-11.8259220123291
-1.33518481254578
7.34351634979248
17.9296245574951
20.8861045837402
20.5999927520752
17.5481433868408
20.5046234130859
32.1398048400879
41.4860992431641
51.8814659118652
59.5110931396484
61.5138702392578
63.4212760925293
60.0833129882813
63.7073860168457
77.345344543457
85.0703430175781
86.3101577758789
86.0240478515625
91.5555267333984
97.7546005249023
100.615707397461
108.436073303223
119.59440612793
129.608291625977
129.894409179688
126.270332336426
133.041625976563
126.365699768066
110.438850402832
110.915702819824
104.430519104004
94.9888610839844
104.525894165039
123.790702819824
137.714767456055
135.139770507813
131.992553710938
133.423110961914
121.311073303223
111.487930297852
115.302742004395
113.109222412109
109.389778137207
121.406440734863
130.46662902832
123.409217834473
123.790702819824
126.651809692383
119.68977355957
113.872184753418
109.771263122559
110.534225463867
119.212921142578
130.085144042969
149.826797485352
168.996246337891
164.799942016602
145.2490234375
127.414772033691
119.117553710938
124.267555236816
131.801803588867
136.093475341797
142.387924194336
149.159210205078
149.445327758789
148.014770507813
150.685134887695
148.300872802734
141.720321655273
137.905517578125
139.431442260742
144.295318603516
150.589767456055
166.421249389648
181.108276367188
178.342529296875
168.996246337891
157.933288574219
145.821243286133
140.575881958008
137.428665161133
136.093475341797
137.619400024414
137.905517578125
140.671249389648
140.385147094727
131.420333862305
120.643478393555
102.332374572754
81.7323837280273
70.0018310546875
64.8518295288086
65.9962768554688
73.4351654052734
82.6860809326172
78.4897918701172
65.0425720214844
53.7888717651367
40.8185043334961
33.1888771057129
24.2240657806396
13.8286991119385
9.537034034729
1.04907369613647
1.43055510520935
4.86388731002808
-4.57777643203735
-18.787956237793
-33.5703582763672
-43.679615020752
-55.219425201416
-63.1351661682129
-60.5601654052734
-63.8981285095215
-67.5222015380859
-65.2333145141602
-69.9064559936523
-77.1546020507813
-82.0184936523438
-90.0296020507813
-96.3240432739258
-96.3240432739258
-99.1851501464844
-106.242561340332
-106.910148620605
-101.664779663086
-96.8962631225586
-98.5175628662109
-111.487930297852
-127.891624450684
-134.949035644531
-138.76383972168
-147.251800537109
-145.916625976563
-139.049957275391
-136.284210205078
-128.654586791992
-116.256446838379
-115.779594421387
-123.218475341797
-119.022186279297
-113.776817321777
-121.501815795898
-125.507369995117
-121.406440734863
-121.883293151855
-125.793479919434
-126.270332336426
-119.59440612793
-113.776817321777
-118.640701293945
-132.183288574219
-136.66569519043
-123.599960327148
-113.681442260742
-111.392555236816
-104.049041748047
-102.809226989746
-103.953666687012
-93.2721939086914
-81.2555313110352
-80.3018264770508
-86.8823776245117
-86.7870101928711
-77.8221969604492
-74.0073852539063
-77.5360870361328
-80.778678894043
-79.4434967041016
-71.0509033203125
-61.323127746582
-57.7944259643555
-57.2222023010254
-56.6499824523926
-58.1759071350098
-62.2768325805664
-64.8518295288086
-63.9934997558594
-66.4731292724609
-68.2851638793945
-54.8379440307617
-35.1916542053223
-29.0879535675049
-33.3796195983887
-36.7175827026367
-37.9573936462402
-40.1509132385254
-44.251838684082
-41.7722091674805
-37.3851737976074
-39.5786895751953
-46.5407257080078
-53.6935005187988
-48.5435028076172
-40.0555419921875
-41.4860992431641
-44.0610961914063
-40.913875579834
-33.4749908447266
-37.8620262145996
-45.7777633666992
-33.4749908447266
-20.7907333374023
-20.5999927520752
-11.4444408416748
-3.91018390655518
-10.2999963760376
-11.635181427002
-13.8286991119385
-17.2620315551758
-7.91573810577393
-0.190740674734116
1.33518481254578
1.81203651428223
-2.09814739227295
0.667592406272888
1.71666610240936
-7.24814605712891
-7.15277528762817
0
4.1962947845459
6.96203470230103
8.48795986175537
8.58333015441895
12.302773475647
20.409252166748
25.6546211242676
26.9898052215576
21.7444381713867
15.0685138702393
19.9324016571045
23.2703628540039
27.3712882995605
38.8157272338867
37.9573936462402
32.3305435180664
34.4286918640137
31.7583236694336
21.2675857543945
15.9268465042114
18.9786968231201
21.4583263397217
20.0277709960938
21.2675857543945
24.5101776123047
26.0361022949219
28.0388793945313
26.8944358825684
22.5074005126953
24.891658782959
34.4286918640137
40.2462844848633
39.9601707458496
42.7259140014648
48.6388740539551
47.3036880493164
41.1999855041504
39.197208404541
39.2925796508789
36.2407302856445
29.9462871551514
30.8046188354492
42.0583190917969
47.8759117126465
47.9712791442871
44.3472061157227
35.6685066223145
33.761100769043
31.5675830841064
22.8888816833496
21.2675857543945
26.7036952972412
34.9055442810059
42.2490615844727
42.8212814331055
37.6712837219238
39.5786895751953
49.783317565918
47.3036880493164
37.3851737976074
37.5759124755859
39.197208404541
38.4342460632324
41.962947845459
48.5435028076172
48.4481315612793
36.9083213806152
25.4638805389404
21.6490669250488
25.7499923706055
37.2898025512695
43.7749862670898
41.5814666748047
45.7777633666992
56.7453536987305
62.2768325805664
62.7536849975586
57.3175735473633
42.5351715087891
37.7666549682617
48.1620216369629
50.1647987365723
45.7777633666992
39.9601707458496
32.3305435180664
36.6222114562988
41.1046180725098
26.5129547119141
12.0166625976563
17.9296245574951
28.3249912261963
30.8046188354492
25.6546211242676
20.7907333374023
18.9786968231201
13.9240694046021
11.1583299636841
13.256477355957
12.7796258926392
10.4907369613647
10.8722190856934
11.1583299636841
14.4962921142578
20.9814739227295
23.1749935150146
22.2212886810303
20.1231422424316
19.5509204864502
19.6462898254395
15.1638841629028
12.9703664779663
13.8286991119385
13.0657367706299
14.1148099899292
12.302773475647
4.38703584671021
2.28888821601868
9.15555286407471
12.7796258926392
8.0111083984375
5.24536848068237
2.8611102104187
-10.3953666687012
-26.3222141265869
-44.9194297790527
-72.7675704956055
-111.011077880859
-154.213836669922
-188.165679931641
-205.523086547852
-213.820297241211
-222.689743041992
-204.569381713867
-150.494400024414
-107.95922088623
-86.5962677001953
-63.2305335998535
-30.1370277404785
7.72499752044678
51.9768333435059
105.479598999023
161.461990356445
253.875839233398
429.071166992188
681.421081542969
941.877502441406
1113.54406738281
1173.05517578125
1203.38293457031
1216.16259765625
1107.34497070313
918.702453613281
747.035888671875
567.930358886719
354.682281494141
85.0703430175781
-181.489761352539
-338.564697265625
-406.0869140625
-442.041534423828
-468.745208740234
-501.552612304688
-541.131286621094
-584.047973632813
-631.065551757813
-670.358093261719
-690.481262207031
-690.862731933594
-667.878479003906
-620.384033203125
-555.913696289063
-488.010040283203
-444.42578125
-437.082275390625
-447.859130859375
-465.025787353516
-481.429473876953
-477.137817382813
-447.763732910156
-408.18505859375
-362.407287597656
-311.861022949219
-274.475830078125
-250.347137451172
-241.47770690918
-254.448059082031
-264.652679443359
-257.595275878906
-240.333251953125
-212.389739990234
-177.102722167969
-143.913848876953
-115.588851928711
-94.2258987426758
-77.9175643920898
-69.2388687133789
-73.9120101928711
-82.1138610839844
-77.8221969604492
-57.3175735473633
-37.099063873291
-18.2157344818115
3.8148136138916
16.4990692138672
20.5999927520752
23.6518440246582
26.4175834655762
28.3249912261963
36.1453590393066
52.2629470825195
59.4157218933105
56.936092376709
56.5546112060547
63.2305335998535
78.9666442871094
90.1249694824219
90.6971969604492
92.7953414916992
91.0786743164063
85.8333053588867
84.7842330932617
84.4027481079102
94.702751159668
105.384223937988
104.907371520996
110.724967956543
125.507369995117
131.038848876953
122.646255493164
114.635147094727
110.057373046875
104.812004089355
106.147186279297
105.76570892334
98.2314529418945
95.4657135009766
101.760154724121
111.678665161133
117.114776611328
121.69255065918
121.501815795898
104.716636657715
94.03515625
100.329597473145
109.675888061523
117.973114013672
121.597183227539
129.131439208984
142.960144042969
144.390701293945
133.232360839844
121.024963378906
110.915702819824
105.384223937988
101.950889587402
100.043487548828
112.537002563477
134.376815795898
148.682357788086
157.074951171875
156.788833618164
142.769393920898
127.510147094727
116.733299255371
112.823112487793
117.400886535645
126.365699768066
128.36848449707
131.134216308594
138.668472290039
129.703659057617
116.256446838379
118.640701293945
121.597183227539
117.782371520996
121.787925720215
136.66569519043
153.069396972656
170.903656005859
186.258270263672
187.021240234375
177.865676879883
163.846237182617
150.494400024414
151.066619873047
156.979583740234
159.077728271484
155.549026489258
152.211059570313
156.884216308594
151.73420715332
138.382369995117
132.087921142578
119.308296203613
102.237007141113
91.5555267333984
80.4925689697266
71.5277557373047
73.5305328369141
74.3888626098633
66.2823867797852
57.6036834716797
42.4398002624512
24.9870281219482
21.4583263397217
13.7333288192749
-1.14444410800934
-2.8611102104187
-0.667592406272888
-0.572222054004669
1.52592539787292
-6.19907188415527
-24.3194370269775
-36.9083213806152
-47.3036880493164
-62.2768325805664
-67.6175689697266
-63.7073860168457
-63.7073860168457
-58.1759071350098
-55.3147964477539
-69.5249786376953
-75.8194198608398
-75.6286773681641
-89.2666397094727
-103.190704345703
-108.722190856934
-110.343482971191
-109.675888061523
-105.098114013672
-100.901817321777
-103.858299255371
-107.95922088623
-111.392555236816
-119.308296203613
-123.9814453125
-126.461067199707
-127.700881958008
-123.504592895508
-127.700881958008
-130.37126159668
-120.262001037598
-120.166625976563
-126.461067199707
-126.174957275391
-128.845321655273
-131.801803588867
-131.706436157227
-132.183288574219
-128.177734375
-124.93514251709
-122.646255493164
-119.785148620605
-125.888847351074
-134.56755065918
-137.333282470703
-137.047180175781
-132.183288574219
-126.07958984375
-126.07958984375
-125.221252441406
-114.539779663086
-108.436073303223
-106.242561340332
-93.5583038330078
-84.8796005249023
-89.4573822021484
-90.220344543457
-88.6944122314453
-89.3620071411133
-86.2147903442383
-84.5934906005859
-80.4925689697266
-82.2092361450195
-82.9721984863281
-66.1870193481445
-63.039794921875
-67.6175689697266
-61.5138702392578
-65.9962768554688
-73.6259002685547
-77.5360870361328
-81.7323837280273
-72.8629379272461
-58.2712783813477
-59.7972030639648
-65.0425720214844
-55.5055389404297
-46.4453544616699
-46.7314682006836
-49.0203552246094
-54.7425765991211
-58.3666496276855
-52.6444282531738
-43.5842437744141
-37.3851737976074
-33.761100769043
-28.3249912261963
-19.5509204864502
-14.2101802825928
-17.2620315551758
-27.4666576385498
-31.3768424987793
-24.4148063659668
-19.8370304107666
-14.0194396972656
-3.8148136138916
-3.71944332122803
-10.8722190856934
-16.5944385528564
-20.7907333374023
-19.1694374084473
-10.5861072540283
-4.57777643203735
2.67036962509155
14.8777732849121
20.0277709960938
20.9814739227295
21.4583263397217
15.4499950408936
8.20184898376465
7.43888664245605
8.67870044708252
3.5287024974823
-2.76573991775513
-4.29166507720947
0
6.48518323898315
8.96481227874756
11.0629596710205
13.9240694046021
10.1092557907104
5.05462789535522
4.86388731002808
5.7222204208374
13.5425882339478
23.3657341003418
24.1286964416504
24.7962875366211
27.3712882995605
26.0361022949219
25.7499923706055
31.2814712524414
35.0962867736816
31.2814712524414
25.2731399536133
24.7009181976318
33.2842483520508
43.2027626037598
44.3472061157227
39.864803314209
31.6629524230957
21.3629570007324
20.7907333374023
25.0823993682861
26.7036952972412
28.6111011505127
29.0879535675049
34.6194343566895
40.7231369018555
40.2462844848633
39.6740608215332
38.3388748168945
39.0064697265625
41.5814666748047
43.3935050964355
44.4425773620605
43.7749862670898
43.0120239257813
42.4398002624512
42.5351715087891
40.1509132385254
35.2870254516602
30.8999900817871
31.6629524230957
37.1944313049316
37.099063873291
34.1425819396973
37.5759124755859
37.8620262145996
30.70924949646
27.2759170532227
31.1861019134521
30.0416564941406
23.2703628540039
25.5592517852783
31.2814712524414
29.7555465698242
27.0851764678955
26.8944358825684
28.3249912261963
27.0851764678955
23.1749935150146
18.0249938964844
16.4036979675293
23.0796222686768
25.8453617095947
21.6490669250488
24.2240657806396
27.7527694702148
27.5620288848877
31.6629524230957
39.1018409729004
39.9601707458496
25.9407329559326
13.0657367706299
15.5453653335571
20.5999927520752
24.2240657806396
33.5703582763672
36.6222114562988
23.4611034393311
16.6898097991943
27.657398223877
37.5759124755859
40.7231369018555
36.1453590393066
30.4231376647949
34.810173034668
34.0472106933594
27.8481388092041
26.7036952972412
18.9786968231201
5.7222204208374
8.3925895690918
21.7444381713867
27.2759170532227
28.3249912261963
30.8999900817871
30.2323970794678
25.4638805389404
29.4694347381592
39.7694320678711
39.2925796508789
34.3333206176758
37.3851737976074
44.4425773620605
42.8212814331055
37.7666549682617
34.5240631103516
28.5157318115234
32.9027671813965
42.1536903381348
35.6685066223145
26.226842880249
25.8453617095947
21.4583263397217
13.0657367706299
10.3953666687012
13.5425882339478
18.5018463134766
20.5046234130859
20.8861045837402
13.256477355957
2.28888821601868
4.57777643203735
2.95648050308228
-3.62407302856445
0.286111027002335
-0.858333051204681
-1.23981440067291
-0.9537034034729
-6.38981294631958
0.47685170173645
7.6296272277832
6.86666440963745
9.06018257141113
6.38981294631958
-1.52592539787292
-8.77407169342041
-11.8259220123291
-11.7305517196655
-8.96481227874756
-3.147221326828
-3.71944332122803
-16.30832862854
-35.8592491149902
-62.9444236755371
-99.948112487793
-141.529586791992
-186.353637695313
-221.449935913086
-238.330474853516
-247.962890625
-227.839736938477
-173.287902832031
-128.273101806641
-102.52311706543
-90.9833068847656
-89.2666397094727
-67.0453491210938
-4.00555419921875
61.7046089172363
128.36848449707
285.729553222656
534.2646484375
805.021057128906
1068.71997070313
1265.46899414063
1350.3486328125
1380.19958496094
1365.13110351563
1222.36169433594
989.18115234375
761.913635253906
544.469299316406
314.626739501953
46.8268356323242
-242.908248901367
-454.439666748047
-545.04150390625
-582.617431640625
-605.697021484375
-610.751647949219
-618.095153808594
-645.466430664063
-696.87109375
-749.801635742188
-774.502502441406
-767.445129394531
-726.149780273438
-655.86181640625
-581.663696289063
-528.542419433594
-501.361877441406
-488.391510009766
-492.778533935547
-508.800750732422
-512.7109375
-499.931335449219
-470.843353271484
-417.722076416016
-358.592468261719
-310.430450439453
-270.851776123047
-255.878616333008
-263.508239746094
-274.285095214844
-282.391571044922
-271.233245849609
-244.911026000977
-213.248077392578
-171.571243286133
-133.232360839844
-109.96199798584
-99.2805252075195
-92.6045989990234
-92.6045989990234
-106.528671264648
-113.872184753418
-97.7546005249023
-68.7620162963867
-35.8592491149902
-11.3490705490112
-3.5287024974823
0.762962698936462
5.7222204208374
7.6296272277832
9.34629344940186
11.4444408416748
19.360179901123
24.6055469512939
25.177770614624
33.5703582763672
48.734245300293
66.854606628418
80.5879364013672
84.8796005249023
94.5120086669922
114.158294677734
122.455513000488
113.681442260742
110.057373046875
118.163848876953
127.796257019043
125.698104858398
115.684219360352
121.883293151855
133.136993408203
130.848098754883
130.085144042969
130.27587890625
124.172180175781
120.548110961914
115.970336914063
107.86385345459
109.199035644531
121.215698242188
133.709213256836
149.445327758789
169.663833618164
178.342529296875
169.091613769531
153.069396972656
139.526809692383
134.472183227539
136.856430053711
142.769393920898
156.121246337891
171.475875854492
175.862899780273
172.429580688477
164.895324707031
144.390701293945
126.07958984375
120.452735900879
114.539779663086
116.637924194336
130.752731323242
136.474960327148
141.911071777344
150.112915039063
143.532363891602
135.139770507813
127.986999511719
116.44718170166
119.785148620605
130.46662902832
140.194396972656
156.407363891602
166.70735168457
167.851791381836
166.802719116211
163.178649902344
153.164764404297
135.235137939453
125.984222412109
138.477737426758
158.028656005859
172.238830566406
179.48698425293
181.871231079102
183.587905883789
181.394393920898
175.767532348633
172.048095703125
170.522171020508
167.088836669922
164.418472290039
172.143463134766
182.157348632813
184.732345581055
182.252716064453
169.663833618164
148.968475341797
130.657363891602
119.022186279297
114.444404602051
110.438850402832
107.577743530273
109.771263122559
107.95922088623
101.474044799805
87.4546051025391
62.1814613342285
37.7666549682617
22.6981410980225
20.7907333374023
25.5592517852783
24.3194370269775
19.4555492401123
16.4990692138672
10.7768487930298
-3.147221326828
-18.1203651428223
-29.8509159088135
-46.7314682006836
-65.5194244384766
-73.1490478515625
-73.8166427612305
-75.9147872924805
-70.6694183349609
-62.8490524291992
-68.7620162963867
-77.345344543457
-83.7351608276367
-94.702751159668
-100.52033996582
-106.528671264648
-117.114776611328
-117.686996459961
-114.158294677734
-114.25366973877
-109.96199798584
-111.392555236816
-119.880516052246
-124.076812744141
-129.799026489258
-137.047180175781
-138.191619873047
-143.055511474609
-146.011993408203
-136.093475341797
-136.66569519043
-155.072174072266
-163.750869750977
-156.121246337891
-152.115692138672
-158.505508422852
-161.366607666016
-156.598098754883
-156.502731323242
-153.546249389648
-145.916625976563
-147.156433105469
-146.774948120117
-144.104583740234
-141.052734375
-134.472183227539
-136.570327758789
-139.717544555664
-136.856430053711
-136.76106262207
-138.191619873047
-140.289764404297
-141.434219360352
-137.619400024414
-137.333282470703
-137.905517578125
-127.986999511719
-119.117553710938
-114.25366973877
-108.912925720215
-109.103668212891
-105.956443786621
-97.3731155395508
-94.5120086669922
-90.8879318237305
-84.0212707519531
-83.7351608276367
-90.0296020507813
-96.3240432739258
-97.849967956543
-95.1795959472656
-89.4573822021484
-79.9203414916992
-68.3805313110352
-56.1731300354004
-50.6416511535645
-49.783317565918
-48.6388740539551
-53.5027618408203
-61.1323890686035
-63.6120147705078
-68.1897964477539
-66.854606628418
-49.3064651489258
-36.5268402099609
-40.1509132385254
-44.5379486083984
-44.8240585327148
-40.7231369018555
-31.6629524230957
-29.278694152832
-34.810173034668
-35.1916542053223
-26.7036952972412
-21.839807510376
-22.7935104370117
-12.302773475647
-1.62129580974579
-8.29721927642822
-13.256477355957
-12.2074031829834
-19.4555492401123
-24.891658782959
-22.6981410980225
-16.6898097991943
-10.4907369613647
-3.147221326828
10.4907369613647
11.7305517196655
-0.762962698936462
0.381481349468231
9.34629344940186
8.0111083984375
4.38703584671021
9.9185152053833
13.9240694046021
10.1092557907104
11.0629596710205
17.2620315551758
22.8888816833496
21.6490669250488
21.4583263397217
25.4638805389404
19.8370304107666
22.4120292663574
39.0064697265625
46.1592445373535
37.2898025512695
26.8944358825684
20.9814739227295
14.3055505752563
11.0629596710205
12.1120328903198
15.1638841629028
25.177770614624
42.630542755127
55.219425201416
55.7916488647461
56.4592399597168
59.3203506469727
52.9305381774902
42.2490615844727
39.1018409729004
40.3416519165039
41.962947845459
48.4481315612793
54.9333152770996
52.9305381774902
48.6388740539551
52.453685760498
57.9851684570313
53.8842430114746
47.9712791442871
47.1129493713379
52.3583183288574
62.3722038269043
62.2768325805664
58.8434982299805
65.805534362793
66.7592391967773
65.7101669311523
68.1897964477539
63.7073860168457
56.2685012817383
49.4972076416016
47.7805404663086
53.9796104431152
57.3175735473633
50.9277610778809
41.3907279968262
41.0092468261719
44.4425773620605
40.913875579834
34.2379531860352
32.1398048400879
37.7666549682617
43.9657249450684
47.8759117126465
50.9277610778809
45.4916534423828
39.2925796508789
39.1018409729004
37.8620262145996
39.7694320678711
49.2110939025879
52.2629470825195
45.1101722717285
46.1592445373535
50.5462799072266
45.9685020446777
43.3935050964355
38.6249885559082
31.1861019134521
28.9925842285156
24.7962875366211
22.2212886810303
29.278694152832
31.2814712524414
19.2648086547852
15.4499950408936
20.0277709960938
14.7824029922485
15.5453653335571
20.7907333374023
14.4962921142578
11.3490705490112
11.4444408416748
7.43888664245605
11.3490705490112
16.1175880432129
10.2999963760376
10.5861072540283
16.6898097991943
15.4499950408936
10.8722190856934
6.19907188415527
4.29166507720947
5.05462789535522
7.24814605712891
12.588885307312
13.4472179412842
12.8749961853027
19.074068069458
25.0823993682861
29.278694152832
30.5185089111328
24.891658782959
18.0249938964844
16.022216796875
22.3166599273682
26.7036952972412
22.3166599273682
22.5074005126953
19.9324016571045
13.5425882339478
16.5944385528564
18.8833274841309
17.1666603088379
17.1666603088379
11.7305517196655
4.48240613937378
5.24536848068237
9.72777462005615
10.9675893783569
4.48240613937378
-4.7685170173645
-4.29166507720947
2.28888821601868
4.29166507720947
6.38981294631958
9.34629344940186
7.53425693511963
2.38425850868225
-3.62407302856445
-3.71944332122803
-0.667592406272888
0.762962698936462
2.76573991775513
0
-2.76573991775513
0.0953703373670578
2.47962880134583
-2.38425850868225
-11.9212923049927
-12.302773475647
-6.58055353164673
-4.48240613937378
-3.62407302856445
-7.15277528762817
-10.9675893783569
-11.635181427002
-18.1203651428223
-22.7935104370117
-26.0361022949219
-40.2462844848633
-69.4296035766602
-113.681442260742
-163.941619873047
-208.574935913086
-235.469375610352
-248.248992919922
-249.87028503418
-218.779556274414
-167.947174072266
-125.698104858398
-99.5666351318359
-94.6073760986328
-90.1249694824219
-54.5518341064453
9.9185152053833
67.903678894043
148.491622924805
331.602661132813
595.778503417969
879.314514160156
1144.06262207031
1324.0263671875
1399.75048828125
1425.11901855469
1385.349609375
1213.7783203125
960.760803222656
721.381225585938
499.645202636719
258.835113525391
-20.3138828277588
-310.239715576172
-503.555389404297
-564.783142089844
-596.064636230469
-616.950744628906
-609.13037109375
-627.250732421875
-672.742370605469
-715.277526855469
-750.278442382813
-761.818298339844
-736.068298339844
-682.660888671875
-619.811828613281
-557.248901367188
-503.364654541016
-475.421142578125
-476.660949707031
-494.304473876953
-512.7109375
-517.288696289063
-498.119293212891
-454.248931884766
-403.511901855469
-357.829528808594
-316.534149169922
-284.680450439453
-271.710083007813
-278.862884521484
-291.261016845703
-290.7841796875
-280.102691650391
-257.118438720703
-215.918441772461
-177.961059570313
-149.254577636719
-126.651809692383
-115.779594421387
-108.817558288574
-109.00830078125
-117.305519104004
-113.872184753418
-93.1768188476563
-75.247200012207
-54.170352935791
-25.2731399536133
-6.6759238243103
6.38981294631958
17.6435127258301
28.0388793945313
37.4805450439453
38.3388748168945
36.6222114562988
39.3879508972168
48.2573928833008
55.5055389404297
57.8897972106934
68.6666412353516
84.4027481079102
94.2258987426758
103.572189331055
114.921257019043
115.779594421387
104.907371520996
95.751823425293
96.6101531982422
103.381446838379
106.337928771973
106.051818847656
110.248115539551
123.504592895508
136.856430053711
139.622177124023
138.477737426758
138.477737426758
138.76383972168
139.622177124023
138.668472290039
143.15087890625
154.976806640625
165.849014282227
177.29345703125
184.732345581055
177.198089599609
167.088836669922
161.557357788086
150.494400024414
137.142547607422
133.518478393555
139.145324707031
146.393478393555
154.023101806641
155.167541503906
147.44255065918
147.728652954102
147.44255065918
136.284210205078
132.183288574219
134.376815795898
135.330505371094
145.535140991211
161.080505371094
161.461990356445
148.586990356445
141.911071777344
140.861999511719
133.518478393555
119.68977355957
113.20458984375
121.978668212891
137.142547607422
147.824020385742
153.164764404297
151.73420715332
143.532363891602
132.56477355957
128.654586791992
133.423110961914
133.041625976563
134.56755065918
150.112915039063
166.61198425293
175.862899780273
184.160125732422
188.165679931641
180.631423950195
168.519393920898
155.83512878418
148.205505371094
154.690689086914
166.61198425293
178.056427001953
189.596237182617
192.075866699219
180.822158813477
161.843460083008
141.338836669922
124.362922668457
113.299964904785
106.910148620605
102.61848449707
94.7981185913086
92.2231216430664
97.182373046875
85.2610855102539
63.7073860168457
55.7916488647461
41.4860992431641
21.7444381713867
21.839807510376
22.7935104370117
15.2592544555664
17.1666603088379
22.7935104370117
12.6842555999756
-9.06018257141113
-17.738883972168
-17.357400894165
-30.0416564941406
-48.8296127319336
-52.3583183288574
-45.9685020446777
-48.9249839782715
-59.0342407226563
-62.4675712585449
-66.6638641357422
-78.5851593017578
-89.0758972167969
-97.0870056152344
-103.953666687012
-107.291633605957
-111.869407653809
-114.539779663086
-112.25089263916
-111.487930297852
-109.199035644531
-115.874961853027
-129.894409179688
-136.284210205078
-144.962921142578
-154.690689086914
-157.742538452148
-160.41291809082
-160.22216796875
-151.161987304688
-145.2490234375
-144.009216308594
-139.717544555664
-141.338836669922
-147.061065673828
-146.965698242188
-148.491622924805
-151.543472290039
-150.303649902344
-151.161987304688
-152.592544555664
-152.211059570313
-151.066619873047
-143.723098754883
-136.284210205078
-139.431442260742
-148.873107910156
-151.448104858398
-141.338836669922
-127.796257019043
-121.024963378906
-124.458290100098
-129.608291625977
-125.984222412109
-115.016632080078
-112.060150146484
-118.259223937988
-113.490707397461
-109.580520629883
-116.637924194336
-114.825889587402
-110.248115539551
-108.626815795898
-95.4657135009766
-87.4546051025391
-88.4083023071289
-81.9231185913086
-82.2092361450195
-83.2583084106445
-76.1055297851563
-76.6777496337891
-75.5333099365234
-72.7675704956055
-72.9583129882813
-68.8573837280273
-64.3749771118164
-57.8897972106934
-53.2166481018066
-51.7860946655273
-50.832389831543
-51.8814659118652
-52.453685760498
-53.6935005187988
-52.9305381774902
-48.066650390625
-37.8620262145996
-26.5129547119141
-28.4203605651855
-41.0092468261719
-52.5490570068359
-51.5953521728516
-37.099063873291
-26.4175834655762
-22.3166599273682
-18.6925868988037
-16.30832862854
-11.9212923049927
-7.6296272277832
-12.3981437683105
-19.4555492401123
-20.0277709960938
-16.1175880432129
-11.4444408416748
-10.7768487930298
-3.91018390655518
9.25092315673828
12.302773475647
7.82036781311035
5.81759071350098
4.29166507720947
2.28888821601868
6.38981294631958
14.9731435775757
17.1666603088379
12.9703664779663
11.9212923049927
12.9703664779663
12.7796258926392
10.4907369613647
3.91018390655518
2.8611102104187
12.0166625976563
15.0685138702393
9.537034034729
12.1120328903198
21.0768451690674
26.226842880249
35.2870254516602
40.2462844848633
34.1425819396973
35.1916542053223
41.1046180725098
40.913875579834
39.2925796508789
42.5351715087891
50.6416511535645
49.783317565918
44.8240585327148
47.3036880493164
44.6333198547363
39.2925796508789
42.0583190917969
34.810173034668
25.2731399536133
30.995361328125
37.0036926269531
44.251838684082
53.4073905944824
49.8786888122559
43.7749862670898
46.4453544616699
49.9740562438965
45.4916534423828
35.382396697998
36.5268402099609
47.7805404663086
53.5027618408203
56.2685012817383
55.7916488647461
52.6444282531738
52.8351669311523
44.5379486083984
33.1888771057129
37.9573936462402
48.8296127319336
46.7314682006836
43.9657249450684
53.3120193481445
56.4592399597168
47.8759117126465
37.9573936462402
35.4777679443359
38.9110984802246
40.3416519165039
46.3499870300293
45.9685020446777
34.4286918640137
36.6222114562988
50.832389831543
58.8434982299805
58.652759552002
50.1647987365723
42.4398002624512
43.1073951721191
41.2953567504883
37.099063873291
34.5240631103516
29.6601753234863
26.226842880249
25.7499923706055
28.1342506408691
27.8481388092041
18.5018463134766
12.8749961853027
22.7935104370117
33.2842483520508
32.1398048400879
29.6601753234863
32.6166572570801
37.7666549682617
37.7666549682617
33.1888771057129
31.9490642547607
31.4722118377686
28.5157318115234
22.9842510223389
23.2703628540039
30.8999900817871
32.7120246887207
35.8592491149902
38.0527648925781
26.5129547119141
21.7444381713867
21.4583263397217
13.7333288192749
11.9212923049927
11.8259220123291
11.0629596710205
13.4472179412842
12.588885307312
11.7305517196655
13.7333288192749
16.8805503845215
20.3138828277588
17.4527721405029
10.9675893783569
15.2592544555664
21.6490669250488
16.7851791381836
12.3981437683105
12.6842555999756
15.2592544555664
21.4583263397217
29.8509159088135
34.6194343566895
29.6601753234863
24.0333251953125
26.226842880249
29.3740653991699
32.6166572570801
30.70924949646
20.5999927520752
10.1092557907104
5.34073925018311
5.24536848068237
3.05185079574585
-2.76573991775513
-7.6296272277832
-3.62407302856445
2.09814739227295
-5.43610954284668
-18.3111057281494
-23.3657341003418
-23.8425846099854
-29.0879535675049
-30.8046188354492
-21.0768451690674
-13.1611070632935
-8.58333015441895
-4.7685170173645
-8.67870044708252
-15.9268465042114
-14.1148099899292
-4.57777643203735
2.8611102104187
1.62129580974579
-9.25092315673828
-16.022216796875
-19.6462898254395
-32.3305435180664
-34.6194343566895
-24.9870281219482
-18.8833274841309
-18.787956237793
-21.7444381713867
-18.5972156524658
-16.9759197235107
-19.360179901123
-20.6953639984131
-26.0361022949219
-26.5129547119141
-22.8888816833496
-23.9379558563232
-27.7527694702148
-44.7286911010742
-81.6370086669922
-123.599960327148
-163.464767456055
-199.705490112305
-221.163818359375
-232.131408691406
-219.637893676758
-173.001800537109
-128.749954223633
-106.051818847656
-92.2231216430664
-80.3971939086914
-64.5657196044922
-11.5398111343384
66.2823867797852
119.308296203613
226.695297241211
455.679473876953
730.250671386719
1004.34503173828
1245.15515136719
1367.32458496094
1388.87829589844
1390.88098144531
1294.74768066406
1064.71447753906
825.621032714844
607.318298339844
376.712829589844
114.158294677734
-185.209197998047
-429.643371582031
-544.087768554688
-578.230346679688
-600.547058105469
-614.280334472656
-621.814636230469
-643.368286132813
-685.331237792969
-738.738647460938
-770.592346191406
-762.295104980469
-726.626647949219
-662.346984863281
-585.573913574219
-526.730407714844
-489.249847412109
-477.614654541016
-486.674835205078
-504.318359375
-524.822998046875
-522.247985839844
-489.249847412109
-442.232269287109
-383.198028564453
-330.172119140625
-298.795288085938
-270.947143554688
-254.829544067383
-262.745300292969
-267.13232421875
-258.835113525391
-247.86750793457
-224.787887573242
-182.061981201172
-137.237915039063
-114.158294677734
-109.485153198242
-103.476821899414
-100.043487548828
-100.424964904785
-93.1768188476563
-85.8333053588867
-72.1953506469727
-38.7203598022461
-12.4935140609741
-1.23981440067291
11.7305517196655
14.3055505752563
11.4444408416748
21.4583263397217
38.4342460632324
51.1185035705566
55.4101676940918
65.6147918701172
81.9231185913086
88.5036773681641
90.6971969604492
97.5638580322266
103.76293182373
111.201812744141
118.640701293945
116.161071777344
109.103668212891
113.109222412109
124.362922668457
128.36848449707
125.316627502441
121.69255065918
127.700881958008
147.53791809082
157.933288574219
150.017547607422
139.049957275391
131.801803588867
132.374038696289
131.515701293945
122.074035644531
120.929588317871
129.799026489258
138.191619873047
149.063842773438
159.268463134766
160.889770507813
151.352722167969
133.327728271484
117.686996459961
113.395332336426
117.019409179688
125.602737426758
140.480514526367
156.407363891602
161.271240234375
154.881439208984
148.300872802734
137.810134887695
119.308296203613
111.678665161133
113.586074829102
115.302742004395
130.752731323242
147.44255065918
147.34716796875
145.630508422852
142.292541503906
137.428665161133
130.46662902832
109.00830078125
99.1851501464844
112.25089263916
122.83699798584
138.668472290039
159.173095703125
162.51106262207
156.979583740234
154.118469238281
148.110137939453
140.194396972656
135.616622924805
136.188842773438
137.619400024414
145.058288574219
171.285125732422
193.029571533203
193.697158813477
191.789749145508
187.211975097656
171.761978149414
157.265686035156
155.739761352539
163.560134887695
174.241607666016
185.87678527832
192.648086547852
189.024017333984
173.287902832031
153.641616821289
136.856430053711
123.218475341797
114.444404602051
104.239784240723
98.6129302978516
102.713859558105
102.427742004395
100.615707397461
95.2749710083008
84.2120132446289
76.0101623535156
60.274055480957
41.7722091674805
36.9083213806152
32.9027671813965
27.0851764678955
21.6490669250488
6.38981294631958
-12.302773475647
-28.4203605651855
-43.9657249450684
-53.9796104431152
-62.6583137512207
-66.854606628418
-60.0833129882813
-61.8953514099121
-70.7647933959961
-69.8110885620117
-68.9527587890625
-73.5305328369141
-79.729606628418
-92.318489074707
-106.147186279297
-111.011077880859
-108.245338439941
-107.86385345459
-117.782371520996
-126.07958984375
-122.741630554199
-121.406440734863
-128.36848449707
-138.096252441406
-147.53791809082
-151.73420715332
-149.731430053711
-148.205505371094
-149.922180175781
-147.824020385742
-146.107360839844
-149.826797485352
-153.069396972656
-158.886993408203
-161.557357788086
-155.644393920898
-149.731430053711
-142.769393920898
-137.714767456055
-134.090698242188
-126.461067199707
-124.553665161133
-133.136993408203
-134.090698242188
-123.790702819824
-123.218475341797
-133.995330810547
-138.382369995117
-138.85920715332
-140.003662109375
-130.561996459961
-119.68977355957
-120.071258544922
-117.877738952637
-108.531448364258
-105.384223937988
-109.675888061523
-114.25366973877
-116.542556762695
-120.071258544922
-123.313850402832
-122.169403076172
-122.741630554199
-123.313850402832
-119.68977355957
-111.201812744141
-99.948112487793
-96.4194107055664
-96.2286758422852
-92.1277465820313
-93.6536712646484
-93.2721939086914
-84.6888580322266
-82.2092361450195
-75.247200012207
-57.7944259643555
-51.9768333435059
-57.8897972106934
-59.701831817627
-59.6064605712891
-60.6555366516113
-58.8434982299805
-54.6472053527832
-59.3203506469727
-67.2360916137695
-60.5601654052734
-51.4999847412109
-50.4509086608887
-51.3092422485352
-52.3583183288574
-52.3583183288574
-53.3120193481445
-50.5462799072266
-45.2055397033691
-39.6740608215332
-24.4148063659668
-17.738883972168
-22.6981410980225
-20.5046234130859
-22.2212886810303
-26.226842880249
-24.2240657806396
-25.8453617095947
-23.7472152709961
-9.06018257141113
9.15555286407471
18.5972156524658
14.2101802825928
10.1092557907104
13.4472179412842
12.3981437683105
6.58055353164673
3.91018390655518
6.19907188415527
15.0685138702393
24.891658782959
23.3657341003418
24.0333251953125
28.7064723968506
22.125919342041
18.6925868988037
18.6925868988037
15.4499950408936
23.5564746856689
34.4286918640137
33.5703582763672
36.431468963623
39.9601707458496
33.0935096740723
26.226842880249
22.6981410980225
26.9898052215576
34.2379531860352
31.6629524230957
32.2351760864258
40.2462844848633
45.5870208740234
45.7777633666992
41.8675804138184
36.8129501342773
32.3305435180664
33.0935096740723
36.7175827026367
36.0499877929688
39.6740608215332
50.6416511535645
55.9823913574219
52.5490570068359
50.7370223999023
51.6907234191895
53.5981292724609
55.6962776184082
54.0749816894531
52.7397994995117
56.0777587890625
60.274055480957
63.6120147705078
69.3342361450195
73.8166427612305
72.3860855102539
68.5712738037109
63.039794921875
50.832389831543
40.3416519165039
39.197208404541
40.0555419921875
41.1999855041504
44.3472061157227
51.4999847412109
55.6009063720703
50.355541229248
52.1675758361816
58.1759071350098
52.5490570068359
48.8296127319336
56.8407211303711
66.0916442871094
66.9499816894531
64.4703521728516
65.6147918701172
58.652759552002
46.1592445373535
43.9657249450684
50.4509086608887
54.5518341064453
40.5323944091797
21.3629570007324
22.6027698516846
32.9027671813965
35.0962867736816
31.3768424987793
31.5675830841064
34.6194343566895
31.8536930084229
34.2379531860352
42.4398002624512
38.5296173095703
30.3277683258057
29.3740653991699
28.8972129821777
23.5564746856689
23.7472152709961
32.4259147644043
33.2842483520508
28.0388793945313
24.9870281219482
16.022216796875
8.3925895690918
8.58333015441895
13.256477355957
21.7444381713867
26.8944358825684
23.9379558563232
15.35462474823
12.1120328903198
19.2648086547852
27.5620288848877
32.1398048400879
29.0879535675049
27.7527694702148
30.1370277404785
26.4175834655762
24.0333251953125
20.5999927520752
11.0629596710205
7.82036781311035
9.06018257141113
8.0111083984375
9.06018257141113
8.86944198608398
10.2999963760376
13.256477355957
6.86666440963745
5.81759071350098
15.8314762115479
15.35462474823
10.6814785003662
15.6407356262207
16.9759197235107
15.9268465042114
21.3629570007324
20.0277709960938
9.34629344940186
5.24536848068237
5.91296100616455
5.24536848068237
3.33796191215515
0.381481349468231
2.1935179233551
4.7685170173645
2.5749990940094
5.43610954284668
7.91573810577393
-0.667592406272888
-16.022216796875
-27.0851764678955
-24.0333251953125
-11.8259220123291
-6.96203470230103
-10.2999963760376
-12.6842555999756
-16.9759197235107
-18.4064750671387
-10.8722190856934
-6.19907188415527
-5.1499981880188
-6.77129411697388
-8.96481227874756
-6.77129411697388
-10.7768487930298
-14.1148099899292
-10.5861072540283
-10.7768487930298
-11.1583299636841
-11.635181427002
-11.635181427002
-12.0166625976563
-17.357400894165
-19.360179901123
-15.7361059188843
-12.7796258926392
-13.256477355957
-19.360179901123
-31.8536930084229
-46.0638732910156
-69.6203460693359
-110.248115539551
-152.211059570313
-191.885116577148
-222.499008178711
-239.856399536133
-256.164733886719
-243.957336425781
-185.399948120117
-129.036071777344
-102.427742004395
-77.7268295288086
-45.7777633666992
-17.0712909698486
20.9814739227295
70.4786834716797
122.93236541748
212.771224975586
391.781341552734
642.605346679688
890.282104492188
1063.474609375
1133.95336914063
1161.42004394531
1165.52087402344
1059.564453125
884.273803710938
736.545104980469
575.750732421875
369.083221435547
106.147186279297
-160.508285522461
-309.762878417969
-370.799896240234
-417.245239257813
-447.000793457031
-475.802612304688
-521.3896484375
-575.559997558594
-620.670166015625
-650.044250488281
-669.213684082031
-673.982177734375
-652.809997558594
-607.0322265625
-547.330383300781
-487.723907470703
-450.338745117188
-440.992462158203
-446.905426025391
-451.673919677734
-451.00634765625
-447.286895751953
-430.883209228516
-397.312835693359
-351.725799560547
-298.795288085938
-256.164733886719
-238.330474853516
-233.561965942383
-232.226776123047
-236.804550170898
-241.38232421875
-228.793441772461
-198.561050415039
-171.571243286133
-145.2490234375
-115.684219360352
-97.0870056152344
-85.8333053588867
-82.3046035766602
-85.3564529418945
-80.8740463256836
-70.7647933959961
-65.4240493774414
-53.4073905944824
-34.7148017883301
-23.2703628540039
-9.9185152053833
10.3953666687012
22.2212886810303
30.8046188354492
43.3935050964355
46.6360969543457
38.7203598022461
39.9601707458496
60.1786842346191
75.9147872924805
78.1083068847656
83.4490509033203
88.6944122314453
90.9833068847656
91.269416809082
92.986083984375
99.6620025634766
100.997192382813
100.424964904785
103.572189331055
105.479598999023
112.060150146484
125.316627502441
133.899963378906
137.237915039063
144.390701293945
149.254577636719
143.436996459961
131.229583740234
119.785148620605
115.016632080078
114.539779663086
119.117553710938
126.461067199707
131.611068725586
136.379592895508
141.815689086914
146.298095703125
138.096252441406
120.166625976563
111.392555236816
108.340705871582
109.96199798584
116.542556762695
118.068481445313
127.224029541016
142.578659057617
138.76383972168
127.128662109375
123.218475341797
114.158294677734
102.427742004395
102.999969482422
111.201812744141
123.409217834473
141.911071777344
154.213836669922
148.682357788086
129.512924194336
114.539779663086
113.681442260742
113.299964904785
117.305519104004
132.087921142578
140.671249389648
147.061065673828
152.687911987305
142.197174072266
131.611068725586
128.845321655273
118.354591369629
111.297187805176
114.921257019043
117.114776611328
127.224029541016
146.107360839844
149.063842773438
142.578659057617
145.2490234375
147.824020385742
144.772171020508
146.393478393555
153.927734375
154.881439208984
152.211059570313
156.884216308594
157.456436157227
149.826797485352
142.769393920898
129.703659057617
112.823112487793
101.37866973877
92.2231216430664
88.4083023071289
85.8333053588867
76.8684921264648
73.3397903442383
73.9120101928711
65.3286819458008
52.2629470825195
38.9110984802246
23.7472152709961
14.4962921142578
11.1583299636841
0.858333051204681
-8.86944198608398
0.286111027002335
5.05462789535522
-14.5916624069214
-29.9462871551514
-37.9573936462402
-49.8786888122559
-55.219425201416
-61.6092376708984
-69.1434936523438
-63.5166473388672
-56.2685012817383
-58.2712783813477
-61.4184989929199
-63.3259048461914
-66.4731292724609
-76.7731246948242
-92.2231216430664
-96.7055282592773
-92.318489074707
-89.2666397094727
-88.4083023071289
-87.6453399658203
-88.5036773681641
-91.269416809082
-95.084228515625
-101.664779663086
-110.057373046875
-117.59162902832
-120.452735900879
-126.842552185059
-134.853652954102
-127.414772033691
-118.926811218262
-116.637924194336
-115.111999511719
-119.403663635254
-119.403663635254
-113.776817321777
-115.398109436035
-116.542556762695
-110.820335388184
-109.96199798584
-118.73607635498
-131.801803588867
-133.709213256836
-125.125885009766
-130.180511474609
-139.812911987305
-141.243469238281
-141.434219360352
-138.000885009766
-130.561996459961
-120.73885345459
-110.534225463867
-105.574966430664
-104.144409179688
-101.569412231445
-97.4684906005859
-98.8036727905273
-102.713859558105
-95.2749710083008
-88.6944122314453
-92.318489074707
-92.0323791503906
-86.5962677001953
-83.925895690918
-75.7240524291992
-64.6610870361328
-61.6092376708984
-58.4620170593262
-57.7944259643555
-69.9064559936523
-69.3342361450195
-56.936092376709
-58.8434982299805
-59.0342407226563
-59.3203506469727
-66.2823867797852
-58.4620170593262
-46.5407257080078
-47.3990592956543
-53.5981292724609
-57.6036834716797
-58.7481307983398
-57.9851684570313
-50.832389831543
-39.9601707458496
-32.04443359375
-28.7064723968506
-31.8536930084229
-35.0962867736816
-40.7231369018555
-49.9740562438965
-49.9740562438965
-43.679615020752
-40.7231369018555
-33.761100769043
-20.3138828277588
-12.7796258926392
-9.06018257141113
-2.5749990940094
-3.91018390655518
-11.8259220123291
-11.635181427002
-9.06018257141113
-10.4907369613647
-6.48518323898315
-0.858333051204681
1.23981440067291
9.06018257141113
14.3055505752563
7.24814605712891
-2.1935179233551
-5.81759071350098
-3.62407302856445
-2.5749990940094
-2.00277709960938
5.34073925018311
14.1148099899292
11.1583299636841
-1.04907369613647
-6.29444265365601
-4.86388731002808
-9.15555286407471
-12.4935140609741
-4.38703584671021
10.4907369613647
20.7907333374023
25.0823993682861
27.8481388092041
31.9490642547607
31.1861019134521
23.1749935150146
23.5564746856689
26.226842880249
18.6925868988037
18.8833274841309
27.2759170532227
30.995361328125
33.8564720153809
38.5296173095703
40.913875579834
35.6685066223145
34.9055442810059
41.1046180725098
37.5759124755859
33.8564720153809
41.0092468261719
50.0694274902344
52.2629470825195
46.4453544616699
43.8703575134277
48.8296127319336
49.2110939025879
46.5407257080078
44.5379486083984
35.6685066223145
32.4259147644043
39.1018409729004
42.1536903381348
46.3499870300293
52.8351669311523
52.5490570068359
48.8296127319336
49.4972076416016
52.1675758361816
50.6416511535645
49.4018363952637
47.4944305419922
35.4777679443359
31.2814712524414
42.2490615844727
50.9277610778809
52.9305381774902
52.0722045898438
49.8786888122559
47.9712791442871
49.1157264709473
52.3583183288574
52.7397994995117
46.8268356323242
38.8157272338867
35.9546165466309
34.9055442810059
33.8564720153809
36.8129501342773
35.6685066223145
30.1370277404785
31.1861019134521
29.6601753234863
25.8453617095947
29.0879535675049
39.2925796508789
47.5897979736328
46.6360969543457
45.7777633666992
45.5870208740234
43.4888763427734
48.3527641296387
54.5518341064453
55.219425201416
55.4101676940918
55.3147964477539
55.219425201416
43.4888763427734
25.0823993682861
25.6546211242676
32.4259147644043
31.6629524230957
35.4777679443359
35.8592491149902
31.7583236694336
35.1916542053223
35.2870254516602
30.4231376647949
29.8509159088135
29.5648059844971
24.0333251953125
12.4935140609741
7.24814605712891
7.72499752044678
6.38981294631958
5.43610954284668
3.147221326828
0.381481349468231
-6.1037015914917
-10.0138854980469
-3.8148136138916
6.6759238243103
10.5861072540283
2.00277709960938
-4.00555419921875
-2.47962880134583
-1.23981440067291
-4.1962947845459
-9.34629344940186
-5.7222204208374
-2.00277709960938
-2.67036962509155
2.5749990940094
3.8148136138916
4.1962947845459
13.1611070632935
8.3925895690918
-12.0166625976563
-22.4120292663574
-22.7935104370117
-30.3277683258057
-50.832389831543
-83.2583084106445
-122.93236541748
-166.61198425293
-210.386962890625
-229.937896728516
-236.423065185547
-244.338806152344
-209.147155761719
-144.772171020508
-108.817558288574
-94.6073760986328
-69.0481262207031
-35.7638778686523
-5.91296100616455
45.5870208740234
112.823112487793
185.113830566406
313.196197509766
526.158142089844
782.418273925781
1003.00988769531
1134.43017578125
1189.07739257813
1221.69409179688
1191.27087402344
1030.09509277344
839.354370117188
678.846069335938
499.931335449219
275.238800048828
-6.29444265365601
-251.873062133789
-370.895263671875
-410.092468261719
-433.458190917969
-464.835021972656
-503.269287109375
-545.804443359375
-593.966491699219
-640.793334960938
-676.366455078125
-689.622924804688
-675.984985351563
-636.978515625
-583.952575683594
-529.591491699219
-477.328552246094
-436.128570556641
-424.588745117188
-441.373931884766
-461.306335449219
-473.704467773438
-468.840576171875
-438.417449951172
-399.315612792969
-354.5869140625
-306.710998535156
-272.949920654297
-251.491592407227
-240.810104370117
-246.150848388672
-251.873062133789
-247.104553222656
-228.60270690918
-200.563827514648
-175.672164916992
-144.009216308594
-111.392555236816
-95.8471908569336
-85.9286727905273
-86.4055252075195
-96.2286758422852
-93.9397811889648
-85.7379379272461
-76.296272277832
-57.6036834716797
-33.1888771057129
-14.7824029922485
-3.62407302856445
6.19907188415527
14.2101802825928
17.5481433868408
19.8370304107666
25.7499923706055
31.0907306671143
28.8018417358398
33.2842483520508
55.7916488647461
79.5388641357422
97.2777481079102
109.103668212891
103.286079406738
93.8444137573242
96.5147857666016
94.5120086669922
85.3564529418945
83.0675659179688
85.9286727905273
90.8879318237305
99.5666351318359
107.86385345459
111.774040222168
115.398109436035
123.027740478516
126.842552185059
124.362922668457
117.686996459961
107.95922088623
105.670333862305
109.675888061523
115.207366943359
125.793479919434
133.136993408203
133.899963378906
129.703659057617
123.218475341797
121.311073303223
122.264778137207
122.83699798584
118.259223937988
118.73607635498
131.611068725586
136.474960327148
142.292541503906
152.211059570313
138.000885009766
120.357368469238
121.597183227539
119.117553710938
112.632369995117
124.076812744141
146.584213256836
158.410140991211
157.837905883789
157.742538452148
159.077728271484
152.020324707031
141.815689086914
134.853652954102
130.657363891602
130.561996459961
137.333282470703
150.017547607422
160.031433105469
163.846237182617
159.077728271484
143.913848876953
133.136993408203
138.286987304688
137.714767456055
126.747184753418
134.949035644531
157.265686035156
165.086059570313
167.661056518555
171.952728271484
168.614761352539
162.987915039063
155.549026489258
147.34716796875
151.352722167969
157.933288574219
153.83235168457
157.742538452148
170.903656005859
168.90087890625
150.303649902344
131.038848876953
117.59162902832
99.5666351318359
82.3046035766602
77.5360870361328
81.827751159668
91.0786743164063
91.7462692260742
82.876823425293
69.4296035766602
49.4018363952637
34.1425819396973
21.5536975860596
0.190740674734116
-16.022216796875
-15.4499950408936
-8.48795986175537
-6.6759238243103
-13.0657367706299
-24.5101776123047
-34.5240631103516
-42.9166526794434
-53.0259094238281
-72.1953506469727
-89.5527496337891
-82.6860809326172
-69.5249786376953
-74.1027526855469
-83.4490509033203
-83.1629333496094
-80.111083984375
-85.9286727905273
-97.9453353881836
-107.100891113281
-108.340705871582
-104.716636657715
-102.52311706543
-96.4194107055664
-95.2749710083008
-109.771263122559
-123.218475341797
-126.556442260742
-130.37126159668
-135.807357788086
-134.949035644531
-126.937919616699
-119.880516052246
-122.646255493164
-127.224029541016
-125.030517578125
-123.695327758789
-127.128662109375
-133.041625976563
-139.812911987305
-140.575881958008
-138.85920715332
-143.532363891602
-144.581436157227
-136.474960327148
-131.420333862305
-128.749954223633
-123.218475341797
-126.556442260742
-132.946258544922
-127.510147094727
-124.649032592773
-121.69255065918
-109.96199798584
-113.490707397461
-127.605514526367
-133.804580688477
-131.515701293945
-117.59162902832
-107.482376098633
-109.00830078125
-108.340705871582
-105.86107635498
-106.147186279297
-108.340705871582
-112.25089263916
-110.152740478516
-94.7981185913086
-79.6342315673828
-73.8166427612305
-72.1953506469727
-77.5360870361328
-86.9777526855469
-85.3564529418945
-82.0184936523438
-85.4518280029297
-75.247200012207
-65.137939453125
-62.2768325805664
-54.3610954284668
-54.8379440307617
-58.4620170593262
-50.0694274902344
-44.9194297790527
-48.734245300293
-47.7805404663086
-43.3935050964355
-36.1453590393066
-31.3768424987793
-30.6138782501221
-20.0277709960938
-9.06018257141113
-10.5861072540283
-20.5999927520752
-29.7555465698242
-30.4231376647949
-28.8972129821777
-24.7962875366211
-13.8286991119385
-11.1583299636841
-12.6842555999756
-9.72777462005615
-16.4990692138672
-25.8453617095947
-23.5564746856689
-20.5046234130859
-19.1694374084473
-19.4555492401123
-14.5916624069214
-4.29166507720947
4.00555419921875
12.9703664779663
13.4472179412842
9.15555286407471
10.204626083374
5.43610954284668
-1.14444410800934
0.286111027002335
-0.381481349468231
0.190740674734116
4.95925760269165
7.91573810577393
10.204626083374
14.7824029922485
24.0333251953125
28.5157318115234
21.2675857543945
12.7796258926392
12.4935140609741
25.6546211242676
38.148136138916
35.0962867736816
35.382396697998
41.7722091674805
38.148136138916
33.6657295227051
33.8564720153809
30.995361328125
26.7036952972412
23.3657341003418
30.0416564941406
47.5897979736328
51.5953521728516
38.5296173095703
33.761100769043
38.2435073852539
35.8592491149902
34.6194343566895
38.2435073852539
35.2870254516602
35.1916542053223
41.5814666748047
47.4944305419922
51.9768333435059
48.4481315612793
41.1046180725098
40.7231369018555
37.5759124755859
32.7120246887207
34.1425819396973
37.3851737976074
45.2055397033691
51.8814659118652
50.7370223999023
45.8731346130371
40.5323944091797
36.0499877929688
33.0935096740723
36.0499877929688
37.6712837219238
35.9546165466309
38.148136138916
35.382396697998
34.0472106933594
42.0583190917969
48.2573928833008
47.3036880493164
41.0092468261719
36.7175827026367
39.0064697265625
40.4370231628418
41.5814666748047
47.8759117126465
49.783317565918
49.0203552246094
51.404613494873
51.8814659118652
50.2601699829102
44.5379486083984
43.679615020752
50.7370223999023
45.8731346130371
31.5675830841064
27.7527694702148
32.7120246887207
36.1453590393066
40.2462844848633
43.8703575134277
38.7203598022461
33.6657295227051
40.6277656555176
50.9277610778809
52.453685760498
45.4916534423828
39.3879508972168
30.4231376647949
20.8861045837402
20.5046234130859
19.5509204864502
24.7962875366211
38.4342460632324
35.5731353759766
34.2379531860352
42.4398002624512
38.8157272338867
36.7175827026367
40.1509132385254
36.8129501342773
33.4749908447266
35.2870254516602
32.9981384277344
27.7527694702148
31.6629524230957
33.9518394470215
33.1888771057129
31.6629524230957
22.6981410980225
24.7962875366211
31.6629524230957
22.7935104370117
18.1203651428223
22.4120292663574
21.839807510376
15.5453653335571
12.3981437683105
11.3490705490112
5.81759071350098
1.43055510520935
-3.91018390655518
-13.5425882339478
-16.7851791381836
-14.9731435775757
-15.4499950408936
-17.738883972168
-15.6407356262207
-7.34351634979248
-1.23981440067291
5.53147983551025
8.58333015441895
6.86666440963745
11.7305517196655
13.1611070632935
7.91573810577393
0.9537034034729
-5.7222204208374
-5.62685012817383
-2.67036962509155
-4.1962947845459
-8.20184898376465
-3.71944332122803
2.76573991775513
-1.62129580974579
-7.72499752044678
-8.3925895690918
-14.4962921142578
-22.4120292663574
-33.2842483520508
-52.2629470825195
-74.9610900878906
-108.340705871582
-151.73420715332
-200.277709960938
-232.417510986328
-236.327697753906
-248.725845336914
-245.006408691406
-194.174011230469
-145.535140991211
-118.068481445313
-100.329597473145
-81.16015625
-44.0610961914063
13.256477355957
78.2036819458008
132.374038696289
234.89714050293
446.333190917969
710.699768066406
973.254333496094
1194.51354980469
1297.70422363281
1318.49499511719
1328.31811523438
1227.41625976563
1008.25524902344
792.336791992188
577.467407226563
348.387847900391
98.899040222168
-173.478652954102
-391.972106933594
-498.405395507813
-528.828552246094
-546.472045898438
-570.123901367188
-596.54150390625
-622.291442871094
-656.815551757813
-701.162719726563
-727.389587402344
-722.907165527344
-690.481262207031
-631.160888671875
-558.965576171875
-498.214660644531
-459.112823486328
-447.096160888672
-459.303558349609
-477.328552246094
-492.492431640625
-493.255401611328
-468.840576171875
-430.787811279297
-384.151733398438
-334.368408203125
-292.405456542969
-268.658233642578
-267.513793945313
-275.048065185547
-281.437866210938
-277.527679443359
-257.118438720703
-233.561965942383
-205.427719116211
-173.574020385742
-146.965698242188
-125.507369995117
-119.499038696289
-119.117553710938
-109.485153198242
-107.95922088623
-99.7573776245117
-76.8684921264648
-60.5601654052734
-44.3472061157227
-27.657398223877
-11.0629596710205
5.34073925018311
12.9703664779663
19.7416610717773
28.3249912261963
33.1888771057129
38.2435073852539
45.4916534423828
56.2685012817383
70.2879409790039
81.0647888183594
82.5907135009766
82.3046035766602
90.0296020507813
104.812004089355
111.678665161133
101.283302307129
92.2231216430664
97.9453353881836
107.387001037598
111.583297729492
115.016632080078
120.452735900879
126.461067199707
131.992553710938
135.807357788086
134.472183227539
128.36848449707
126.07958984375
122.741630554199
114.921257019043
116.256446838379
131.420333862305
147.156433105469
153.164764404297
153.73698425293
153.355499267578
142.960144042969
128.463851928711
130.085144042969
132.56477355957
123.886070251465
126.365699768066
137.619400024414
146.011993408203
156.121246337891
156.311981201172
143.15087890625
128.36848449707
122.550888061523
120.929588317871
114.730522155762
121.215698242188
139.431442260742
150.494400024414
156.311981201172
160.699020385742
157.265686035156
148.777725219727
138.668472290039
124.076812744141
115.874961853027
124.93514251709
137.237915039063
145.725875854492
162.797164916992
182.920318603516
187.974945068359
175.1953125
153.83235168457
135.616622924805
131.992553710938
141.052734375
150.685134887695
162.606430053711
175.004577636719
182.061981201172
182.348083496094
173.09716796875
164.799942016602
164.895324707031
164.036987304688
161.557357788086
162.701797485352
171.666610717773
178.628646850586
176.911987304688
175.1953125
169.568466186523
157.170318603516
141.052734375
123.790702819824
107.673110961914
93.9397811889648
92.2231216430664
97.5638580322266
93.0814514160156
80.778678894043
70.1925735473633
64.5657196044922
53.3120193481445
34.1425819396973
23.9379558563232
22.0305480957031
18.9786968231201
17.9296245574951
17.1666603088379
10.5861072540283
-2.09814739227295
-17.0712909698486
-29.9462871551514
-40.1509132385254
-46.0638732910156
-47.7805404663086
-51.0231323242188
-54.9333152770996
-62.0860900878906
-77.8221969604492
-86.0240478515625
-86.1194152832031
-94.7981185913086
-107.768486022949
-117.877738952637
-124.649032592773
-126.365699768066
-127.128662109375
-127.700881958008
-121.215698242188
-119.59440612793
-126.937919616699
-129.512924194336
-132.755508422852
-136.379592895508
-138.382369995117
-147.251800537109
-152.115692138672
-146.298095703125
-139.145324707031
-138.286987304688
-140.003662109375
-136.379592895508
-130.561996459961
-130.848098754883
-138.668472290039
-141.338836669922
-132.374038696289
-130.180511474609
-133.232360839844
-132.278656005859
-134.281433105469
-126.842552185059
-117.782371520996
-124.744407653809
-133.709213256836
-133.899963378906
-130.46662902832
-131.134216308594
-129.989776611328
-121.978668212891
-114.34903717041
-117.210144042969
-123.9814453125
-118.640701293945
-112.155517578125
-116.828666687012
-120.73885345459
-122.646255493164
-118.44995880127
-105.384223937988
-103.572189331055
-105.002746582031
-99.8527450561523
-101.569412231445
-98.9944152832031
-88.5990447998047
-86.0240478515625
-89.8388595581055
-89.2666397094727
-85.4518280029297
-81.2555313110352
-76.5823822021484
-76.0101623535156
-69.1434936523438
-59.9879455566406
-55.7916488647461
-46.6360969543457
-45.8731346130371
-59.7972030639648
-65.137939453125
-55.6009063720703
-49.783317565918
-44.7286911010742
-32.3305435180664
-30.2323970794678
-32.5212860107422
-28.5157318115234
-38.0527648925781
-46.9222068786621
-37.099063873291
-30.3277683258057
-31.3768424987793
-24.5101776123047
-13.1611070632935
-6.38981294631958
-3.05185079574585
-2.76573991775513
-2.67036962509155
-5.53147983551025
-15.8314762115479
-21.7444381713867
-24.3194370269775
-27.7527694702148
-20.1231422424316
-5.7222204208374
2.38425850868225
2.5749990940094
0.9537034034729
0
-2.47962880134583
-3.147221326828
-3.5287024974823
-3.24259161949158
6.00833129882813
19.074068069458
21.1722145080566
16.4036979675293
20.6953639984131
29.278694152832
26.5129547119141
22.3166599273682
25.5592517852783
29.278694152832
29.9462871551514
27.7527694702148
26.6083240509033
29.5648059844971
39.9601707458496
47.5897979736328
37.0036926269531
33.5703582763672
45.5870208740234
44.7286911010742
39.6740608215332
44.251838684082
47.2083168029785
47.8759117126465
48.6388740539551
51.2138710021973
50.9277610778809
40.8185043334961
31.1861019134521
27.657398223877
31.7583236694336
47.3036880493164
56.6499824523926
48.8296127319336
39.7694320678711
37.5759124755859
40.2462844848633
49.2110939025879
52.9305381774902
43.1073951721191
37.7666549682617
44.251838684082
48.5435028076172
47.3990592956543
44.3472061157227
41.0092468261719
43.4888763427734
48.3527641296387
43.2027626037598
35.382396697998
33.2842483520508
35.9546165466309
44.8240585327148
48.734245300293
45.9685020446777
50.4509086608887
55.6962776184082
51.6907234191895
51.3092422485352
57.2222023010254
54.2657241821289
46.1592445373535
49.9740562438965
56.1731300354004
48.2573928833008
42.0583190917969
40.3416519165039
35.0009155273438
36.6222114562988
33.9518394470215
25.5592517852783
25.4638805389404
20.2185115814209
15.8314762115479
20.3138828277588
21.6490669250488
20.3138828277588
15.4499950408936
9.537034034729
5.62685012817383
4.7685170173645
11.5398111343384
20.9814739227295
26.3222141265869
26.9898052215576
28.1342506408691
32.6166572570801
32.2351760864258
32.4259147644043
37.3851737976074
34.9055442810059
29.5648059844971
28.8018417358398
23.9379558563232
23.1749935150146
26.1314735412598
20.0277709960938
12.9703664779663
8.86944198608398
5.91296100616455
8.0111083984375
14.4962921142578
17.6435127258301
21.9351787567139
27.657398223877
19.9324016571045
11.635181427002
12.6842555999756
4.67314672470093
-7.91573810577393
-7.0574049949646
-0.381481349468231
2.76573991775513
8.86944198608398
14.1148099899292
20.0277709960938
30.1370277404785
25.6546211242676
16.5944385528564
21.3629570007324
18.6925868988037
6.86666440963745
-0.9537034034729
-8.77407169342041
-9.34629344940186
-4.38703584671021
-5.81759071350098
-2.5749990940094
2.38425850868225
4.29166507720947
14.9731435775757
15.6407356262207
7.24814605712891
10.0138854980469
10.6814785003662
12.2074031829834
20.409252166748
16.9759197235107
11.0629596710205
14.9731435775757
19.6462898254395
24.3194370269775
18.3111057281494
0.0953703373670578
-9.537034034729
-15.0685138702393
-21.7444381713867
-20.1231422424316
-15.6407356262207
-12.3981437683105
-9.537034034729
-8.96481227874756
-6.38981294631958
-1.62129580974579
-4.00555419921875
-15.2592544555664
-18.6925868988037
-6.38981294631958
-0.286111027002335
-11.2537002563477
-12.8749961853027
-8.29721927642822
-20.9814739227295
-37.8620262145996
-64.9472045898438
-112.727745056152
-155.739761352539
-186.067535400391
-207.716598510742
-223.738815307617
-230.605484008789
-207.907333374023
-160.126800537109
-119.212921142578
-104.430519104004
-96.800895690918
-79.1573791503906
-49.2110939025879
17.8342533111572
83.7351608276367
135.807357788086
277.432312011719
526.062805175781
805.116394042969
1065.66821289063
1253.45239257813
1333.849609375
1364.74951171875
1356.35693359375
1216.35327148438
985.461730957031
769.161804199219
554.578552246094
318.441558837891
55.1240577697754
-224.787887573242
-439.085052490234
-528.637817382813
-552.575744628906
-577.276672363281
-600.547058105469
-614.375732421875
-637.073852539063
-680.848876953125
-724.623840332031
-744.747009277344
-737.212707519531
-694.77294921875
-626.487731933594
-559.633178710938
-510.231323242188
-481.620208740234
-472.750762939453
-488.582244873047
-516.811889648438
-526.730407714844
-509.945220947266
-471.224853515625
-420.964691162109
-370.990631103516
-323.686920166016
-290.402679443359
-274.571197509766
-265.320281982422
-266.178619384766
-270.184173583984
-263.317504882813
-249.298065185547
-226.218444824219
-187.211975097656
-143.436996459961
-109.96199798584
-90.3157119750977
-84.4027481079102
-88.6944122314453
-95.084228515625
-99.1851501464844
-96.7055282592773
-75.0564575195313
-44.9194297790527
-31.4722118377686
-19.4555492401123
2.8611102104187
13.8286991119385
15.8314762115479
21.6490669250488
26.7036952972412
32.3305435180664
38.9110984802246
43.7749862670898
52.0722045898438
63.5166473388672
75.4379425048828
87.8360824584961
94.5120086669922
92.318489074707
94.2258987426758
98.899040222168
101.37866973877
107.768486022949
107.86385345459
105.574966430664
115.779594421387
130.27587890625
139.240692138672
140.575881958008
146.584213256836
152.783279418945
146.679580688477
144.962921142578
144.199951171875
132.278656005859
122.83699798584
123.123107910156
134.66291809082
147.728652954102
150.971252441406
154.690689086914
154.976806640625
146.202728271484
135.521255493164
125.507369995117
125.984222412109
133.709213256836
137.142547607422
144.486068725586
156.884216308594
162.51106262207
161.843460083008
159.554580688477
151.161987304688
138.573104858398
129.989776611328
126.461067199707
126.747184753418
133.041625976563
148.014770507813
160.22216796875
162.797164916992
166.61198425293
164.132354736328
145.2490234375
127.319404602051
121.120330810547
127.891624450684
139.526809692383
146.393478393555
157.647171020508
162.892547607422
150.303649902344
141.624954223633
140.003662109375
134.186065673828
125.698104858398
125.030517578125
142.197174072266
161.461990356445
173.764755249023
181.775863647461
178.247161865234
172.620315551758
166.230499267578
152.974029541016
144.295318603516
148.300872802734
161.843460083008
175.004577636719
179.58235168457
173.574020385742
163.655502319336
157.170318603516
147.061065673828
126.937919616699
110.057373046875
103.381446838379
100.711082458496
103.572189331055
110.629592895508
109.866630554199
98.6129302978516
87.4546051025391
71.3370132446289
44.0610961914063
21.3629570007324
10.8722190856934
2.09814739227295
-8.58333015441895
-15.4499950408936
-15.8314762115479
-18.3111057281494
-25.0823993682861
-26.226842880249
-35.6685066223145
-62.0860900878906
-76.296272277832
-75.3425674438477
-79.06201171875
-76.8684921264648
-68.7620162963867
-68.5712738037109
-72.1953506469727
-84.4027481079102
-100.424964904785
-107.95922088623
-111.392555236816
-112.727745056152
-113.967559814453
-120.166625976563
-125.698104858398
-125.125885009766
-125.316627502441
-131.038848876953
-136.951812744141
-140.003662109375
-140.194396972656
-140.385147094727
-142.101806640625
-139.526809692383
-136.284210205078
-139.812911987305
-141.052734375
-140.099029541016
-148.110137939453
-152.306427001953
-148.586990356445
-148.300872802734
-150.017547607422
-148.586990356445
-140.099029541016
-128.654586791992
-131.515701293945
-144.867553710938
-146.202728271484
-138.668472290039
-133.709213256836
-136.951812744141
-144.295318603516
-141.624954223633
-136.093475341797
-138.000885009766
-136.474960327148
-127.128662109375
-115.016632080078
-104.716636657715
-98.4221878051758
-98.1360778808594
-104.144409179688
-109.199035644531
-113.013854980469
-117.114776611328
-114.635147094727
-104.335151672363
-97.9453353881836
-103.095336914063
-103.095336914063
-94.8934860229492
-94.8934860229492
-93.8444137573242
-91.1740417480469
-96.8962631225586
-92.5092315673828
-78.2990493774414
-73.1490478515625
-68.5712738037109
-58.4620170593262
-55.219425201416
-53.6935005187988
-44.9194297790527
-38.9110984802246
-35.0009155273438
-30.70924949646
-35.7638778686523
-39.2925796508789
-30.8999900817871
-22.6027698516846
-16.1175880432129
-13.7333288192749
-19.5509204864502
-24.5101776123047
-30.70924949646
-32.5212860107422
-25.8453617095947
-21.3629570007324
-18.9786968231201
-17.357400894165
-16.7851791381836
-17.2620315551758
-17.8342533111572
-16.7851791381836
-14.1148099899292
-14.3055505752563
-25.5592517852783
-26.8944358825684
-8.10647869110107
0.47685170173645
-0.47685170173645
2.95648050308228
6.48518323898315
12.1120328903198
15.35462474823
10.0138854980469
2.95648050308228
1.71666610240936
0.286111027002335
0
8.48795986175537
20.5999927520752
31.4722118377686
38.5296173095703
34.7148017883301
