Value(μV)
27.1805477142334
8.67870044708252
-4.1962947845459
4.67314672470093
9.82314491271973
-4.1962947845459
-5.43610954284668
1.04907369613647
-15.0685138702393
-29.0879535675049
-21.4583263397217
-21.3629570007324
-30.995361328125
-35.0962867736816
-43.5842437744141
-52.453685760498
-54.8379440307617
-58.3666496276855
-63.2305335998535
-67.903678894043
-66.5684967041016
-55.1240577697754
-49.5925750732422
-62.7536849975586
-72.4814605712891
-61.2277565002441
-51.8814659118652
-58.3666496276855
-60.4647941589355
-53.4073905944824
-53.5027618408203
-63.4212760925293
-71.1462707519531
-69.2388687133789
-69.7157211303711
-70.9555358886719
-64.5657196044922
-67.4268264770508
-70.0971984863281
-57.1268348693848
-56.1731300354004
-63.9934997558594
-57.8897972106934
-49.2110939025879
-46.8268356323242
-43.0120239257813
-39.7694320678711
-40.8185043334961
-40.913875579834
-48.5435028076172
-64.2796096801758
-64.756462097168
-55.9823913574219
-59.0342407226563
-65.6147918701172
-65.137939453125
-60.9416465759277
-54.3610954284668
-48.1620216369629
-38.9110984802246
-26.9898052215576
-27.0851764678955
-26.3222141265869
-21.2675857543945
-32.3305435180664
-36.0499877929688
-24.3194370269775
-26.226842880249
-32.5212860107422
-22.6981410980225
-14.7824029922485
-26.4175834655762
-42.3444290161133
-45.8731346130371
-37.9573936462402
-26.3222141265869
-22.4120292663574
-30.2323970794678
-38.0527648925781
-32.5212860107422
-23.9379558563232
-19.8370304107666
-9.44166374206543
-1.71666610240936
-8.10647869110107
-20.409252166748
-21.4583263397217
-13.8286991119385
-15.6407356262207
-18.787956237793
-12.8749961853027
-4.48240613937378
-3.91018390655518
-8.96481227874756
-3.62407302856445
6.86666440963745
15.2592544555664
25.2731399536133
27.0851764678955
22.3166599273682
17.0712909698486
8.58333015441895
5.05462789535522
12.8749961853027
22.125919342041
17.1666603088379
13.3518476486206
22.3166599273682
17.4527721405029
4.7685170173645
7.82036781311035
10.5861072540283
3.33796191215515
1.04907369613647
7.72499752044678
5.91296100616455
-5.81759071350098
-6.58055353164673
-3.71944332122803
-9.537034034729
-8.86944198608398
4.48240613937378
15.8314762115479
20.2185115814209
18.8833274841309
16.1175880432129
24.0333251953125
30.8999900817871
21.9351787567139
10.0138854980469
-2.38425850868225
-6.48518323898315
2.67036962509155
9.15555286407471
14.7824029922485
18.9786968231201
17.4527721405029
16.4990692138672
14.4009208679199
9.06018257141113
0.9537034034729
-3.33796191215515
2.67036962509155
10.2999963760376
21.7444381713867
32.5212860107422
33.5703582763672
25.9407329559326
13.1611070632935
0.572222054004669
-28.0388793945313
-88.7897872924805
-149.63606262207
-184.541610717773
-221.259185791016
-264.557312011719
-292.88232421875
-310.048980712891
-329.981384277344
-339.995269775391
-262.173065185547
-65.137939453125
159.649948120117
414.002655029297
727.198852539063
930.909912109375
954.180236816406
1026.94787597656
1190.88940429688
1202.81066894531
1084.26538085938
923.089538574219
660.821105957031
368.034149169922
74.0073852539063
-181.775863647461
-305.280456542969
-359.260070800781
-404.274871826172
-436.033203125
-448.526702880859
-436.510040283203
-414.384124755859
-390.446166992188
-378.620239257813
-386.154510498047
-398.075805664063
-409.043395996094
-409.710968017578
-394.165618896484
-374.900817871094
-353.442474365234
-317.583221435547
-269.611938476563
-236.899917602539
-230.70085144043
-227.076782226563
-215.441604614258
-204.664749145508
-186.639755249023
-165.944396972656
-154.499954223633
-139.145324707031
-122.741630554199
-113.20458984375
-106.528671264648
-99.3758926391602
-94.1305236816406
-91.7462692260742
-83.4490509033203
-67.9990539550781
-47.4944305419922
-36.0499877929688
-28.2296199798584
-3.33796191215515
14.5916624069214
15.0685138702393
15.0685138702393
12.588885307312
6.48518323898315
7.72499752044678
16.2129573822021
22.2212886810303
25.8453617095947
24.3194370269775
22.6027698516846
28.8018417358398
38.148136138916
48.066650390625
50.0694274902344
37.9573936462402
29.9462871551514
36.1453590393066
39.864803314209
40.6277656555176
52.453685760498
59.9879455566406
57.1268348693848
52.5490570068359
50.832389831543
54.3610954284668
51.404613494873
45.2055397033691
46.1592445373535
50.355541229248
57.0314636230469
60.8462753295898
67.5222015380859
73.6259002685547
64.0888671875
61.2277565002441
67.9990539550781
70.0018310546875
66.6638641357422
60.5601654052734
72.2907180786133
76.5823822021484
63.3259048461914
67.4268264770508
74.5796051025391
75.9147872924805
82.1138610839844
77.9175643920898
62.3722038269043
53.5027618408203
51.2138710021973
51.3092422485352
59.2249794006348
65.3286819458008
63.8027572631836
62.5629425048828
57.7944259643555
52.5490570068359
48.734245300293
40.6277656555176
39.7694320678711
50.832389831543
60.0833129882813
58.4620170593262
53.5027618408203
54.2657241821289
52.6444282531738
45.5870208740234
45.300910949707
51.404613494873
56.6499824523926
60.9416465759277
62.8490524291992
67.903678894043
77.2499771118164
83.1629333496094
86.5009002685547
83.3536758422852
72.5768280029297
73.3397903442383
77.345344543457
74.5796051025391
79.4434967041016
76.296272277832
72.5768280029297
77.5360870361328
71.2416458129883
67.8083114624023
64.3749771118164
50.9277610778809
49.8786888122559
43.5842437744141
26.3222141265869
25.6546211242676
30.8046188354492
28.6111011505127
31.0907306671143
43.2981338500977
50.2601699829102
42.1536903381348
36.0499877929688
41.1999855041504
41.2953567504883
33.8564720153809
25.7499923706055
19.360179901123
20.2185115814209
16.9759197235107
0
-7.24814605712891
2.00277709960938
-6.77129411697388
-22.5074005126953
-14.5916624069214
-9.44166374206543
-17.738883972168
-21.7444381713867
-24.7009181976318
-20.409252166748
-2.5749990940094
5.91296100616455
-6.29444265365601
-12.302773475647
-10.5861072540283
-19.9324016571045
-24.9870281219482
-23.0796222686768
-23.6518440246582
-29.278694152832
-41.6768379211426
-45.4916534423828
-41.2953567504883
-48.2573928833008
-58.4620170593262
-58.0805358886719
-54.2657241821289
-48.8296127319336
-42.8212814331055
-41.8675804138184
-51.6907234191895
-64.6610870361328
-66.2823867797852
-64.0888671875
-61.2277565002441
-52.9305381774902
-45.9685020446777
-51.1185035705566
-66.0916442871094
-62.9444236755371
-54.9333152770996
-71.5277557373047
-84.4981231689453
-82.6860809326172
-85.2610855102539
-89.2666397094727
-80.778678894043
-68.8573837280273
-75.4379425048828
-80.2064590454102
-70.5740509033203
-59.6064605712891
-55.7916488647461
-64.2796096801758
-68.9527587890625
-66.4731292724609
-67.5222015380859
-74.198127746582
-81.0647888183594
-75.5333099365234
-72.4814605712891
-73.1490478515625
-66.3777542114258
-62.8490524291992
-52.1675758361816
-38.4342460632324
-33.8564720153809
-24.4148063659668
-18.6925868988037
-27.2759170532227
-33.3796195983887
-24.6055469512939
-8.96481227874756
-2.38425850868225
-5.53147983551025
-10.3953666687012
-8.96481227874756
-5.91296100616455
-4.38703584671021
-1.14444410800934
-0.858333051204681
1.52592539787292
4.38703584671021
6.6759238243103
11.5398111343384
6.1037015914917
-2.95648050308228
-0.572222054004669
-4.1962947845459
-13.5425882339478
-9.06018257141113
-2.38425850868225
2.28888821601868
-0.190740674734116
-10.0138854980469
0
10.1092557907104
3.8148136138916
6.96203470230103
7.82036781311035
-5.43610954284668
-11.4444408416748
-7.6296272277832
-6.86666440963745
-15.9268465042114
-20.6953639984131
-18.787956237793
-21.2675857543945
-23.1749935150146
-27.943510055542
-29.4694347381592
-16.2129573822021
-2.1935179233551
1.52592539787292
-3.5287024974823
-10.8722190856934
-14.5916624069214
-10.5861072540283
-6.58055353164673
-12.7796258926392
-18.5972156524658
-22.9842510223389
-20.5046234130859
-10.1092557907104
-5.1499981880188
1.62129580974579
8.48795986175537
9.44166374206543
16.1175880432129
20.3138828277588
21.4583263397217
34.810173034668
41.7722091674805
36.6222114562988
36.2407302856445
28.8972129821777
7.82036781311035
-17.1666603088379
-53.9796104431152
-112.060150146484
-159.936065673828
-182.920318603516
-206.953643798828
-236.899917602539
-266.655456542969
-297.936950683594
-322.733215332031
-301.942504882813
-183.397171020508
18.2157344818115
239.188812255859
502.315582275391
788.712707519531
928.620971679688
959.616333007813
1098.57092285156
1223.12463378906
1166.56994628906
1048.69226074219
853.469177246094
560.872985839844
285.157318115234
21.2675857543945
-179.48698425293
-264.557312011719
-315.198974609375
-358.497100830078
-378.620239257813
-380.527648925781
-374.233215332031
-362.979522705078
-343.905456542969
-336.561920166016
-350.581359863281
-368.415618896484
-383.960998535156
-383.388763427734
-363.647094726563
-342.665618896484
-310.144348144531
-269.516571044922
-249.393432617188
-243.003631591797
-236.709182739258
-237.472152709961
-235.946228027344
-219.92399597168
-198.561050415039
-174.050872802734
-147.061065673828
-127.128662109375
-110.534225463867
-98.1360778808594
-100.711082458496
-103.76293182373
-101.37866973877
-97.0870056152344
-84.2120132446289
-69.6203460693359
-56.0777587890625
-42.1536903381348
-27.7527694702148
-11.8259220123291
-1.04907369613647
2.95648050308228
0.190740674734116
-4.10092449188232
-5.7222204208374
-5.62685012817383
-1.04907369613647
2.47962880134583
-4.00555419921875
-7.24814605712891
0
4.00555419921875
6.19907188415527
7.72499752044678
3.91018390655518
-0.762962698936462
-3.05185079574585
4.38703584671021
19.5509204864502
32.6166572570801
44.1564674377441
53.8842430114746
54.8379440307617
53.3120193481445
53.3120193481445
48.9249839782715
42.0583190917969
45.6823921203613
56.4592399597168
59.8925743103027
63.3259048461914
71.1462707519531
70.1925735473633
72.4814605712891
87.0731201171875
79.3481216430664
66.2823867797852
79.06201171875
81.4462738037109
73.8166427612305
80.111083984375
92.2231216430664
96.800895690918
93.8444137573242
82.9721984863281
63.039794921875
58.3666496276855
62.0860900878906
54.5518341064453
54.6472053527832
57.2222023010254
48.1620216369629
41.6768379211426
43.2027626037598
51.404613494873
52.7397994995117
40.7231369018555
44.1564674377441
50.1647987365723
39.3879508972168
40.2462844848633
47.1129493713379
50.5462799072266
64.756462097168
72.9583129882813
69.1434936523438
63.1351661682129
51.2138710021973
46.6360969543457
46.2546157836914
39.1018409729004
49.5925750732422
66.6638641357422
71.0509033203125
70.1925735473633
64.9472045898438
67.7129440307617
72.2907180786133
67.3314590454102
59.5110931396484
46.0638732910156
42.5351715087891
51.0231323242188
52.7397994995117
56.1731300354004
64.3749771118164
64.0888671875
55.1240577697754
56.1731300354004
65.2333145141602
53.5027618408203
38.6249885559082
47.5897979736328
56.7453536987305
51.5953521728516
53.5027618408203
60.8462753295898
52.7397994995117
40.0555419921875
37.6712837219238
40.6277656555176
45.4916534423828
54.6472053527832
63.8027572631836
66.1870193481445
55.5055389404297
33.761100769043
13.4472179412842
4.1962947845459
6.77129411697388
9.72777462005615
4.86388731002808
-7.43888664245605
-19.7416610717773
-19.6462898254395
-18.0249938964844
-17.9296245574951
-19.2648086547852
-28.5157318115234
-33.0935096740723
-34.6194343566895
-30.4231376647949
-24.1286964416504
-25.4638805389404
-27.943510055542
-36.5268402099609
-41.6768379211426
-42.4398002624512
-45.1101722717285
-39.4833221435547
-32.1398048400879
-37.3851737976074
-50.0694274902344
-57.9851684570313
-63.4212760925293
-62.7536849975586
-57.9851684570313
-59.2249794006348
-58.9388694763184
-62.1814613342285
-67.0453491210938
-61.7999801635742
-66.3777542114258
-79.8249740600586
-81.7323837280273
-78.6805267333984
-73.4351654052734
-65.137939453125
-60.7509078979492
-60.1786842346191
-57.7944259643555
-54.9333152770996
-66.3777542114258
-80.111083984375
-75.247200012207
-65.9962768554688
-64.6610870361328
-61.0370178222656
-53.121280670166
-51.2138710021973
-50.355541229248
-49.783317565918
-51.0231323242188
-51.0231323242188
-56.8407211303711
-59.3203506469727
-55.887020111084
-62.5629425048828
-69.0481262207031
-63.3259048461914
-53.9796104431152
-40.4370231628418
-31.3768424987793
-40.4370231628418
-44.8240585327148
-35.4777679443359
-31.1861019134521
-31.3768424987793
-25.4638805389404
-14.3055505752563
-8.67870044708252
-11.7305517196655
-13.5425882339478
-8.0111083984375
0.47685170173645
7.34351634979248
15.6407356262207
23.4611034393311
23.5564746856689
20.1231422424316
14.7824029922485
14.7824029922485
21.9351787567139
15.6407356262207
6.58055353164673
7.53425693511963
0.190740674734116
-8.48795986175537
-5.43610954284668
-6.86666440963745
-10.3953666687012
-0.762962698936462
6.1037015914917
-0.381481349468231
-6.6759238243103
-17.738883972168
-28.8972129821777
-19.4555492401123
-7.6296272277832
-12.2074031829834
-18.2157344818115
-22.125919342041
-23.2703628540039
-18.4064750671387
-14.4009208679199
-17.4527721405029
-28.3249912261963
-26.0361022949219
-12.2074031829834
-13.9240694046021
-21.1722145080566
-20.2185115814209
-22.2212886810303
-27.4666576385498
-26.7990646362305
-20.7907333374023
-19.1694374084473
-29.7555465698242
-34.3333206176758
-22.0305480957031
-20.9814739227295
-30.6138782501221
-26.0361022949219
-18.5018463134766
-12.588885307312
0.762962698936462
4.48240613937378
-5.34073925018311
0.667592406272888
16.1175880432129
11.635181427002
4.7685170173645
14.3055505752563
26.1314735412598
31.8536930084229
37.7666549682617
40.5323944091797
30.70924949646
23.7472152709961
24.6055469512939
26.1314735412598
31.1861019134521
17.4527721405029
-14.4009208679199
-47.1129493713379
-96.2286758422852
-139.049957275391
-165.753646850586
-196.176788330078
-213.72492980957
-228.411956787109
-254.924911499023
-265.320281982422
-223.738815307617
-98.899040222168
89.1712646484375
287.636932373047
511.375762939453
745.41455078125
871.303405761719
927.381164550781
1051.4580078125
1118.59875488281
1023.70520019531
869.39599609375
646.897033691406
360.404510498047
104.907371520996
-82.3046035766602
-183.397171020508
-234.801773071289
-273.236022949219
-298.795288085938
-316.629516601563
-299.653594970703
-264.652679443359
-253.589736938477
-258.262878417969
-267.704528808594
-286.206390380859
-325.785095214844
-373.851745605469
-391.781341552734
-371.848968505859
-323.877685546875
-269.421203613281
-227.839736938477
-196.081420898438
-177.674942016602
-174.241607666016
-179.3916015625
-187.498092651367
-193.506423950195
-184.636978149414
-155.83512878418
-120.929588317871
-85.8333053588867
-57.8897972106934
-46.7314682006836
-38.4342460632324
-36.3360977172852
-52.453685760498
-66.6638641357422
-74.7703475952148
-66.9499816894531
-36.5268402099609
-11.5398111343384
1.9074068069458
4.67314672470093
1.14444410800934
-3.91018390655518
-11.3490705490112
-11.8259220123291
-10.4907369613647
-1.14444410800934
11.1583299636841
6.96203470230103
12.9703664779663
28.4203605651855
29.1833248138428
32.4259147644043
30.6138782501221
13.256477355957
6.1037015914917
14.5916624069214
22.7935104370117
28.8972129821777
37.5759124755859
41.5814666748047
38.0527648925781
45.5870208740234
59.9879455566406
58.8434982299805
50.7370223999023
44.251838684082
41.2953567504883
49.1157264709473
54.4564628601074
41.8675804138184
25.3685111999512
21.2675857543945
28.1342506408691
37.1944313049316
39.197208404541
32.6166572570801
24.4148063659668
26.7036952972412
28.4203605651855
9.44166374206543
-3.91018390655518
3.147221326828
5.05462789535522
3.5287024974823
2.8611102104187
0
3.147221326828
10.204626083374
15.4499950408936
17.738883972168
23.7472152709961
37.4805450439453
48.066650390625
47.2083168029785
37.4805450439453
31.6629524230957
24.0333251953125
12.4935140609741
11.2537002563477
9.82314491271973
2.47962880134583
12.0166625976563
30.0416564941406
32.1398048400879
37.4805450439453
46.9222068786621
42.3444290161133
28.9925842285156
17.738883972168
23.2703628540039
42.630542755127
54.6472053527832
53.7888717651367
59.0342407226563
71.9092330932617
74.198127746582
71.9092330932617
72.2907180786133
63.6120147705078
55.887020111084
60.274055480957
55.5055389404297
40.5323944091797
29.9462871551514
34.0472106933594
49.5925750732422
51.5953521728516
39.3879508972168
24.7009181976318
13.1611070632935
5.1499981880188
5.24536848068237
9.63240432739258
6.6759238243103
8.29721927642822
10.6814785003662
-0.0953703373670578
-8.77407169342041
-7.72499752044678
-8.0111083984375
-13.4472179412842
-15.5453653335571
-10.9675893783569
-6.6759238243103
1.52592539787292
21.3629570007324
30.2323970794678
19.360179901123
12.2074031829834
11.8259220123291
7.72499752044678
0.190740674734116
-7.53425693511963
-8.58333015441895
-1.71666610240936
10.5861072540283
21.7444381713867
27.5620288848877
27.1805477142334
10.3953666687012
-6.86666440963745
-1.43055510520935
6.1037015914917
7.43888664245605
13.8286991119385
14.5916624069214
8.20184898376465
2.67036962509155
-4.57777643203735
-12.9703664779663
-14.4009208679199
-14.0194396972656
-24.7962875366211
-31.9490642547607
-25.5592517852783
-18.2157344818115
-16.5944385528564
-19.2648086547852
-14.7824029922485
-15.9268465042114
-21.7444381713867
-2.8611102104187
10.204626083374
-3.5287024974823
-8.3925895690918
-6.1037015914917
-20.8861045837402
-33.761100769043
-25.4638805389404
-10.3953666687012
1.81203651428223
2.67036962509155
-10.9675893783569
-12.8749961853027
-5.7222204208374
-15.0685138702393
-18.6925868988037
-7.15277528762817
-1.23981440067291
-3.71944332122803
-15.0685138702393
-34.7148017883301
-48.9249839782715
-46.0638732910156
-38.9110984802246
-39.3879508972168
-32.4259147644043
-26.4175834655762
-32.2351760864258
-40.5323944091797
-44.5379486083984
-36.3360977172852
-27.8481388092041
-28.0388793945313
-31.1861019134521
-33.761100769043
-32.9981384277344
-31.4722118377686
-28.9925842285156
-25.2731399536133
-30.995361328125
-38.7203598022461
-30.3277683258057
-23.0796222686768
-29.1833248138428
-32.4259147644043
-39.0064697265625
-41.6768379211426
-26.1314735412598
-17.2620315551758
-24.2240657806396
-27.943510055542
-19.074068069458
-15.0685138702393
-16.4036979675293
-10.9675893783569
-11.9212923049927
-15.6407356262207
-11.3490705490112
-10.6814785003662
-10.7768487930298
0
6.19907188415527
4.00555419921875
1.52592539787292
-8.3925895690918
-13.256477355957
-6.6759238243103
-1.62129580974579
0.572222054004669
1.81203651428223
-0.286111027002335
-5.81759071350098
-7.43888664245605
-4.86388731002808
-3.05185079574585
-3.62407302856445
-17.357400894165
-27.2759170532227
-20.409252166748
-22.7935104370117
-24.1286964416504
-12.6842555999756
-10.2999963760376
-13.8286991119385
-9.537034034729
-5.43610954284668
-9.9185152053833
-15.7361059188843
-17.0712909698486
-8.20184898376465
5.62685012817383
11.2537002563477
8.48795986175537
-1.14444410800934
2.67036962509155
16.6898097991943
5.05462789535522
-7.43888664245605
0.9537034034729
8.86944198608398
12.4935140609741
11.2537002563477
10.7768487930298
16.1175880432129
19.360179901123
18.6925868988037
13.0657367706299
10.9675893783569
16.4990692138672
20.0277709960938
23.7472152709961
27.1805477142334
18.5972156524658
-5.24536848068237
-53.5981292724609
-110.438850402832
-146.965698242188
-180.059204101563
-207.621231079102
-223.357330322266
-248.535110473633
-268.467498779297
-258.644348144531
-203.234191894531
-68.4759063720703
123.123107910156
325.880462646484
568.884094238281
785.279357910156
852.801574707031
909.546936035156
1042.11169433594
1060.13671875
949.793212890625
792.146057128906
538.842407226563
244.529556274414
-0.190740674734116
-170.426803588867
-261.791595458984
-309.762878417969
-337.610992431641
-354.396179199219
-360.499877929688
-338.278594970703
-303.277679443359
-280.198059082031
-265.320281982422
-263.412872314453
-283.059173583984
-314.245269775391
-337.420257568359
-343.905456542969
-324.831390380859
-270.947143554688
-213.62956237793
-179.296234130859
-158.219390869141
-145.821243286133
-143.723098754883
-158.410140991211
-179.296234130859
-192.838821411133
-193.983276367188
-170.426803588867
-132.660140991211
-96.13330078125
-64.756462097168
-49.4972076416016
-52.0722045898438
-58.3666496276855
-66.5684967041016
-79.5388641357422
-79.8249740600586
-57.0314636230469
-28.1342506408691
-10.204626083374
-1.62129580974579
6.86666440963745
12.7796258926392
7.0574049949646
-0.190740674734116
-7.34351634979248
-20.8861045837402
-22.6981410980225
-7.15277528762817
13.4472179412842
34.3333206176758
43.679615020752
34.7148017883301
26.0361022949219
23.4611034393311
19.7416610717773
18.5972156524658
16.4036979675293
19.9324016571045
32.7120246887207
32.9981384277344
25.3685111999512
23.3657341003418
14.687032699585
2.47962880134583
-6.6759238243103
-12.4935140609741
-2.95648050308228
16.2129573822021
24.9870281219482
29.278694152832
30.70924949646
21.5536975860596
19.2648086547852
28.0388793945313
32.04443359375
38.8157272338867
39.197208404541
19.074068069458
10.8722190856934
21.839807510376
22.0305480957031
22.6981410980225
36.8129501342773
47.5897979736328
51.9768333435059
55.0286865234375
58.9388694763184
58.4620170593262
48.3527641296387
38.148136138916
29.8509159088135
20.0277709960938
24.891658782959
42.7259140014648
44.8240585327148
37.6712837219238
39.1018409729004
35.382396697998
30.4231376647949
27.5620288848877
19.4555492401123
16.2129573822021
16.7851791381836
22.6981410980225
36.5268402099609
42.4398002624512
47.8759117126465
56.3638725280762
48.2573928833008
38.2435073852539
35.8592491149902
32.9981384277344
42.0583190917969
51.1185035705566
52.6444282531738
64.756462097168
66.7592391967773
53.4073905944824
49.783317565918
43.9657249450684
24.9870281219482
13.5425882339478
13.3518476486206
12.302773475647
19.1694374084473
37.2898025512695
50.2601699829102
53.4073905944824
38.148136138916
18.1203651428223
12.8749961853027
3.147221326828
-4.1962947845459
5.7222204208374
12.1120328903198
6.29444265365601
7.24814605712891
16.5944385528564
10.4907369613647
0.762962698936462
2.95648050308228
2.8611102104187
3.33796191215515
5.05462789535522
2.09814739227295
-2.1935179233551
-14.4009208679199
-23.2703628540039
-15.0685138702393
-4.57777643203735
-7.53425693511963
-20.5046234130859
-22.0305480957031
-8.3925895690918
-3.24259161949158
-5.7222204208374
-5.53147983551025
-6.19907188415527
-2.00277709960938
2.67036962509155
-3.05185079574585
-11.1583299636841
-14.1148099899292
-9.06018257141113
3.62407302856445
13.3518476486206
17.738883972168
20.7907333374023
22.0305480957031
21.4583263397217
14.9731435775757
8.3925895690918
5.62685012817383
-4.95925760269165
-15.0685138702393
-18.4064750671387
-22.7935104370117
-23.8425846099854
-12.1120328903198
7.34351634979248
12.6842555999756
9.72777462005615
16.4990692138672
20.3138828277588
19.8370304107666
19.9324016571045
16.30832862854
19.6462898254395
19.7416610717773
9.9185152053833
-1.81203651428223
-11.9212923049927
-8.67870044708252
-3.147221326828
-6.86666440963745
-4.38703584671021
0.858333051204681
-9.82314491271973
-22.8888816833496
-17.4527721405029
-13.6379585266113
-21.5536975860596
-30.70924949646
-40.4370231628418
-42.7259140014648
-32.8073959350586
-22.2212886810303
-24.7962875366211
-34.5240631103516
-32.2351760864258
-24.0333251953125
-30.2323970794678
-44.4425773620605
-44.8240585327148
-33.0935096740723
-17.6435127258301
-9.15555286407471
-19.360179901123
-35.0962867736816
-31.6629524230957
-20.3138828277588
-23.7472152709961
-30.5185089111328
-37.5759124755859
-38.6249885559082
-29.8509159088135
-27.2759170532227
-22.125919342041
-15.2592544555664
-22.5074005126953
-27.1805477142334
-19.9324016571045
-18.1203651428223
-23.0796222686768
-25.0823993682861
-22.3166599273682
-13.5425882339478
-3.71944332122803
-9.537034034729
-16.2129573822021
-11.3490705490112
-13.256477355957
-15.1638841629028
-13.256477355957
-9.63240432739258
4.1962947845459
9.537034034729
-3.24259161949158
-14.5916624069214
-14.687032699585
2.8611102104187
26.1314735412598
27.943510055542
17.9296245574951
22.125919342041
29.8509159088135
19.6462898254395
7.15277528762817
-3.147221326828
-22.9842510223389
-33.3796195983887
-25.3685111999512
-14.4962921142578
-6.1037015914917
0.9537034034729
2.76573991775513
-2.28888821601868
-5.91296100616455
-2.38425850868225
-1.04907369613647
0.286111027002335
12.8749961853027
20.6953639984131
13.6379585266113
8.86944198608398
3.05185079574585
-14.8777732849121
-23.4611034393311
-22.9842510223389
-28.1342506408691
-27.7527694702148
-23.8425846099854
-23.3657341003418
-22.4120292663574
-17.4527721405029
-8.96481227874756
-6.48518323898315
-9.15555286407471
-3.8148136138916
3.5287024974823
0.286111027002335
-3.62407302856445
6.6759238243103
21.1722145080566
20.0277709960938
15.1638841629028
19.8370304107666
23.2703628540039
23.9379558563232
31.6629524230957
37.6712837219238
24.9870281219482
14.9731435775757
15.6407356262207
4.7685170173645
-17.8342533111572
-61.4184989929199
-114.444404602051
-141.052734375
-158.505508422852
-192.934204101563
-229.270294189453
-255.401763916016
-276.478607177734
-269.802703857422
-180.249938964844
-10.9675893783569
185.113830566406
428.785034179688
714.991455078125
888.470092773438
901.345092773438
970.583923339844
1132.33203125
1149.9755859375
1041.92102050781
879.600646972656
615.901672363281
339.327667236328
54.9333152770996
-199.419387817383
-309.762878417969
-357.066558837891
-401.318389892578
-429.643371582031
-448.812805175781
-439.466522216797
-418.103576660156
-394.737823486328
-363.837860107422
-356.589691162109
-367.4619140625
-370.323028564453
-371.181365966797
-363.551727294922
-344.191558837891
-323.114715576172
-296.792510986328
-269.611938476563
-252.1591796875
-241.47770690918
-228.793441772461
-213.438827514648
-201.517532348633
-197.321228027344
-188.547164916992
-163.750869750977
-138.382369995117
-124.649032592773
-111.201812744141
-106.528671264648
-109.580520629883
-96.6101531982422
-93.2721939086914
-105.670333862305
-105.193481445313
-101.569412231445
-91.6508941650391
-70.0018310546875
-51.6907234191895
-37.4805450439453
-36.8129501342773
-37.2898025512695
-22.0305480957031
-18.4064750671387
-25.4638805389404
-25.0823993682861
-18.5972156524658
-0.0953703373670578
20.3138828277588
23.3657341003418
19.5509204864502
22.125919342041
24.9870281219482
24.4148063659668
19.4555492401123
6.86666440963745
0
5.34073925018311
11.3490705490112
18.5972156524658
25.3685111999512
31.2814712524414
43.3935050964355
50.1647987365723
49.9740562438965
50.1647987365723
45.6823921203613
45.6823921203613
53.8842430114746
55.219425201416
52.9305381774902
56.5546112060547
59.5110931396484
54.6472053527832
45.3962821960449
31.4722118377686
18.8833274841309
18.6925868988037
25.7499923706055
27.0851764678955
22.5074005126953
25.0823993682861
34.2379531860352
42.5351715087891
50.5462799072266
51.4999847412109
49.5925750732422
59.4157218933105
71.2416458129883
67.5222015380859
53.9796104431152
58.8434982299805
72.5768280029297
73.1490478515625
80.8740463256836
89.2666397094727
84.6888580322266
84.9749755859375
79.6342315673828
71.6231231689453
73.3397903442383
68.1897964477539
70.8601608276367
82.2092361450195
79.3481216430664
70.5740509033203
60.274055480957
56.7453536987305
71.3370132446289
86.2147903442383
88.7897872924805
89.0758972167969
89.9342269897461
90.4110794067383
93.367561340332
91.1740417480469
81.2555313110352
76.4870147705078
82.1138610839844
82.3046035766602
73.2444229125977
71.2416458129883
71.4323883056641
70.5740509033203
73.4351654052734
70.4786834716797
68.0944213867188
68.9527587890625
67.2360916137695
65.5194244384766
57.6036834716797
51.3092422485352
52.2629470825195
48.3527641296387
39.5786895751953
29.0879535675049
16.6898097991943
2.67036962509155
-7.6296272277832
-7.6296272277832
1.43055510520935
10.7768487930298
9.9185152053833
0.47685170173645
-12.302773475647
-18.3111057281494
-10.204626083374
-6.38981294631958
-16.7851791381836
-26.6083240509033
-31.2814712524414
-40.0555419921875
-44.4425773620605
-39.6740608215332
-35.1916542053223
-26.7036952972412
-16.30832862854
-13.9240694046021
-15.2592544555664
-17.9296245574951
-25.7499923706055
-23.1749935150146
-13.256477355957
-15.8314762115479
-20.9814739227295
-22.7935104370117
-22.6027698516846
-22.8888816833496
-28.9925842285156
-31.9490642547607
-36.431468963623
-43.4888763427734
-40.2462844848633
-34.7148017883301
-37.3851737976074
-44.1564674377441
-49.3064651489258
-46.3499870300293
-43.1073951721191
-50.0694274902344
-50.6416511535645
-42.8212814331055
-38.2435073852539
-27.2759170532227
-19.074068069458
-26.8944358825684
-28.6111011505127
-19.2648086547852
-21.0768451690674
-30.4231376647949
-33.2842483520508
-28.9925842285156
-17.357400894165
-14.2101802825928
-28.9925842285156
-41.2953567504883
-40.7231369018555
-36.5268402099609
-35.1916542053223
-33.4749908447266
-25.0823993682861
-22.8888816833496
-27.657398223877
-20.5999927520752
-15.35462474823
-19.074068069458
-12.9703664779663
3.24259161949158
6.1037015914917
-13.9240694046021
-29.7555465698242
-33.1888771057129
-41.1046180725098
-40.2462844848633
-32.9981384277344
-45.4916534423828
-51.1185035705566
-37.8620262145996
-42.5351715087891
-48.9249839782715
-37.1944313049316
-28.3249912261963
-22.0305480957031
-13.4472179412842
-4.00555419921875
5.24536848068237
9.72777462005615
18.1203651428223
23.2703628540039
21.5536975860596
24.9870281219482
25.3685111999512
23.7472152709961
25.0823993682861
23.0796222686768
21.4583263397217
26.1314735412598
22.6027698516846
7.34351634979248
5.91296100616455
12.2074031829834
1.81203651428223
-11.9212923049927
-20.3138828277588
-31.4722118377686
-35.0962867736816
-32.2351760864258
-31.7583236694336
-26.5129547119141
-24.4148063659668
-28.4203605651855
-26.226842880249
-23.3657341003418
-14.8777732849121
-2.95648050308228
1.23981440067291
3.05185079574585
9.06018257141113
19.7416610717773
20.1231422424316
13.256477355957
19.1694374084473
26.9898052215576
20.5046234130859
12.302773475647
16.1175880432129
11.8259220123291
-9.44166374206543
-16.5944385528564
-3.24259161949158
2.5749990940094
-0.762962698936462
4.10092449188232
-2.5749990940094
-20.8861045837402
-13.9240694046021
-6.38981294631958
-21.4583263397217
-19.074068069458
6.86666440963745
18.2157344818115
17.1666603088379
24.0333251953125
22.7935104370117
8.3925895690918
-2.95648050308228
-6.6759238243103
-8.67870044708252
-11.8259220123291
-12.0166625976563
-10.2999963760376
-7.0574049949646
-5.43610954284668
-10.5861072540283
-8.29721927642822
-3.05185079574585
-12.9703664779663
-15.5453653335571
-4.67314672470093
-13.5425882339478
-29.8509159088135
-33.8564720153809
-38.8157272338867
-39.864803314209
-38.6249885559082
-37.3851737976074
-22.5074005126953
-11.2537002563477
-13.3518476486206
-10.0138854980469
-2.5749990940094
-3.91018390655518
-13.0657367706299
-18.787956237793
-16.8805503845215
-15.4499950408936
-11.635181427002
0.286111027002335
-1.14444410800934
-22.8888816833496
-36.7175827026367
-37.3851737976074
-47.3990592956543
-84.0212707519531
-130.752731323242
-163.083282470703
-188.261047363281
-214.297149658203
-249.584182739258
-288.972137451172
-310.144348144531
-317.106384277344
-271.900848388672
-118.73607635498
96.800895690918
333.700805664063
616.569274902344
857.379333496094
919.370056152344
937.299682617188
1102.29040527344
1211.48937988281
1134.71630859375
1000.72094726563
761.055297851563
468.07763671875
218.111968994141
-41.0092468261719
-218.779556274414
-285.157318115234
-331.507293701172
-368.606353759766
-389.683197021484
-393.021179199219
-387.489685058594
-371.467468261719
-348.483215332031
-350.772094726563
-360.118408203125
-361.835083007813
-371.181365966797
-370.323028564453
-354.205444335938
-331.698028564453
-297.460083007813
-263.603607177734
-239.761032104492
-227.649002075195
-226.313812255859
-223.357330322266
-216.681411743164
-203.711044311523
-181.299011230469
-169.949951171875
-166.039764404297
-143.627731323242
-117.782371520996
-99.7573776245117
-82.1138610839844
-73.4351654052734
-68.5712738037109
-69.9064559936523
-78.8712692260742
-76.9638671875
-69.5249786376953
-61.323127746582
-49.0203552246094
-38.6249885559082
-38.9110984802246
-45.9685020446777
-35.6685066223145
-16.8805503845215
-3.8148136138916
10.6814785003662
13.8286991119385
12.8749961853027
27.943510055542
44.4425773620605
48.066650390625
36.9083213806152
32.9027671813965
48.9249839782715
49.5925750732422
34.3333206176758
31.9490642547607
29.1833248138428
24.1286964416504
30.4231376647949
40.3416519165039
43.2027626037598
43.2027626037598
44.6333198547363
46.7314682006836
54.2657241821289
50.832389831543
40.3416519165039
50.4509086608887
50.1647987365723
39.7694320678711
54.3610954284668
67.9990539550781
63.8981285095215
59.701831817627
57.6990547180176
53.7888717651367
57.7944259643555
63.1351661682129
55.219425201416
48.6388740539551
51.4999847412109
60.6555366516113
64.756462097168
51.3092422485352
41.1046180725098
39.7694320678711
37.099063873291
46.9222068786621
61.7046089172363
61.5138702392578
57.0314636230469
60.7509078979492
55.0286865234375
38.9110984802246
36.7175827026367
30.3277683258057
12.3981437683105
10.6814785003662
19.9324016571045
27.7527694702148
33.8564720153809
41.7722091674805
55.7916488647461
63.9934997558594
60.274055480957
55.5055389404297
52.6444282531738
44.8240585327148
48.066650390625
68.5712738037109
78.7759017944336
78.012939453125
83.5444183349609
85.5471954345703
77.8221969604492
79.4434967041016
88.8851547241211
82.5907135009766
72.2907180786133
66.0916442871094
58.5573883056641
63.1351661682129
69.2388687133789
69.0481262207031
70.5740509033203
65.9009017944336
57.2222023010254
51.9768333435059
48.1620216369629
50.355541229248
52.6444282531738
42.0583190917969
34.5240631103516
32.9981384277344
18.3111057281494
11.4444408416748
16.4036979675293
10.5861072540283
10.0138854980469
13.4472179412842
5.1499981880188
-6.00833129882813
-8.3925895690918
0.0953703373670578
0.381481349468231
-1.81203651428223
10.0138854980469
10.8722190856934
4.00555419921875
6.1037015914917
-2.5749990940094
-16.4990692138672
-18.787956237793
-20.7907333374023
-21.9351787567139
-15.7361059188843
-20.7907333374023
-29.4694347381592
-24.1286964416504
-15.35462474823
-16.4990692138672
-24.3194370269775
-27.2759170532227
-28.8018417358398
-25.6546211242676
-17.4527721405029
-24.5101776123047
-37.099063873291
-39.864803314209
-43.9657249450684
-40.5323944091797
-29.278694152832
-26.6083240509033
-19.4555492401123
-10.1092557907104
-13.5425882339478
-22.6981410980225
-26.226842880249
-23.9379558563232
-20.0277709960938
-11.4444408416748
-13.256477355957
-21.0768451690674
-20.7907333374023
-30.0416564941406
-40.913875579834
-37.0036926269531
-35.4777679443359
-44.5379486083984
-54.170352935791
-56.1731300354004
-51.3092422485352
-49.1157264709473
-48.4481315612793
-47.5897979736328
-53.0259094238281
-61.8953514099121
-65.5194244384766
-60.7509078979492
-57.0314636230469
-55.219425201416
-51.8814659118652
-51.3092422485352
-49.1157264709473
-48.2573928833008
-45.1101722717285
-34.0472106933594
-27.0851764678955
-25.0823993682861
-27.2759170532227
-34.4286918640137
-38.7203598022461
-42.3444290161133
-51.2138710021973
-50.6416511535645
-39.4833221435547
-34.0472106933594
-32.8073959350586
-30.3277683258057
-21.4583263397217
-16.6898097991943
-20.3138828277588
-19.360179901123
-16.2129573822021
-15.35462474823
-16.5944385528564
-13.3518476486206
-5.34073925018311
-6.29444265365601
-8.20184898376465
-9.63240432739258
-19.6462898254395
-19.1694374084473
-11.0629596710205
-11.0629596710205
-4.57777643203735
5.34073925018311
1.04907369613647
-5.91296100616455
0.858333051204681
5.43610954284668
-2.38425850868225
0.762962698936462
9.44166374206543
2.28888821601868
-5.91296100616455
-2.95648050308228
2.8611102104187
1.33518481254578
-6.86666440963745
-5.53147983551025
0
-10.1092557907104
-24.4148063659668
-26.4175834655762
-22.4120292663574
-14.3055505752563
-2.38425850868225
-0.762962698936462
-1.23981440067291
6.6759238243103
13.7333288192749
18.5972156524658
17.738883972168
13.4472179412842
9.82314491271973
6.29444265365601
18.3111057281494
34.5240631103516
37.2898025512695
31.1861019134521
24.5101776123047
28.2296199798584
30.995361328125
24.3194370269775
15.5453653335571
2.47962880134583
-2.47962880134583
3.71944332122803
2.8611102104187
-5.43610954284668
-5.43610954284668
4.57777643203735
18.2157344818115
32.9027671813965
37.5759124755859
21.0768451690674
8.77407169342041
9.82314491271973
3.5287024974823
3.91018390655518
14.2101802825928
9.9185152053833
5.53147983551025
9.06018257141113
-8.29721927642822
-24.5101776123047
-13.6379585266113
-12.9703664779663
-21.7444381713867
-14.1148099899292
-5.34073925018311
-4.00555419921875
-9.537034034729
-14.1148099899292
-8.3925895690918
0.762962698936462
5.62685012817383
3.43333220481873
11.4444408416748
25.177770614624
20.1231422424316
8.0111083984375
4.57777643203735
10.7768487930298
27.0851764678955
33.6657295227051
23.3657341003418
22.4120292663574
29.8509159088135
27.0851764678955
22.2212886810303
15.9268465042114
10.9675893783569
9.72777462005615
4.57777643203735
4.95925760269165
6.1037015914917
-4.86388731002808
-9.72777462005615
-7.53425693511963
-12.9703664779663
-20.5046234130859
-26.8944358825684
-19.7416610717773
-5.91296100616455
-15.4499950408936
-53.3120193481445
-104.430519104004
-145.344390869141
-171.857345581055
-199.800857543945
-226.981414794922
-252.731399536133
-279.435089111328
-308.904541015625
-313.577667236328
-219.542526245117
-40.0555419921875
156.311981201172
406.659118652344
707.552551269531
898.770080566406
923.661743164063
1000.05340576172
1173.53198242188
1198.51904296875
1086.64965820313
903.443237304688
619.430358886719
361.930450439453
118.354591369629
-111.678665161133
-221.068450927734
-288.018432617188
-352.48876953125
-378.906372070313
-385.105438232422
-381.862854003906
-377.094329833984
-367.652648925781
-356.875823974609
-367.557281494141
-390.636901855469
-409.329498291016
-420.392456054688
-414.098022460938
-396.835998535156
-374.423950195313
-338.946197509766
-297.555450439453
-268.181396484375
-258.644348144531
-258.45361328125
-259.693420410156
-249.87028503418
-230.605484008789
-223.834182739258
-209.910110473633
-177.102722167969
-155.930511474609
-152.783279418945
-151.448104858398
-147.728652954102
-145.43977355957
-138.76383972168
-124.267555236816
-105.76570892334
-86.5962677001953
-67.5222015380859
-53.121280670166
-41.6768379211426
-30.995361328125
-31.1861019134521
-32.2351760864258
-20.5999927520752
-17.2620315551758
-19.074068069458
-2.76573991775513
6.1037015914917
-9.82314491271973
-17.8342533111572
-3.05185079574585
13.1611070632935
24.7962875366211
29.7555465698242
24.7962875366211
23.9379558563232
25.5592517852783
28.8018417358398
40.3416519165039
44.7286911010742
46.4453544616699
59.1296119689941
74.6749725341797
82.2092361450195
69.7157211303711
59.4157218933105
75.9147872924805
79.8249740600586
60.8462753295898
57.5083160400391
70.0018310546875
83.5444183349609
89.5527496337891
81.6370086669922
72.4814605712891
73.5305328369141
73.6259002685547
59.1296119689941
52.0722045898438
72.4814605712891
88.3129348754883
89.4573822021484
102.904594421387
113.586074829102
105.288856506348
99.4712677001953
100.329597473145
98.1360778808594
91.7462692260742
83.925895690918
78.012939453125
71.9092330932617
68.7620162963867
66.6638641357422
59.701831817627
56.7453536987305
54.7425765991211
46.7314682006836
39.864803314209
36.8129501342773
33.5703582763672
31.2814712524414
33.6657295227051
42.7259140014648
52.0722045898438
49.6879463195801
46.7314682006836
48.734245300293
42.2490615844727
37.7666549682617
34.6194343566895
30.5185089111328
35.4777679443359
37.3851737976074
41.7722091674805
56.1731300354004
58.652759552002
52.8351669311523
57.9851684570313
63.8981285095215
63.9934997558594
70.5740509033203
76.9638671875
72.5768280029297
71.6231231689453
74.0073852539063
69.7157211303711
61.7999801635742
55.1240577697754
58.652759552002
69.6203460693359
74.3888626098633
71.0509033203125
67.8083114624023
63.2305335998535
56.2685012817383
52.1675758361816
46.6360969543457
43.5842437744141
44.251838684082
37.7666549682617
32.6166572570801
29.7555465698242
21.5536975860596
20.2185115814209
28.6111011505127
34.4286918640137
36.9083213806152
33.0935096740723
23.7472152709961
17.9296245574951
7.53425693511963
-4.7685170173645
-0.762962698936462
5.7222204208374
5.05462789535522
2.47962880134583
-4.57777643203735
-11.4444408416748
-18.0249938964844
-23.6518440246582
-25.7499923706055
-31.5675830841064
-34.2379531860352
-30.70924949646
-31.2814712524414
-39.197208404541
-45.6823921203613
-37.7666549682617
-33.3796195983887
-47.2083168029785
-54.3610954284668
-51.5953521728516
-53.121280670166
-53.5981292724609
-49.4018363952637
-51.7860946655273
-58.5573883056641
-55.5055389404297
-55.4101676940918
-68.5712738037109
-72.0046081542969
-56.936092376709
-49.4018363952637
-49.9740562438965
-42.3444290161133
-38.6249885559082
-41.962947845459
-42.8212814331055
-35.9546165466309
-26.226842880249
-20.8861045837402
-20.6953639984131
-25.6546211242676
-28.3249912261963
-31.4722118377686
-33.9518394470215
-35.4777679443359
-48.4481315612793
-53.121280670166
-39.3879508972168
-36.0499877929688
-41.0092468261719
-43.2027626037598
-45.6823921203613
-40.8185043334961
-32.7120246887207
-35.0962867736816
-40.4370231628418
-34.810173034668
-35.8592491149902
-51.2138710021973
-51.8814659118652
-43.9657249450684
-49.6879463195801
-50.355541229248
-43.7749862670898
-44.6333198547363
-35.5731353759766
-19.4555492401123
-17.1666603088379
-18.787956237793
-20.8861045837402
-23.3657341003418
-21.0768451690674
-29.1833248138428
-41.5814666748047
-41.962947845459
-38.7203598022461
-34.9055442810059
-33.0935096740723
-33.2842483520508
-29.7555465698242
-23.5564746856689
-20.3138828277588
-23.5564746856689
-30.0416564941406
-37.0036926269531
-38.0527648925781
-37.6712837219238
-43.7749862670898
-43.2981338500977
-37.1944313049316
-34.9055442810059
-26.7990646362305
-17.9296245574951
-19.360179901123
-16.6898097991943
-6.77129411697388
-2.67036962509155
-2.8611102104187
-0.0953703373670578
0.572222054004669
-3.5287024974823
-4.38703584671021
-7.6296272277832
-20.8861045837402
-21.4583263397217
-9.25092315673828
-9.34629344940186
-4.67314672470093
3.5287024974823
-7.34351634979248
-3.62407302856445
12.1120328903198
2.38425850868225
-0.858333051204681
11.3490705490112
11.8259220123291
14.9731435775757
24.7009181976318
26.6083240509033
25.6546211242676
30.3277683258057
33.1888771057129
30.6138782501221
34.6194343566895
29.1833248138428
7.34351634979248
1.33518481254578
4.00555419921875
4.10092449188232
10.9675893783569
11.0629596710205
10.6814785003662
14.9731435775757
7.15277528762817
-5.53147983551025
-9.537034034729
-2.09814739227295
4.86388731002808
-1.04907369613647
-5.34073925018311
-0.9537034034729
1.81203651428223
6.48518323898315
14.687032699585
17.9296245574951
12.4935140609741
6.58055353164673
5.62685012817383
4.57777643203735
8.77407169342041
9.15555286407471
0
4.1962947845459
12.9703664779663
5.7222204208374
3.71944332122803
6.96203470230103
-1.9074068069458
2.76573991775513
19.360179901123
11.8259220123291
-6.86666440963745
-12.588885307312
-6.00833129882813
-1.52592539787292
-6.77129411697388
-8.77407169342041
-3.05185079574585
0.858333051204681
7.72499752044678
16.7851791381836
14.5916624069214
14.8777732849121
26.9898052215576
39.7694320678711
42.1536903381348
44.4425773620605
59.0342407226563
61.7999801635742
49.783317565918
37.099063873291
20.5046234130859
10.3953666687012
-20.1231422424316
-88.2175674438477
-135.044403076172
-155.072174072266
-191.694381713867
-230.891586303711
-257.881408691406
-277.813812255859
-283.822143554688
-260.742523193359
-171.952728271484
0.47685170173645
205.713821411133
424.111907958984
670.8349609375
829.149719238281
867.679321289063
974.589477539063
1079.30615234375
1012.64227294922
879.505249023438
686.761840820313
407.231353759766
159.459213256836
-24.2240657806396
-151.257354736328
-230.605484008789
-277.718414306641
-294.598968505859
-307.092498779297
-304.803619384766
-289.448974609375
-286.873992919922
-277.050842285156
-276.860107421875
-300.416564941406
-325.022125244141
-357.638763427734
-372.135070800781
-347.338775634766
-310.525817871094
-268.848999023438
-227.458267211914
-195.509201049805
-173.955505371094
-173.955505371094
-194.174011230469
-216.776779174805
-225.169372558594
-216.395294189453
-191.503646850586
-150.017547607422
-117.782371520996
-105.098114013672
-86.4055252075195
-75.7240524291992
-90.1249694824219
-101.664779663086
-98.3268203735352
-94.2258987426758
-87.3592300415039
-68.1897964477539
-55.887020111084
-49.8786888122559
-32.04443359375
-22.4120292663574
-26.7036952972412
-34.7148017883301
-48.4481315612793
-49.3064651489258
-29.1833248138428
-15.2592544555664
-11.8259220123291
-3.43333220481873
12.7796258926392
28.7064723968506
30.995361328125
23.4611034393311
18.5018463134766
11.4444408416748
3.62407302856445
13.256477355957
29.0879535675049
34.810173034668
37.6712837219238
39.197208404541
41.6768379211426
42.3444290161133
42.8212814331055
47.5897979736328
52.0722045898438
65.3286819458008
75.247200012207
68.7620162963867
70.3833084106445
70.2879409790039
62.7536849975586
69.4296035766602
67.8083114624023
54.6472053527832
53.121280670166
58.1759071350098
57.8897972106934
45.4916534423828
36.6222114562988
41.7722091674805
44.0610961914063
43.5842437744141
40.6277656555176
36.0499877929688
39.1018409729004
38.2435073852539
33.5703582763672
35.0962867736816
35.1916542053223
28.7064723968506
27.0851764678955
31.8536930084229
37.7666549682617
50.1647987365723
49.1157264709473
23.4611034393311
9.06018257141113
13.9240694046021
8.10647869110107
0
4.48240613937378
7.82036781311035
15.35462474823
27.5620288848877
30.8046188354492
30.1370277404785
22.8888816833496
8.86944198608398
9.25092315673828
23.6518440246582
34.5240631103516
37.6712837219238
36.1453590393066
41.4860992431641
50.7370223999023
41.4860992431641
30.8999900817871
39.2925796508789
43.1073951721191
34.3333206176758
24.1286964416504
27.0851764678955
39.197208404541
42.630542755127
54.0749816894531
66.854606628418
58.7481307983398
47.9712791442871
34.0472106933594
17.6435127258301
16.5944385528564
15.4499950408936
13.1611070632935
21.4583263397217
28.8018417358398
34.810173034668
30.4231376647949
13.3518476486206
9.44166374206543
12.4935140609741
17.738883972168
26.3222141265869
31.8536930084229
46.6360969543457
51.9768333435059
47.2083168029785
48.9249839782715
35.1916542053223
19.074068069458
20.1231422424316
24.5101776123047
20.5999927520752
10.4907369613647
8.67870044708252
10.1092557907104
9.82314491271973
13.3518476486206
10.7768487930298
-0.762962698936462
-14.7824029922485
-30.5185089111328
-37.099063873291
-22.9842510223389
-9.72777462005615
-9.537034034729
-5.53147983551025
-3.91018390655518
-7.0574049949646
-2.38425850868225
-6.00833129882813
-15.8314762115479
-14.687032699585
-21.2675857543945
-21.0768451690674
-3.71944332122803
-1.81203651428223
-3.5287024974823
-1.71666610240936
-7.72499752044678
-8.48795986175537
-10.5861072540283
-15.5453653335571
-7.15277528762817
0.667592406272888
-0.667592406272888
3.62407302856445
7.24814605712891
-1.14444410800934
-9.15555286407471
-6.96203470230103
-7.72499752044678
-14.1148099899292
-12.302773475647
-10.5861072540283
-21.839807510376
-30.0416564941406
-26.1314735412598
-21.9351787567139
-23.0796222686768
-23.0796222686768
-21.4583263397217
-18.3111057281494
-16.2129573822021
-25.0823993682861
-30.8046188354492
-25.0823993682861
-23.5564746856689
-21.5536975860596
-23.3657341003418
-30.6138782501221
-21.9351787567139
-7.72499752044678
-7.82036781311035
-18.787956237793
-35.5731353759766
-44.4425773620605
-36.5268402099609
-25.7499923706055
-26.7036952972412
-29.0879535675049
-21.2675857543945
-18.6925868988037
-23.0796222686768
-22.3166599273682
-19.360179901123
-22.9842510223389
-38.0527648925781
-50.2601699829102
-50.1647987365723
-49.1157264709473
-47.8759117126465
-44.6333198547363
-49.9740562438965
-55.4101676940918
-49.9740562438965
-44.4425773620605
-41.8675804138184
-37.3851737976074
-33.9518394470215
-33.1888771057129
-36.5268402099609
-33.8564720153809
-27.8481388092041
-34.0472106933594
-38.8157272338867
-41.3907279968262
-50.1647987365723
-50.4509086608887
-47.5897979736328
-46.6360969543457
-41.8675804138184
-31.9490642547607
-14.7824029922485
-4.95925760269165
-2.76573991775513
3.91018390655518
9.15555286407471
9.82314491271973
10.7768487930298
12.0166625976563
7.0574049949646
2.00277709960938
8.86944198608398
15.2592544555664
6.00833129882813
2.95648050308228
6.19907188415527
-0.858333051204681
-0.667592406272888
-2.47962880134583
-0.47685170173645
17.5481433868408
14.3055505752563
2.1935179233551
4.57777643203735
3.8148136138916
10.2999963760376
17.8342533111572
12.8749961853027
14.7824029922485
23.2703628540039
28.1342506408691
24.891658782959
20.9814739227295
23.4611034393311
11.2537002563477
-9.25092315673828
-16.2129573822021
-21.7444381713867
-26.4175834655762
-16.2129573822021
-4.48240613937378
-3.62407302856445
1.52592539787292
8.77407169342041
2.1935179233551
1.04907369613647
6.77129411697388
8.86944198608398
16.8805503845215
15.6407356262207
10.0138854980469
11.9212923049927
5.53147983551025
10.2999963760376
27.657398223877
30.8999900817871
37.5759124755859
48.1620216369629
35.382396697998
17.357400894165
19.6462898254395
24.2240657806396
25.4638805389404
40.4370231628418
48.8296127319336
35.9546165466309
26.5129547119141
24.9870281219482
19.8370304107666
6.96203470230103
-30.1370277404785
-82.876823425293
-123.313850402832
-159.649948120117
-196.844375610352
-226.123077392578
-244.338806152344
-254.25732421875
-262.363800048828
-236.232330322266
-129.894409179688
47.4944305419922
245.387878417969
456.442443847656
674.554443359375
789.380310058594
827.528442382813
951.605224609375
1036.29406738281
953.608032226563
816.274719238281
609.893310546875
329.504516601563
73.1490478515625
-118.831443786621
-217.158264160156
-263.794372558594
-301.465637207031
-325.785095214844
-344.382293701172
-330.172119140625
-296.029541015625
-271.423980712891
-259.025848388672
-274.666564941406
-293.263793945313
-305.852691650391
-340.567474365234
-370.418395996094
-361.835083007813
-324.354522705078
-275.715637207031
-231.654556274414
-191.217529296875
-158.886993408203
-153.73698425293
-169.568466186523
-190.740676879883
-202.566604614258
-193.506423950195
-169.282348632813
-135.711990356445
-104.049041748047
-81.2555313110352
-64.756462097168
-61.8953514099121
-73.4351654052734
-84.3073806762695
-87.6453399658203
-85.7379379272461
-82.2092361450195
-67.2360916137695
-28.0388793945313
4.29166507720947
13.7333288192749
20.0277709960938
17.357400894165
7.15277528762817
5.7222204208374
3.91018390655518
0.381481349468231
4.00555419921875
12.1120328903198
22.5074005126953
30.2323970794678
28.0388793945313
21.3629570007324
18.3111057281494
14.687032699585
12.3981437683105
14.687032699585
18.2157344818115
27.1805477142334
29.5648059844971
29.4694347381592
41.962947845459
44.5379486083984
37.9573936462402
34.810173034668
27.3712882995605
22.5074005126953
25.8453617095947
32.9027671813965
41.1999855041504
47.4944305419922
49.3064651489258
52.5490570068359
58.4620170593262
58.1759071350098
60.7509078979492
76.8684921264648
85.5471954345703
78.2036819458008
75.6286773681641
80.5879364013672
77.7268295288086
75.5333099365234
82.2092361450195
87.6453399658203
89.9342269897461
83.4490509033203
64.1842422485352
48.1620216369629
45.0148010253906
43.9657249450684
40.7231369018555
45.1101722717285
60.3694267272949
70.3833084106445
70.3833084106445
74.6749725341797
78.1083068847656
67.4268264770508
48.3527641296387
38.9110984802246
33.0935096740723
20.3138828277588
20.0277709960938
26.1314735412598
23.4611034393311
27.1805477142334
34.3333206176758
31.2814712524414
14.5916624069214
2.67036962509155
10.4907369613647
21.0768451690674
25.9407329559326
24.2240657806396
22.125919342041
22.2212886810303
22.2212886810303
23.6518440246582
20.0277709960938
17.6435127258301
18.3111057281494
13.7333288192749
0.47685170173645
-5.24536848068237
9.9185152053833
11.2537002563477
-9.9185152053833
-13.6379585266113
-1.43055510520935
-7.15277528762817
-25.3685111999512
-35.7638778686523
-42.0583190917969
-40.913875579834
-21.1722145080566
1.43055510520935
10.8722190856934
16.1175880432129
9.34629344940186
-13.8286991119385
-27.4666576385498
-28.6111011505127
-30.5185089111328
-23.8425846099854
-16.022216796875
-21.2675857543945
-22.6027698516846
-20.6953639984131
-34.1425819396973
-43.1073951721191
-30.70924949646
-28.6111011505127
-43.3935050964355
-39.9601707458496
-24.5101776123047
-14.4009208679199
-2.67036962509155
6.00833129882813
2.8611102104187
-12.4935140609741
-24.9870281219482
-31.7583236694336
-34.7148017883301
-26.1314735412598
-15.35462474823
-7.6296272277832
-2.67036962509155
-3.5287024974823
-4.29166507720947
3.43333220481873
10.204626083374
6.77129411697388
6.58055353164673
2.8611102104187
-3.147221326828
5.81759071350098
13.6379585266113
6.6759238243103
-0.190740674734116
-0.762962698936462
-2.28888821601868
-4.7685170173645
-0.381481349468231
-1.33518481254578
-11.1583299636841
-5.24536848068237
8.10647869110107
9.25092315673828
4.48240613937378
0.667592406272888
-5.43610954284668
-18.9786968231201
-22.2212886810303
-11.635181427002
-7.53425693511963
-3.05185079574585
3.33796191215515
-3.05185079574585
-7.0574049949646
-2.28888821601868
-9.63240432739258
-14.0194396972656
-6.38981294631958
-14.4009208679199
-23.8425846099854
-22.3166599273682
-24.3194370269775
-21.839807510376
-20.7907333374023
-24.7962875366211
-21.4583263397217
-15.2592544555664
-12.2074031829834
-12.4935140609741
-16.8805503845215
-18.4064750671387
-17.5481433868408
-19.9324016571045
-20.8861045837402
-26.4175834655762
-26.0361022949219
-12.7796258926392
-11.5398111343384
-21.5536975860596
-31.6629524230957
-37.4805450439453
-38.5296173095703
-39.2925796508789
-35.0962867736816
-30.3277683258057
-26.7036952972412
-24.3194370269775
-25.5592517852783
-21.6490669250488
-16.30832862854
-13.4472179412842
-9.63240432739258
-8.67870044708252
-7.6296272277832
-5.05462789535522
-2.47962880134583
7.82036781311035
21.4583263397217
26.3222141265869
33.8564720153809
40.3416519165039
25.8453617095947
14.9731435775757
20.5046234130859
21.7444381713867
28.0388793945313
39.0064697265625
39.197208404541
41.1999855041504
47.4944305419922
45.7777633666992
41.6768379211426
39.7694320678711
35.0009155273438
35.0962867736816
45.0148010253906
46.3499870300293
34.6194343566895
26.1314735412598
19.7416610717773
12.7796258926392
11.7305517196655
14.4009208679199
17.5481433868408
10.2999963760376
-2.8611102104187
-6.86666440963745
-1.04907369613647
12.588885307312
18.787956237793
12.9703664779663
1.62129580974579
-10.0138854980469
-11.0629596710205
-20.5999927520752
-35.5731353759766
-34.2379531860352
-30.2323970794678
-27.8481388092041
-25.9407329559326
-24.6055469512939
-25.5592517852783
-33.6657295227051
-34.4286918640137
-31.7583236694336
-32.8073959350586
-26.1314735412598
-26.6083240509033
-40.7231369018555
-42.9166526794434
-40.6277656555176
-47.3036880493164
-44.9194297790527
-39.4833221435547
-38.5296173095703
-29.6601753234863
-26.7990646362305
-30.5185089111328
-28.1342506408691
-23.6518440246582
-17.738883972168
-14.2101802825928
-15.9268465042114
-23.7472152709961
-34.7148017883301
-31.3768424987793
-20.6953639984131
-19.7416610717773
-15.4499950408936
0.0953703373670578
14.2101802825928
19.8370304107666
18.787956237793
10.2999963760376
4.67314672470093
12.4935140609741
16.30832862854
12.1120328903198
10.7768487930298
12.7796258926392
13.5425882339478
7.0574049949646
-8.10647869110107
-51.2138710021973
-117.019409179688
-158.982360839844
-177.48420715332
-198.370300292969
-229.842514038086
-263.985107421875
-289.258239746094
-309.95361328125
-287.446197509766
-162.034210205078
31.2814712524414
245.67399597168
514.618347167969
791.573791503906
923.089538574219
936.822875976563
1059.65979003906
1222.7431640625
1205.19494628906
1101.05053710938
916.032104492188
610.560913085938
319.299896240234
28.0388793945313
-214.201782226563
-303.849914550781
-339.89990234375
-392.830444335938
-432.218383789063
-441.660034179688
-435.937835693359
-418.9619140625
-390.255432128906
-381.672088623047
-380.623016357422
-368.034149169922
-374.519317626953
-384.8193359375
-376.617462158203
-364.982299804688
-336.657287597656
-295.648040771484
-259.216583251953
-229.461044311523
-211.245300292969
-194.174011230469
-182.634201049805
-186.639755249023
-193.411056518555
-189.786972045898
-171.761978149414
-149.922180175781
-134.758285522461
-117.59162902832
-102.52311706543
-102.237007141113
-101.950889587402
-102.427742004395
-103.381446838379
-93.5583038330078
-89.5527496337891
-84.0212707519531
-61.4184989929199
-39.7694320678711
-24.4148063659668
-15.2592544555664
-19.5509204864502
-23.6518440246582
-15.1638841629028
-9.25092315673828
-20.2185115814209
-30.2323970794678
-25.0823993682861
-13.7333288192749
3.62407302856445
12.9703664779663
-0.286111027002335
-12.0166625976563
-13.0657367706299
-16.1175880432129
-8.20184898376465
10.1092557907104
15.5453653335571
16.4036979675293
28.2296199798584
40.3416519165039
44.8240585327148
46.0638732910156
49.2110939025879
53.6935005187988
56.8407211303711
59.1296119689941
62.4675712585449
72.4814605712891
77.7268295288086
73.5305328369141
78.6805267333984
87.6453399658203
90.9833068847656
92.6999740600586
82.2092361450195
62.8490524291992
58.3666496276855
67.0453491210938
72.6721954345703
74.1027526855469
73.2444229125977
78.7759017944336
86.9777526855469
81.9231185913086
72.8629379272461
68.5712738037109
63.3259048461914
61.6092376708984
65.4240493774414
68.2851638793945
68.4759063720703
70.6694183349609
78.4897918701172
83.7351608276367
83.4490509033203
90.5064544677734
95.1795959472656
87.9314498901367
82.3999710083008
79.3481216430664
76.0101623535156
78.2036819458008
82.6860809326172
83.7351608276367
81.827751159668
75.7240524291992
62.4675712585449
55.3147964477539
64.9472045898438
71.3370132446289
63.7073860168457
61.323127746582
66.1870193481445
58.8434982299805
47.1129493713379
47.9712791442871
56.2685012817383
60.8462753295898
62.1814613342285
69.9064559936523
73.8166427612305
58.0805358886719
50.832389831543
59.6064605712891
56.3638725280762
58.3666496276855
68.9527587890625
61.0370178222656
50.6416511535645
48.2573928833008
45.7777633666992
43.2027626037598
34.4286918640137
26.7036952972412
32.04443359375
34.6194343566895
30.995361328125
35.0009155273438
33.761100769043
18.4064750671387
8.86944198608398
9.72777462005615
4.95925760269165
-7.91573810577393
-20.1231422424316
-23.0796222686768
-21.9351787567139
-25.6546211242676
-35.1916542053223
-48.1620216369629
-56.2685012817383
-57.3175735473633
-53.4073905944824
-44.9194297790527
-43.8703575134277
-53.0259094238281
-58.1759071350098
-54.9333152770996
-46.8268356323242
-42.2490615844727
-49.9740562438965
-51.1185035705566
-37.9573936462402
-36.0499877929688
-40.5323944091797
-45.5870208740234
-57.6990547180176
-58.5573883056641
-57.0314636230469
-59.4157218933105
-53.8842430114746
-58.652759552002
-67.0453491210938
-53.3120193481445
-40.7231369018555
-45.8731346130371
-52.5490570068359
-56.8407211303711
-51.404613494873
-40.7231369018555
-40.3416519165039
-41.962947845459
-43.4888763427734
-43.679615020752
-40.1509132385254
-43.3935050964355
-46.3499870300293
-37.0036926269531
-22.2212886810303
-17.4527721405029
-23.7472152709961
-25.8453617095947
-29.8509159088135
-43.4888763427734
-48.4481315612793
-49.5925750732422
-48.066650390625
-38.7203598022461
-36.8129501342773
-38.4342460632324
-33.1888771057129
-30.8999900817871
-32.2351760864258
-27.5620288848877
-28.6111011505127
-31.5675830841064
-23.4611034393311
-21.9351787567139
-30.0416564941406
-37.5759124755859
-42.8212814331055
-42.8212814331055
-44.3472061157227
-43.0120239257813
-35.0962867736816
-31.6629524230957
-27.4666576385498
-18.4064750671387
-7.6296272277832
5.62685012817383
9.15555286407471
7.34351634979248
18.6925868988037
31.8536930084229
29.0879535675049
27.4666576385498
37.7666549682617
38.2435073852539
31.7583236694336
25.8453617095947
15.7361059188843
9.72777462005615
8.29721927642822
12.8749961853027
14.687032699585
6.1037015914917
3.8148136138916
7.15277528762817
3.33796191215515
2.5749990940094
14.1148099899292
23.8425846099854
13.256477355957
-5.24536848068237
-16.1175880432129
-17.2620315551758
-9.44166374206543
-14.3055505752563
-26.4175834655762
-19.074068069458
-6.96203470230103
-3.91018390655518
-5.1499981880188
-9.25092315673828
-5.24536848068237
8.29721927642822
12.9703664779663
7.82036781311035
11.5398111343384
26.4175834655762
30.5185089111328
24.1286964416504
24.4148063659668
22.6027698516846
12.0166625976563
7.82036781311035
12.7796258926392
17.738883972168
24.7962875366211
29.0879535675049
20.409252166748
9.537034034729
2.8611102104187
-7.34351634979248
-15.7361059188843
-16.7851791381836
-15.2592544555664
-8.29721927642822
-9.44166374206543
-26.3222141265869
-28.9925842285156
-19.2648086547852
-13.9240694046021
-4.95925760269165
-1.33518481254578
-5.7222204208374
-1.71666610240936
6.38981294631958
2.09814739227295
-8.0111083984375
0.572222054004669
17.1666603088379
18.8833274841309
9.72777462005615
0.190740674734116
-6.1037015914917
-8.58333015441895
-13.0657367706299
-27.0851764678955
-29.9462871551514
-18.3111057281494
-16.2129573822021
-17.2620315551758
-15.4499950408936
-6.96203470230103
6.38981294631958
11.1583299636841
18.6925868988037
25.3685111999512
17.8342533111572
16.8805503845215
21.839807510376
11.9212923049927
-4.00555419921875
-5.91296100616455
1.14444410800934
7.6296272277832
15.0685138702393
13.4472179412842
13.0657367706299
12.3981437683105
-11.4444408416748
-24.3194370269775
-11.3490705490112
-8.29721927642822
-18.5972156524658
-35.0009155273438
-62.7536849975586
-110.534225463867
-164.704574584961
-196.367523193359
-207.23974609375
-213.820297241211
-229.937896728516
-255.687881469727
-277.9091796875
-286.397125244141
-222.117523193359
-56.2685012817383
141.148101806641
376.426727294922
678.655334472656
909.928405761719
959.330261230469
999.195068359375
1161.7060546875
1228.36999511719
1140.53393554688
1002.91448974609
740.741455078125
430.597076416016
146.679580688477
-120.357368469238
-267.036956787109
-322.161010742188
-369.083221435547
-403.893402099609
-416.196166992188
-412.762817382813
-416.673004150391
-405.037841796875
-372.898040771484
-372.516540527344
-390.350799560547
-388.634124755859
-389.778564453125
-397.312835693359
-384.533203125
-361.835083007813
-340.472106933594
-311.861022949219
-283.059173583984
-278.767517089844
-285.348052978516
-275.334167480469
-266.273986816406
-258.930480957031
-238.616592407227
-216.204559326172
-199.324005126953
-176.721237182617
-141.720321655273
-107.768486022949
-105.384223937988
-121.120330810547
-111.487930297852
-100.043487548828
-101.092559814453
-85.0703430175781
-67.4268264770508
-68.6666412353516
-67.903678894043
-55.0286865234375
-46.1592445373535
-36.0499877929688
-16.4990692138672
-7.91573810577393
-4.67314672470093
7.53425693511963
13.9240694046021
14.9731435775757
20.0277709960938
28.9925842285156
43.2027626037598
43.3935050964355
24.5101776123047
12.7796258926392
9.15555286407471
11.3490705490112
23.8425846099854
36.9083213806152
49.9740562438965
61.4184989929199
69.0481262207031
75.0564575195313
72.2907180786133
65.9962768554688
65.7101669311523
69.2388687133789
72.5768280029297
70.9555358886719
67.3314590454102
68.4759063720703
77.4407196044922
84.8796005249023
80.9694213867188
73.9120101928711
66.6638641357422
67.7129440307617
78.7759017944336
81.3508987426758
71.6231231689453
59.0342407226563
54.9333152770996
51.1185035705566
41.6768379211426
40.7231369018555
47.2083168029785
51.5953521728516
48.1620216369629
39.2925796508789
35.0962867736816
37.3851737976074
51.2138710021973
62.3722038269043
57.4129447937012
50.6416511535645
50.5462799072266
52.0722045898438
40.6277656555176
25.6546211242676
28.2296199798584
33.9518394470215
36.0499877929688
44.251838684082
46.5407257080078
44.0610961914063
51.404613494873
65.9962768554688
66.854606628418
51.1185035705566
38.9110984802246
36.8129501342773
40.6277656555176
43.679615020752
50.832389831543
74.4842376708984
90.4110794067383
82.4953460693359
75.3425674438477
76.8684921264648
76.1055297851563
73.5305328369141
73.6259002685547
77.6314544677734
83.2583084106445
80.8740463256836
69.7157211303711
63.039794921875
61.8953514099121
61.1323890686035
65.2333145141602
67.8083114624023
66.4731292724609
74.1027526855469
85.5471954345703
89.5527496337891
86.6916351318359
74.5796051025391
56.3638725280762
42.1536903381348
29.6601753234863
16.4036979675293
6.48518323898315
5.53147983551025
17.357400894165
22.8888816833496
13.7333288192749
5.1499981880188
2.38425850868225
6.6759238243103
6.6759238243103
-4.1962947845459
-4.67314672470093
-5.1499981880188
-18.787956237793
-16.30832862854
-9.63240432739258
-22.8888816833496
-28.0388793945313
-17.2620315551758
-7.24814605712891
-1.04907369613647
-8.0111083984375
-21.4583263397217
-31.4722118377686
-45.2055397033691
-52.7397994995117
-50.1647987365723
-48.5435028076172
-40.4370231628418
-24.3194370269775
-14.687032699585
-13.6379585266113
-20.5046234130859
-28.7064723968506
-24.7009181976318
-18.787956237793
-19.2648086547852
-17.738883972168
-22.6027698516846
-36.1453590393066
-41.0092468261719
-33.9518394470215
-34.9055442810059
-43.679615020752
-35.6685066223145
-21.0768451690674
-18.787956237793
-22.125919342041
-27.2759170532227
-31.8536930084229
-31.2814712524414
-28.2296199798584
-22.3166599273682
-20.6953639984131
-26.226842880249
-24.7009181976318
-19.074068069458
-25.4638805389404
-40.0555419921875
-56.0777587890625
-66.6638641357422
-69.6203460693359
-72.2907180786133
-66.2823867797852
-50.832389831543
-46.0638732910156
-48.2573928833008
-39.0064697265625
-33.4749908447266
-37.8620262145996
-34.9055442810059
-33.0935096740723
-36.3360977172852
-35.7638778686523
-34.3333206176758
-30.995361328125
-27.8481388092041
-26.226842880249
-22.0305480957031
-19.7416610717773
-15.7361059188843
-1.71666610240936
4.57777643203735
1.71666610240936
0.47685170173645
-11.0629596710205
-24.4148063659668
-28.4203605651855
-29.6601753234863
-27.3712882995605
-26.1314735412598
-22.5074005126953
-19.5509204864502
-31.5675830841064
-36.9083213806152
-28.6111011505127
-22.8888816833496
-22.8888816833496
-32.4259147644043
-37.7666549682617
-35.4777679443359
-33.3796195983887
-24.5101776123047
-24.3194370269775
-34.810173034668
-28.6111011505127
-16.1175880432129
-15.1638841629028
-12.588885307312
3.05185079574585
18.5972156524658
17.738883972168
20.1231422424316
26.6083240509033
8.3925895690918
-8.48795986175537
-2.95648050308228
-4.38703584671021
-7.24814605712891
5.53147983551025
13.256477355957
13.5425882339478
14.9731435775757
16.4036979675293
22.9842510223389
27.4666576385498
27.5620288848877
27.657398223877
20.0277709960938
13.8286991119385
12.302773475647
-1.81203651428223
-13.0657367706299
-4.1962947845459
7.34351634979248
7.72499752044678
0
-2.5749990940094
9.537034034729
16.30832862854
4.29166507720947
-0.381481349468231
5.05462789535522
-4.1962947845459
-18.8833274841309
-20.2185115814209
-14.8777732849121
-12.4935140609741
-19.7416610717773
-32.1398048400879
-32.7120246887207
-21.7444381713867
-9.25092315673828
-3.8148136138916
-9.44166374206543
-15.35462474823
-13.5425882339478
-14.9731435775757
-21.1722145080566
-18.787956237793
-16.30832862854
-20.8861045837402
-19.7416610717773
-10.8722190856934
-2.8611102104187
-0.0953703373670578
-0.858333051204681
0.667592406272888
3.24259161949158
6.48518323898315
4.7685170173645
3.5287024974823
18.6925868988037
25.6546211242676
15.6407356262207
14.7824029922485
16.1175880432129
20.6953639984131
33.4749908447266
27.2759170532227
19.074068069458
33.6657295227051
44.5379486083984
43.0120239257813
38.0527648925781
31.0907306671143
28.3249912261963
32.2351760864258
34.4286918640137
31.2814712524414
20.9814739227295
6.48518323898315
-5.1499981880188
-42.3444290161133
-102.427742004395
-137.714767456055
-159.554580688477
-194.36474609375
-233.180480957031
-274.761962890625
-311.956390380859
-332.174896240234
-308.141571044922
-191.980499267578
-0.381481349468231
214.678634643555
481.906341552734
765.442321777344
903.061767578125
924.901550292969
1044.78210449219
1188.69592285156
1158.55883789063
1032.95617675781
834.585815429688
546.090576171875
270.374908447266
11.635181427002
-175.958282470703
-251.682327270508
-305.185089111328
-355.540618896484
-379.669311523438
-387.394317626953
-394.547088623047
-391.876739501953
-375.091552734375
-367.652648925781
-377.666534423828
-388.920257568359
-390.923034667969
-397.503570556641
-393.021179199219
-360.881378173828
-331.316558837891
-303.945281982422
-269.516571044922
-243.766586303711
-227.362884521484
-219.351776123047
-216.872146606445
-214.201782226563
-208.002716064453
-195.223083496094
-179.200866699219
-161.461990356445
-132.374038696289
-105.193481445313
-97.5638580322266
-96.13330078125
-104.335151672363
-112.155517578125
-109.103668212891
-112.823112487793
-102.237007141113
-74.6749725341797
-56.7453536987305
-48.1620216369629
-37.4805450439453
-31.6629524230957
-41.4860992431641
-51.0231323242188
-52.6444282531738
-52.7397994995117
-39.864803314209
-18.2157344818115
-15.6407356262207
-24.1286964416504
-16.022216796875
-4.67314672470093
-4.95925760269165
-0.667592406272888
3.91018390655518
1.71666610240936
4.1962947845459
6.6759238243103
15.6407356262207
35.2870254516602
44.7286911010742
47.7805404663086
56.1731300354004
59.4157218933105
61.0370178222656
69.9064559936523
70.0018310546875
56.3638725280762
51.7860946655273
57.1268348693848
58.9388694763184
62.0860900878906
64.2796096801758
62.9444236755371
63.1351661682129
62.6583137512207
59.3203506469727
53.6935005187988
47.7805404663086
45.1101722717285
46.4453544616699
52.453685760498
56.5546112060547
64.2796096801758
81.827751159668
85.2610855102539
79.1573791503906
84.2120132446289
88.7897872924805
88.9805297851563
85.3564529418945
69.1434936523438
53.7888717651367
53.121280670166
54.7425765991211
50.1647987365723
49.0203552246094
47.3990592956543
42.7259140014648
49.2110939025879
54.2657241821289
53.0259094238281
58.5573883056641
66.1870193481445
81.16015625
90.6018218994141
84.0212707519531
83.0675659179688
85.7379379272461
87.0731201171875
87.0731201171875
82.7814559936523
85.0703430175781
93.1768188476563
97.4684906005859
94.9888610839844
89.5527496337891
80.9694213867188
65.9962768554688
58.9388694763184
58.9388694763184
55.3147964477539
60.9416465759277
66.4731292724609
59.3203506469727
53.5981292724609
56.3638725280762
54.2657241821289
48.9249839782715
51.6907234191895
51.0231323242188
51.1185035705566
59.7972030639648
64.8518295288086
65.0425720214844
59.9879455566406
50.9277610778809
46.9222068786621
46.1592445373535
48.9249839782715
52.6444282531738
44.8240585327148
33.5703582763672
26.1314735412598
18.0249938964844
20.6953639984131
31.5675830841064
30.3277683258057
18.8833274841309
14.4009208679199
19.6462898254395
19.1694374084473
11.9212923049927
11.4444408416748
8.86944198608398
-0.286111027002335
-4.86388731002808
-16.30832862854
-28.2296199798584
-22.6981410980225
-19.7416610717773
-26.9898052215576
-32.9981384277344
-43.5842437744141
-43.5842437744141
-27.1805477142334
-26.0361022949219
-28.8972129821777
-16.4036979675293
-10.4907369613647
-12.9703664779663
-14.687032699585
-21.839807510376
-28.6111011505127
-27.1805477142334
-25.3685111999512
-22.6981410980225
-17.738883972168
-22.6027698516846
-36.431468963623
-43.679615020752
-45.8731346130371
-43.5842437744141
-30.8999900817871
-29.1833248138428
-40.913875579834
-44.9194297790527
-42.0583190917969
-33.0935096740723
-28.3249912261963
-35.8592491149902
-41.4860992431641
-43.5842437744141
-43.2981338500977
-45.3962821960449
-53.6935005187988
-51.3092422485352
-44.0610961914063
-55.6962776184082
-68.8573837280273
-62.4675712585449
-61.99072265625
-73.2444229125977
-72.9583129882813
-67.4268264770508
-64.8518295288086
-54.6472053527832
-37.8620262145996
-20.5046234130859
-12.1120328903198
-21.0768451690674
-24.3194370269775
-12.7796258926392
-13.9240694046021
-26.1314735412598
-34.2379531860352
-42.3444290161133
-46.2546157836914
-50.1647987365723
-58.1759071350098
-60.5601654052734
-59.2249794006348
-52.3583183288574
-39.1018409729004
-31.8536930084229
-32.9027671813965
-32.9981384277344
-29.1833248138428
-29.9462871551514
-31.4722118377686
-26.3222141265869
-35.382396697998
-52.7397994995117
-44.6333198547363
-28.8018417358398
-29.4694347381592
-25.3685111999512
-21.7444381713867
-28.4203605651855
-28.7064723968506
-31.4722118377686
-35.9546165466309
-31.0907306671143
-30.6138782501221
-36.7175827026367
-42.4398002624512
-53.7888717651367
-65.0425720214844
-59.5110931396484
-48.3527641296387
-43.3935050964355
-36.0499877929688
-30.6138782501221
-28.0388793945313
-28.3249912261963
-23.8425846099854
-12.6842555999756
-16.022216796875
-25.8453617095947
-20.2185115814209
-6.86666440963745
0.572222054004669
8.96481227874756
16.5944385528564
15.5453653335571
9.25092315673828
0
-6.96203470230103
-3.43333220481873
13.1611070632935
22.125919342041
12.0166625976563
4.00555419921875
-4.10092449188232
-13.7333288192749
-14.8777732849121
-17.0712909698486
-13.7333288192749
-3.05185079574585
0
-5.24536848068237
-10.4907369613647
-4.38703584671021
4.95925760269165
2.5749990940094
0.9537034034729
16.022216796875
31.2814712524414
25.5592517852783
12.4935140609741
8.0111083984375
10.3953666687012
14.9731435775757
14.3055505752563
7.0574049949646
5.62685012817383
11.5398111343384
12.588885307312
13.8286991119385
15.8314762115479
11.4444408416748
13.7333288192749
19.9324016571045
14.8777732849121
8.86944198608398
8.29721927642822
3.43333220481873
-0.9537034034729
7.91573810577393
14.9731435775757
6.48518323898315
2.5749990940094
-2.47962880134583
-6.29444265365601
6.58055353164673
11.9212923049927
15.7361059188843
31.8536930084229
38.8157272338867
30.5185089111328
18.6925868988037
12.302773475647
6.96203470230103
-11.0629596710205
-54.7425765991211
-112.25089263916
-148.968475341797
-174.527725219727
-202.089752197266
-219.92399597168
-238.616592407227
-252.826766967773
-247.486038208008
-196.844375610352
-59.4157218933105
135.807357788086
342.474884033203
572.603515625
768.494201660156
843.169189453125
917.367309570313
1035.24499511719
1015.02655029297
884.273803710938
724.051635742188
477.137817382813
205.236968994141
-8.10647869110107
-144.772171020508
-213.057342529297
-261.410095214844
-285.443420410156
-286.683227539063
-285.920288085938
-265.701751708984
-238.521224975586
-227.649002075195
-233.275848388672
-254.352691650391
-284.680450439453
-328.741546630859
-364.505432128906
-361.548950195313
-334.368408203125
-289.639709472656
-226.695297241211
-169.663833618164
-143.532363891602
-146.488845825195
-157.933288574219
-173.001800537109
-186.449020385742
-183.015686035156
-155.072174072266
-110.820335388184
-76.0101623535156
-57.4129447937012
-48.1620216369629
-48.9249839782715
-55.5055389404297
-64.8518295288086
-70.5740509033203
-64.3749771118164
-49.4972076416016
-28.5157318115234
-3.62407302856445
11.635181427002
6.1037015914917
2.00277709960938
17.9296245574951
19.7416610717773
-4.1962947845459
-20.0277709960938
-19.9324016571045
-11.1583299636841
16.1175880432129
44.6333198547363
50.6416511535645
49.6879463195801
55.6962776184082
48.2573928833008
37.0036926269531
38.2435073852539
29.3740653991699
17.9296245574951
20.6953639984131
19.074068069458
15.4499950408936
19.9324016571045
24.7009181976318
26.1314735412598
27.8481388092041
35.2870254516602
36.1453590393066
29.8509159088135
35.4777679443359
45.4916534423828
46.6360969543457
43.3935050964355
44.0610961914063
48.4481315612793
49.1157264709473
48.2573928833008
52.453685760498
55.3147964477539
49.4018363952637
40.913875579834
41.3907279968262
49.4972076416016
59.6064605712891
61.323127746582
51.6907234191895
52.0722045898438
54.3610954284668
46.5407257080078
39.4833221435547
32.4259147644043
26.4175834655762
23.6518440246582
18.3111057281494
9.44166374206543
8.3925895690918
19.074068069458
17.1666603088379
-3.62407302856445
-18.9786968231201
-22.3166599273682
-22.6981410980225
-17.6435127258301
-9.06018257141113
-3.71944332122803
-5.43610954284668
-9.34629344940186
-4.67314672470093
-5.7222204208374
-5.53147983551025
10.2999963760376
9.25092315673828
5.05462789535522
20.7907333374023
24.5101776123047
22.8888816833496
26.8944358825684
26.7036952972412
33.6657295227051
33.8564720153809
17.1666603088379
5.91296100616455
1.81203651428223
5.53147983551025
19.1694374084473
28.3249912261963
29.1833248138428
34.2379531860352
45.2055397033691
49.0203552246094
45.7777633666992
35.6685066223145
19.2648086547852
8.96481227874756
2.76573991775513
2.09814739227295
14.3055505752563
26.6083240509033
23.9379558563232
17.8342533111572
17.9296245574951
15.1638841629028
10.9675893783569
7.82036781311035
5.62685012817383
11.3490705490112
24.6055469512939
30.8999900817871
28.8018417358398
24.7009181976318
13.4472179412842
-0.47685170173645
-7.6296272277832
-13.256477355957
-17.9296245574951
-12.588885307312
-2.8611102104187
1.14444410800934
-0.0953703373670578
1.14444410800934
2.38425850868225
0.0953703373670578
-0.381481349468231
-2.76573991775513
-9.9185152053833
-19.074068069458
-22.7935104370117
-16.7851791381836
-6.19907188415527
4.86388731002808
14.687032699585
16.022216796875
10.4907369613647
12.7796258926392
13.0657367706299
4.95925760269165
3.62407302856445
4.48240613937378
8.29721927642822
16.7851791381836
16.7851791381836
12.1120328903198
7.91573810577393
-0.9537034034729
0
13.256477355957
9.72777462005615
-1.43055510520935
6.00833129882813
18.2157344818115
19.5509204864502
15.2592544555664
9.537034034729
-4.10092449188232
-12.3981437683105
-6.38981294631958
-3.147221326828
-0.762962698936462
0.762962698936462
-6.19907188415527
-17.2620315551758
-22.2212886810303
-19.1694374084473
-9.34629344940186
7.43888664245605
10.5861072540283
1.23981440067291
2.8611102104187
4.48240613937378
-0.47685170173645
0
1.33518481254578
0.47685170173645
-5.62685012817383
-19.4555492401123
-29.8509159088135
-37.7666549682617
-38.5296173095703
-24.6055469512939
-18.8833274841309
-25.6546211242676
-23.3657341003418
-20.6953639984131
-26.226842880249
-30.995361328125
-39.3879508972168
-44.4425773620605
-47.6851692199707
-51.1185035705566
-40.913875579834
-35.6685066223145
-40.913875579834
-36.3360977172852
-40.7231369018555
-55.1240577697754
-53.3120193481445
-52.2629470825195
-57.6990547180176
-49.6879463195801
-40.2462844848633
-31.8536930084229
-22.125919342041
-26.9898052215576
-28.6111011505127
-14.8777732849121
-10.4907369613647
-17.5481433868408
-22.8888816833496
-14.7824029922485
-2.28888821601868
-9.537034034729
-25.177770614624
-25.9407329559326
-17.8342533111572
-10.0138854980469
0
7.82036781311035
12.6842555999756
16.4990692138672
8.10647869110107
-8.20184898376465
-21.0768451690674
-27.943510055542
-29.0879535675049
-28.2296199798584
-26.7036952972412
-30.3277683258057
-40.2462844848633
-41.7722091674805
-32.5212860107422
-24.1286964416504
-17.5481433868408
-15.5453653335571
-19.9324016571045
-13.256477355957
-1.52592539787292
-6.19907188415527
-12.8749961853027
-14.4962921142578
-14.5916624069214
-10.5861072540283
-16.2129573822021
-22.0305480957031
-12.0166625976563
-4.48240613937378
-8.67870044708252
-11.3490705490112
-3.5287024974823
3.43333220481873
1.04907369613647
-12.2074031829834
-23.4611034393311
-16.30832862854
-9.06018257141113
-0.858333051204681
12.4935140609741
2.00277709960938
-4.67314672470093
4.1962947845459
-2.5749990940094
3.5287024974823
19.2648086547852
7.34351634979248
1.52592539787292
10.7768487930298
10.204626083374
14.4009208679199
22.6981410980225
21.3629570007324
11.9212923049927
-6.77129411697388
-20.0277709960938
-27.1805477142334
-60.6555366516113
-112.918479919434
-147.34716796875
-164.418472290039
-182.443466186523
-204.664749145508
-217.92121887207
-219.447158813477
-213.820297241211
-168.80549621582
-49.4972076416016
126.651809692383
329.027679443359
555.150756835938
739.883117675781
799.584899902344
854.041381835938
978.881164550781
972.872863769531
830.103454589844
678.178466796875
453.390594482422
186.830490112305
-37.1944313049316
-191.217529296875
-244.720291137695
-259.979553222656
-277.9091796875
-285.824920654297
-297.841583251953
-295.266571044922
-280.293426513672
-271.042510986328
-262.64990234375
-270.184173583984
-282.200836181641
-292.310089111328
-325.975830078125
-354.777648925781
-331.125823974609
-263.222137451172
-193.029571533203
-149.63606262207
-126.937919616699
-111.964782714844
-117.114776611328
-132.278656005859
-137.047180175781
-144.676803588867
-140.003662109375
-107.291633605957
-69.4296035766602
-32.04443359375
-0.667592406272888
8.0111083984375
-1.81203651428223
-21.6490669250488
-46.3499870300293
-65.5194244384766
-67.4268264770508
-56.8407211303711
-45.0148010253906
-16.2129573822021
19.8370304107666
30.70924949646
22.2212886810303
10.9675893783569
5.1499981880188
2.09814739227295
-4.1962947845459
-2.38425850868225
12.7796258926392
27.4666576385498
44.7286911010742
57.1268348693848
48.066650390625
41.1046180725098
43.1073951721191
36.8129501342773
34.5240631103516
37.8620262145996
36.9083213806152
36.9083213806152
38.148136138916
39.1018409729004
41.6768379211426
39.3879508972168
37.0036926269531
35.0962867736816
25.4638805389404
30.995361328125
47.1129493713379
46.7314682006836
44.9194297790527
37.099063873291
22.8888816833496
22.5074005126953
23.9379558563232
18.1203651428223
7.0574049949646
0.0953703373670578
7.15277528762817
14.1148099899292
16.4990692138672
23.2703628540039
34.7148017883301
45.1101722717285
49.9740562438965
57.2222023010254
61.5138702392578
57.2222023010254
51.8814659118652
40.7231369018555
25.8453617095947
16.8805503845215
14.687032699585
9.63240432739258
4.38703584671021
11.0629596710205
13.5425882339478
12.7796258926392
29.278694152832
38.8157272338867
28.5157318115234
21.6490669250488
18.4064750671387
16.8805503845215
30.0416564941406
38.7203598022461
31.2814712524414
26.7036952972412
22.6981410980225
14.4962921142578
4.67314672470093
-5.7222204208374
-1.04907369613647
12.6842555999756
19.8370304107666
27.2759170532227
31.7583236694336
28.2296199798584
31.3768424987793
37.4805450439453
24.6055469512939
7.6296272277832
4.57777643203735
-4.48240613937378
-13.4472179412842
-4.00555419921875
8.67870044708252
16.9759197235107
20.6953639984131
11.8259220123291
-8.58333015441895
-25.8453617095947
-29.8509159088135
-35.382396697998
-47.2083168029785
-39.4833221435547
-24.3194370269775
-30.4231376647949
-32.1398048400879
-22.8888816833496
-19.9324016571045
-16.4036979675293
-16.022216796875
-18.3111057281494
-18.787956237793
-4.95925760269165
20.5999927520752
28.9925842285156
27.8481388092041
33.8564720153809
32.8073959350586
15.8314762115479
5.05462789535522
12.0166625976563
14.0194396972656
15.9268465042114
25.7499923706055
26.6083240509033
26.7990646362305
32.8073959350586
26.226842880249
14.687032699585
9.25092315673828
4.7685170173645
6.38981294631958
6.48518323898315
3.8148136138916
10.5861072540283
16.5944385528564
14.3055505752563
9.72777462005615
5.34073925018311
-1.14444410800934
-11.3490705490112
-17.357400894165
-13.1611070632935
-0.0953703373670578
14.9731435775757
23.2703628540039
20.8861045837402
11.8259220123291
5.34073925018311
6.86666440963745
7.15277528762817
-2.00277709960938
-7.53425693511963
-5.24536848068237
-4.1962947845459
6.96203470230103
19.7416610717773
13.7333288192749
4.57777643203735
-2.28888821601868
-9.72777462005615
-14.1148099899292
-18.4064750671387
-14.1148099899292
-6.58055353164673
-10.0138854980469
-11.8259220123291
-9.25092315673828
-10.2999963760376
-9.537034034729
-13.3518476486206
-24.2240657806396
-23.2703628540039
-15.1638841629028
-22.6027698516846
-29.5648059844971
-25.3685111999512
-29.7555465698242
-28.8972129821777
-16.1175880432129
-12.9703664779663
-19.1694374084473
-18.8833274841309
-14.1148099899292
-19.8370304107666
-26.6083240509033
-29.4694347381592
-30.70924949646
-19.4555492401123
-11.2537002563477
-16.30832862854
-17.6435127258301
-8.96481227874756
-1.62129580974579
-3.71944332122803
-9.15555286407471
-9.15555286407471
-6.48518323898315
-10.9675893783569
-10.4907369613647
5.53147983551025
15.4499950408936
10.204626083374
8.58333015441895
4.1962947845459
-13.6379585266113
-28.5157318115234
-28.8018417358398
-21.7444381713867
-19.7416610717773
-14.5916624069214
-1.43055510520935
-0.190740674734116
1.81203651428223
9.9185152053833
-0.9537034034729
-12.9703664779663
-8.77407169342041
-1.62129580974579
0.858333051204681
-1.04907369613647
-5.7222204208374
-6.58055353164673
-2.5749990940094
-1.14444410800934
-6.29444265365601
-10.2999963760376
-7.82036781311035
-14.3055505752563
-27.943510055542
-28.8972129821777
-24.1286964416504
-24.7962875366211
-30.5185089111328
-46.1592445373535
-59.701831817627
-61.4184989929199
-64.9472045898438
-59.6064605712891
-39.864803314209
-28.9925842285156
-28.7064723968506
-22.8888816833496
-4.67314672470093
6.48518323898315
4.10092449188232
1.52592539787292
1.52592539787292
-2.95648050308228
-10.4907369613647
-1.52592539787292
11.7305517196655
18.4064750671387
32.3305435180664
39.4833221435547
37.0036926269531
47.3036880493164
56.8407211303711
41.1046180725098
30.995361328125
43.1073951721191
47.017578125
44.1564674377441
45.1101722717285
45.1101722717285
44.0610961914063
36.6222114562988
27.0851764678955
22.125919342041
19.8370304107666
17.2620315551758
-1.04907369613647
-31.1861019134521
-61.6092376708984
-105.76570892334
-147.251800537109
-177.48420715332
-207.43049621582
-223.643447875977
-240.810104370117
-262.459167480469
-261.314727783203
-215.632339477539
-85.9286727905273
100.329597473145
280.865661621094
500.026702880859
731.967346191406
824.953430175781
864.818237304688
999.290405273438
1051.171875
946.64599609375
795.197875976563
562.11279296875
280.293426513672
29.8509159088135
-162.41569519043
-262.840667724609
-318.34619140625
-357.734130859375
-365.936004638672
-367.271179199219
-361.930450439453
-345.526733398438
-334.654510498047
-324.259155273438
-313.291564941406
-319.109161376953
-342.188781738281
-360.118408203125
-358.210998535156
-344.573028564453
-311.002685546875
-253.017517089844
-199.419387817383
-166.898101806641
-160.985137939453
-165.658279418945
-165.944396972656
-176.721237182617
-186.639755249023
-180.917541503906
-171.189758300781
-146.870330810547
-104.430519104004
-77.5360870361328
-73.9120101928711
-73.5305328369141
-78.394416809082
-86.8823776245117
-83.3536758422852
-74.4842376708984
-69.4296035766602
-57.3175735473633
-37.099063873291
-11.9212923049927
7.24814605712891
7.6296272277832
5.1499981880188
-0.762962698936462
-13.6379585266113
-14.9731435775757
-1.71666610240936
19.074068069458
42.9166526794434
63.039794921875
71.6231231689453
75.3425674438477
79.3481216430664
77.5360870361328
69.2388687133789
48.2573928833008
28.7064723968506
27.7527694702148
25.6546211242676
20.0277709960938
19.1694374084473
16.4036979675293
15.4499950408936
15.8314762115479
11.8259220123291
8.48795986175537
6.86666440963745
4.48240613937378
1.04907369613647
2.09814739227295
10.6814785003662
19.5509204864502
25.2731399536133
28.8018417358398
24.9870281219482
14.1148099899292
8.58333015441895
18.1203651428223
28.6111011505127
24.3194370269775
20.409252166748
26.7036952972412
22.9842510223389
6.77129411697388
2.38425850868225
17.738883972168
42.3444290161133
60.1786842346191
61.323127746582
59.0342407226563
60.6555366516113
55.1240577697754
52.3583183288574
61.99072265625
68.0944213867188
67.8083114624023
65.5194244384766
57.7944259643555
45.4916534423828
41.1046180725098
44.9194297790527
46.2546157836914
46.9222068786621
48.3527641296387
56.2685012817383
63.2305335998535
64.3749771118164
67.903678894043
62.3722038269043
52.8351669311523
52.1675758361816
55.5055389404297
61.4184989929199
63.3259048461914
61.7046089172363
53.2166481018066
43.4888763427734
39.3879508972168
30.4231376647949
25.2731399536133
26.3222141265869
22.2212886810303
20.6953639984131
29.4694347381592
41.0092468261719
38.4342460632324
30.1370277404785
32.7120246887207
29.4694347381592
12.8749961853027
0.0953703373670578
-6.1037015914917
-16.7851791381836
-22.4120292663574
-12.9703664779663
-1.9074068069458
-1.62129580974579
-7.82036781311035
-4.57777643203735
1.43055510520935
-3.24259161949158
-12.302773475647
-13.4472179412842
-1.62129580974579
10.9675893783569
14.5916624069214
12.0166625976563
11.3490705490112
5.34073925018311
-5.62685012817383
-5.05462789535522
-3.147221326828
-10.6814785003662
-20.0277709960938
-20.0277709960938
-7.0574049949646
10.7768487930298
20.5046234130859
16.4036979675293
6.19907188415527
-5.81759071350098
-11.7305517196655
-12.9703664779663
-14.8777732849121
-14.3055505752563
-13.7333288192749
-13.8286991119385
-15.35462474823
-14.9731435775757
-21.7444381713867
-40.0555419921875
-47.2083168029785
-37.9573936462402
-25.9407329559326
-22.8888816833496
-22.8888816833496
-9.25092315673828
6.86666440963745
7.72499752044678
-4.57777643203735
-17.8342533111572
-24.7962875366211
-27.7527694702148
-32.2351760864258
-35.4777679443359
-29.5648059844971
-26.8944358825684
-31.7583236694336
-28.6111011505127
-20.1231422424316
-13.3518476486206
-7.6296272277832
-16.9759197235107
-34.0472106933594
-34.3333206176758
-25.2731399536133
-17.6435127258301
-13.0657367706299
-15.2592544555664
-12.9703664779663
-9.72777462005615
-14.687032699585
-13.3518476486206
-10.0138854980469
-13.7333288192749
-14.0194396972656
-8.58333015441895
-2.8611102104187
4.86388731002808
4.86388731002808
-0.762962698936462
0.286111027002335
-0.667592406272888
-1.52592539787292
4.10092449188232
4.7685170173645
2.1935179233551
3.8148136138916
4.29166507720947
8.20184898376465
19.6462898254395
29.7555465698242
30.8046188354492
25.8453617095947
28.0388793945313
28.5157318115234
17.8342533111572
8.77407169342041
6.19907188415527
8.29721927642822
16.6898097991943
23.6518440246582
24.6055469512939
30.0416564941406
33.1888771057129
20.6953639984131
12.8749961853027
23.8425846099854
37.2898025512695
44.8240585327148
50.4509086608887
44.5379486083984
40.4370231628418
45.5870208740234
39.5786895751953
37.4805450439453
44.5379486083984
42.8212814331055
31.6629524230957
18.787956237793
8.77407169342041
3.5287024974823
14.5916624069214
37.2898025512695
41.3907279968262
28.8972129821777
20.0277709960938
2.76573991775513
-15.9268465042114
-16.1175880432129
-14.8777732849121
-21.4583263397217
-26.4175834655762
-20.5999927520752
-8.10647869110107
-12.8749961853027
-31.4722118377686
-41.8675804138184
-44.4425773620605
-44.0610961914063
-38.2435073852539
-31.5675830841064
-35.8592491149902
-48.1620216369629
-49.6879463195801
-45.9685020446777
-47.017578125
-40.3416519165039
-40.4370231628418
-53.7888717651367
-52.7397994995117
-43.9657249450684
-47.1129493713379
-48.4481315612793
-46.2546157836914
-47.2083168029785
-41.1046180725098
-32.9981384277344
-26.7036952972412
-20.3138828277588
-12.2074031829834
-5.43610954284668
-11.1583299636841
-14.8777732849121
-9.34629344940186
-5.1499981880188
-6.38981294631958
-15.0685138702393
-23.8425846099854
-32.9981384277344
-29.1833248138428
-9.25092315673828
-2.47962880134583
-8.67870044708252
-10.204626083374
-10.9675893783569
-16.30832862854
-25.8453617095947
-60.5601654052734
-112.537002563477
-140.480514526367
-160.508285522461
-196.081420898438
-228.69807434082
-253.971221923828
-281.247131347656
-300.130462646484
-271.900848388672
-157.074951171875
36.8129501342773
273.140655517578
545.804443359375
815.416381835938
943.594116210938
954.943237304688
1088.08020019531
1251.64038085938
1213.30151367188
1089.32006835938
892.284912109375
588.434997558594
287.636932373047
-27.4666576385498
-270.184173583984
-361.548950195313
-409.901733398438
-454.916534423828
-479.808166503906
-480.571136474609
-472.941528320313
-458.922088623047
-423.730407714844
-411.999877929688
-421.250793457031
-412.953582763672
-407.994323730469
-410.378570556641
-406.563751220703
-398.552642822266
-383.102661132813
-360.118408203125
-331.411926269531
-300.893432617188
-276.478607177734
-256.546203613281
-242.049926757813
-233.371215820313
-222.403625488281
-210.482345581055
-198.75178527832
-184.160125732422
-160.699020385742
-134.281433105469
-123.790702819824
-117.782371520996
-101.474044799805
-91.0786743164063
-94.3212661743164
-99.948112487793
-94.03515625
-81.4462738037109
-73.7212753295898
-57.1268348693848
-37.8620262145996
-33.8564720153809
-31.1861019134521
-22.6027698516846
-16.6898097991943
-19.074068069458
-20.3138828277588
-2.28888821601868
21.3629570007324
30.1370277404785
33.8564720153809
40.2462844848633
47.017578125
53.5027618408203
59.5110931396484
61.323127746582
59.701831817627
61.6092376708984
69.5249786376953
70.1925735473633
69.3342361450195
82.4953460693359
86.1194152832031
71.1462707519531
69.6203460693359
78.4897918701172
75.0564575195313
74.198127746582
86.6916351318359
88.7897872924805
84.6888580322266
87.4546051025391
76.5823822021484
64.8518295288086
63.8981285095215
49.4018363952637
39.9601707458496
45.3962821960449
39.9601707458496
42.0583190917969
57.1268348693848
62.0860900878906
66.9499816894531
79.06201171875
84.9749755859375
84.8796005249023
88.1221923828125
98.6129302978516
106.528671264648
101.760154724121
97.9453353881836
104.335151672363
105.670333862305
106.051818847656
118.926811218262
119.785148620605
104.049041748047
94.2258987426758
84.7842330932617
76.5823822021484
79.2527542114258
93.0814514160156
103.381446838379
98.1360778808594
91.1740417480469
85.6425628662109
82.3046035766602
83.925895690918
77.345344543457
72.6721954345703
82.0184936523438
88.5036773681641
94.1305236816406
101.760154724121
94.2258987426758
86.3101577758789
88.0268249511719
82.1138610839844
77.0592346191406
74.5796051025391
67.4268264770508
62.2768325805664
67.6175689697266
80.0157165527344
78.012939453125
73.4351654052734
82.3999710083008
83.1629333496094
76.6777496337891
72.0046081542969
67.8083114624023
57.0314636230469
37.2898025512695
21.5536975860596
10.6814785003662
6.00833129882813
7.34351634979248
4.67314672470093
-2.47962880134583
-7.6296272277832
-2.8611102104187
-7.34351634979248
-29.7555465698242
-40.7231369018555
-34.810173034668
-27.5620288848877
-29.1833248138428
-35.382396697998
-38.7203598022461
-40.7231369018555
-34.0472106933594
-25.5592517852783
-18.2157344818115
-11.1583299636841
-19.8370304107666
-26.3222141265869
-21.6490669250488
-24.4148063659668
-29.4694347381592
-31.4722118377686
-41.3907279968262
-51.8814659118652
-46.8268356323242
-39.5786895751953
-40.4370231628418
-37.0036926269531
-31.6629524230957
-28.7064723968506
-21.3629570007324
-22.125919342041
-24.1286964416504
-12.7796258926392
-8.0111083984375
-10.2999963760376
-16.6898097991943
-33.0935096740723
-38.7203598022461
-34.3333206176758
-37.9573936462402
-31.7583236694336
-17.4527721405029
-22.8888816833496
-32.2351760864258
-30.5185089111328
-31.6629524230957
-35.0962867736816
-38.9110984802246
-34.6194343566895
-22.7935104370117
-27.2759170532227
-40.8185043334961
-43.9657249450684
-41.0092468261719
-38.9110984802246
-36.9083213806152
-44.6333198547363
-57.4129447937012
-57.2222023010254
-60.4647941589355
-63.5166473388672
-44.6333198547363
-28.9925842285156
-31.6629524230957
-45.300910949707
-60.8462753295898
-62.3722038269043
-56.6499824523926
-52.0722045898438
-39.4833221435547
-27.2759170532227
-22.8888816833496
-21.4583263397217
-21.4583263397217
-23.8425846099854
-30.6138782501221
-36.431468963623
-35.6685066223145
-30.2323970794678
-30.995361328125
-30.70924949646
-20.5046234130859
-14.7824029922485
-17.8342533111572
-30.8999900817871
-40.3416519165039
-34.6194343566895
-30.995361328125
-31.0907306671143
-30.3277683258057
-31.7583236694336
-30.3277683258057
-28.5157318115234
-32.8073959350586
-32.3305435180664
-18.5972156524658
-9.72777462005615
-7.15277528762817
-3.91018390655518
-5.53147983551025
-7.53425693511963
-14.0194396972656
-20.5999927520752
-13.1611070632935
-1.71666610240936
8.10647869110107
16.2129573822021
7.6296272277832
-4.7685170173645
-1.14444410800934
1.04907369613647
2.8611102104187
8.10647869110107
1.71666610240936
-7.82036781311035
-12.3981437683105
-9.15555286407471
0.858333051204681
8.20184898376465
12.6842555999756
3.05185079574585
-15.1638841629028
-10.204626083374
2.38425850868225
-2.09814739227295
1.23981440067291
10.0138854980469
1.9074068069458
1.43055510520935
4.00555419921875
-11.0629596710205
-13.9240694046021
-2.09814739227295
-6.19907188415527
-19.360179901123
-18.0249938964844
-11.9212923049927
-11.0629596710205
-9.72777462005615
-13.1611070632935
-20.0277709960938
-24.4148063659668
-24.7962875366211
-23.9379558563232
-23.8425846099854
-21.4583263397217
-15.9268465042114
-9.72777462005615
-3.24259161949158
-0.858333051204681
-4.1962947845459
-3.5287024974823
-1.81203651428223
-3.8148136138916
-4.7685170173645
-2.5749990940094
5.1499981880188
5.81759071350098
-9.537034034729
-18.2157344818115
-7.53425693511963
-2.00277709960938
-1.71666610240936
8.10647869110107
11.1583299636841
4.1962947845459
-0.9537034034729
-3.5287024974823
-3.147221326828
5.43610954284668
19.7416610717773
32.04443359375
34.0472106933594
31.3768424987793
30.3277683258057
19.1694374084473
-4.67314672470093
-47.3036880493164
-105.193481445313
-140.861999511719
-152.020324707031
-174.146240234375
-208.479568481445
-241.191589355469
-273.045288085938
-303.563781738281
-292.786956787109
-179.773086547852
8.77407169342041
227.839736938477
507.465576171875
804.448791503906
954.561706542969
962.286743164063
1071.00891113281
1230.18200683594
1213.4921875
1104.77001953125
914.410827636719
625.247924804688
356.780426025391
66.6638641357422
-193.983276367188
-311.098052978516
-362.884155273438
-411.332275390625
-446.619293212891
-459.494293212891
-453.295227050781
-440.038757324219
-415.910064697266
-397.980438232422
-397.980438232422
-400.173950195313
-403.893402099609
-402.653564453125
-394.928588867188
-380.909149169922
-350.676727294922
-317.678588867188
-286.492492675781
-257.786041259766
-240.047149658203
-228.793441772461
-222.785110473633
-216.109191894531
-206.667526245117
-198.179565429688
-188.0703125
-180.154571533203
-164.895324707031
-142.864776611328
-124.649032592773
-111.774040222168
-109.96199798584
-105.670333862305
-93.2721939086914
-85.9286727905273
-76.7731246948242
-61.4184989929199
-42.0583190917969
-28.1342506408691
-28.4203605651855
-20.3138828277588
0.190740674734116
9.9185152053833
4.38703584671021
-3.33796191215515
2.47962880134583
13.7333288192749
13.0657367706299
15.6407356262207
20.3138828277588
15.8314762115479
19.5509204864502
34.810173034668
49.4972076416016
55.887020111084
57.6990547180176
64.0888671875
67.8083114624023
63.9934997558594
64.4703521728516
70.6694183349609
62.8490524291992
46.8268356323242
49.3064651489258
59.701831817627
58.9388694763184
52.0722045898438
55.7916488647461
68.8573837280273
85.6425628662109
97.9453353881836
93.5583038330078
88.3129348754883
86.1194152832031
82.7814559936523
87.9314498901367
94.2258987426758
94.2258987426758
83.4490509033203
69.3342361450195
73.0536804199219
80.8740463256836
77.345344543457
74.8657150268555
75.4379425048828
76.1055297851563
74.3888626098633
64.8518295288086
60.5601654052734
62.9444236755371
62.4675712585449
65.9962768554688
70.8601608276367
65.0425720214844
60.6555366516113
58.7481307983398
43.5842437744141
34.9055442810059
43.1073951721191
51.5953521728516
61.1323890686035
61.6092376708984
51.0231323242188
50.9277610778809
50.9277610778809
42.2490615844727
42.0583190917969
49.0203552246094
55.887020111084
57.8897972106934
48.3527641296387
43.1073951721191
47.4944305419922
49.5925750732422
55.7916488647461
67.0453491210938
65.9962768554688
58.1759071350098
56.6499824523926
57.2222023010254
53.4073905944824
54.0749816894531
61.5138702392578
59.1296119689941
54.9333152770996
59.2249794006348
59.1296119689941
59.4157218933105
62.8490524291992
61.323127746582
61.8953514099121
61.4184989929199
51.0231323242188
44.251838684082
49.1157264709473
45.6823921203613
32.1398048400879
27.943510055542
25.3685111999512
17.1666603088379
16.9759197235107
20.8861045837402
20.0277709960938
10.4907369613647
-0.47685170173645
-0.9537034034729
-5.62685012817383
-16.7851791381836
-15.8314762115479
-10.7768487930298
-10.5861072540283
-13.7333288192749
-27.3712882995605
-37.099063873291
-34.6194343566895
-37.7666549682617
-40.1509132385254
-38.0527648925781
-43.1073951721191
-48.734245300293
-55.4101676940918
-63.3259048461914
-61.8953514099121
-57.9851684570313
-59.701831817627
-55.7916488647461
-43.4888763427734
-40.5323944091797
-52.2629470825195
-56.936092376709
-51.2138710021973
-43.7749862670898
-35.0962867736816
-33.5703582763672
-34.2379531860352
-30.2323970794678
-29.8509159088135
-30.995361328125
-34.5240631103516
-43.8703575134277
-42.9166526794434
-31.4722118377686
-26.7990646362305
-20.5046234130859
-12.588885307312
-14.2101802825928
-11.0629596710205
-9.82314491271973
-22.0305480957031
-18.0249938964844
-9.34629344940186
-19.2648086547852
-26.8944358825684
-33.8564720153809
-38.2435073852539
-29.9462871551514
-25.0823993682861
-28.8972129821777
-36.7175827026367
-44.8240585327148
-46.1592445373535
-43.2981338500977
-38.7203598022461
-37.0036926269531
-44.3472061157227
-48.1620216369629
-45.0148010253906
-43.3935050964355
-43.4888763427734
-45.300910949707
-41.5814666748047
-45.300910949707
-64.8518295288086
-69.1434936523438
-61.2277565002441
-63.4212760925293
-62.3722038269043
-53.5027618408203
-47.5897979736328
-42.5351715087891
-41.4860992431641
-49.2110939025879
-56.1731300354004
-54.8379440307617
-48.066650390625
-38.9110984802246
-31.6629524230957
-32.5212860107422
-29.6601753234863
-20.6953639984131
-11.9212923049927
0.286111027002335
-2.38425850868225
-16.8805503845215
-22.6027698516846
-25.9407329559326
-26.7990646362305
-22.7935104370117
-17.357400894165
-13.0657367706299
-15.0685138702393
-19.1694374084473
-17.0712909698486
-7.43888664245605
6.6759238243103
6.86666440963745
1.33518481254578
5.91296100616455
2.1935179233551
-1.71666610240936
4.10092449188232
5.1499981880188
7.6296272277832
12.1120328903198
7.15277528762817
7.72499752044678
20.5046234130859
24.5101776123047
22.125919342041
30.4231376647949
39.4833221435547
30.4231376647949
19.8370304107666
24.7962875366211
28.9925842285156
29.8509159088135
32.5212860107422
39.1018409729004
44.251838684082
38.9110984802246
27.4666576385498
13.9240694046021
14.1148099899292
28.7064723968506
27.5620288848877
14.8777732849121
13.7333288192749
17.2620315551758
17.5481433868408
14.8777732849121
10.6814785003662
12.8749961853027
12.4935140609741
4.95925760269165
7.15277528762817
11.3490705490112
3.91018390655518
-9.9185152053833
-26.7036952972412
-35.2870254516602
-32.8073959350586
-28.2296199798584
-20.409252166748
-6.86666440963745
10.2999963760376
16.1175880432129
5.81759071350098
-3.8148136138916
0.667592406272888
11.8259220123291
8.10647869110107
-0.667592406272888
-2.09814739227295
-4.29166507720947
5.81759071350098
15.2592544555664
7.6296272277832
7.0574049949646
14.687032699585
16.022216796875
4.86388731002808
-0.381481349468231
12.0166625976563
11.0629596710205
4.67314672470093
10.8722190856934
8.3925895690918
2.5749990940094
-1.14444410800934
-4.38703584671021
3.147221326828
13.5425882339478
6.6759238243103
-22.8888816833496
-74.198127746582
-125.411994934082
-153.355499267578
-176.244384765625
-205.809188842773
-240.237884521484
-278.958251953125
-307.092498779297
-318.060089111328
-273.4267578125
-126.937919616699
76.296272277832
306.615631103516
601.214599609375
868.633056640625
958.376525878906
989.085815429688
1150.83386230469
1257.171875
1170.76623535156
1025.89880371094
798.821960449219
507.847045898438
225.264739990234
-62.1814613342285
-247.676773071289
-312.242492675781
-365.077667236328
-415.814666748047
-434.507263183594
-436.033203125
-437.84521484375
-426.591522216797
-405.514678955078
-402.176727294922
-407.612823486328
-403.035064697266
-396.835998535156
-389.492462158203
-376.426727294922
-364.696166992188
-343.237854003906
-301.942504882813
-268.276763916016
-258.73974609375
-250.251770019531
-234.038818359375
-224.597152709961
-216.776779174805
-205.713821411133
-198.847152709961
-178.819381713867
-149.922180175781
-133.995330810547
-121.311073303223
-112.537002563477
-109.103668212891
-103.286079406738
-108.149963378906
-113.490707397461
-98.4221878051758
-78.2990493774414
-67.8083114624023
-60.5601654052734
-54.3610954284668
-45.1101722717285
-32.7120246887207
-28.9925842285156
-26.9898052215576
-12.302773475647
-0.762962698936462
1.33518481254578
10.7768487930298
23.2703628540039
25.9407329559326
33.3796195983887
47.7805404663086
48.3527641296387
42.2490615844727
36.1453590393066
37.5759124755859
49.9740562438965
50.4509086608887
52.2629470825195
65.137939453125
67.6175689697266
63.039794921875
49.4972076416016
35.1916542053223
38.7203598022461
43.3935050964355
43.2981338500977
53.2166481018066
66.3777542114258
66.7592391967773
59.6064605712891
67.3314590454102
80.6833038330078
76.4870147705078
69.5249786376953
70.6694183349609
67.5222015380859
65.805534362793
63.2305335998535
57.6036834716797
57.6036834716797
54.0749816894531
61.323127746582
70.9555358886719
56.4592399597168
49.3064651489258
57.7944259643555
59.6064605712891
60.5601654052734
67.8083114624023
73.6259002685547
81.4462738037109
93.8444137573242
100.138854980469
95.084228515625
81.7323837280273
69.5249786376953
65.4240493774414
64.2796096801758
63.6120147705078
70.0971984863281
72.7675704956055
68.6666412353516
77.8221969604492
85.0703430175781
79.3481216430664
79.729606628418
83.7351608276367
83.0675659179688
81.6370086669922
84.2120132446289
89.5527496337891
97.9453353881836
104.525894165039
101.283302307129
91.0786743164063
86.6916351318359
90.220344543457
83.2583084106445
66.9499816894531
58.7481307983398
59.6064605712891
61.2277565002441
59.3203506469727
60.1786842346191
64.3749771118164
69.2388687133789
68.2851638793945
56.8407211303711
48.5435028076172
44.4425773620605
38.0527648925781
36.9083213806152
32.2351760864258
20.0277709960938
21.6490669250488
24.9870281219482
3.62407302856445
-14.2101802825928
-12.9703664779663
-13.4472179412842
-15.8314762115479
-17.2620315551758
-17.738883972168
-15.35462474823
-22.6027698516846
-36.1453590393066
-37.1944313049316
-31.2814712524414
-32.4259147644043
-41.962947845459
-52.3583183288574
-54.4564628601074
-47.9712791442871
-35.9546165466309
-32.1398048400879
-35.1916542053223
-27.5620288848877
-30.5185089111328
-45.1101722717285
-44.3472061157227
-39.6740608215332
-33.3796195983887
-27.8481388092041
-36.0499877929688
-43.4888763427734
-46.1592445373535
-43.3935050964355
-30.6138782501221
-20.9814739227295
-20.2185115814209
-27.943510055542
-41.1999855041504
-45.9685020446777
-47.7805404663086
-55.7916488647461
-61.4184989929199
-64.3749771118164
-62.3722038269043
-50.4509086608887
-41.3907279968262
-48.6388740539551
-57.1268348693848
-60.5601654052734
-61.0370178222656
-51.8814659118652
-43.1073951721191
-42.8212814331055
-50.832389831543
-57.5083160400391
-60.3694267272949
-67.8083114624023
-65.0425720214844
-58.5573883056641
-52.7397994995117
-37.1944313049316
-28.2296199798584
-25.8453617095947
-14.687032699585
-8.29721927642822
-17.1666603088379
-21.1722145080566
-16.022216796875
-20.8861045837402
-31.6629524230957
-41.1046180725098
-49.1157264709473
-48.066650390625
-47.9712791442871
-54.9333152770996
-51.1185035705566
-45.4916534423828
-39.7694320678711
-27.4666576385498
-23.8425846099854
-21.839807510376
-20.5999927520752
-20.7907333374023
-20.5046234130859
-35.0962867736816
-42.7259140014648
-33.0935096740723
-33.4749908447266
-33.6657295227051
-25.8453617095947
-27.0851764678955
-29.6601753234863
-24.7962875366211
-18.0249938964844
-10.2999963760376
-5.7222204208374
-5.91296100616455
-7.6296272277832
-15.0685138702393
-21.3629570007324
-17.8342533111572
-16.30832862854
-21.4583263397217
-20.3138828277588
-20.1231422424316
-20.5046234130859
-7.43888664245605
6.48518323898315
12.302773475647
11.8259220123291
2.28888821601868
-10.0138854980469
-12.3981437683105
-6.77129411697388
-0.858333051204681
6.48518323898315
5.81759071350098
-6.38981294631958
-8.0111083984375
-4.29166507720947
-12.6842555999756
-15.2592544555664
-2.8611102104187
8.0111083984375
14.0194396972656
15.0685138702393
17.4527721405029
22.6981410980225
19.7416610717773
20.0277709960938
24.3194370269775
20.7907333374023
17.1666603088379
14.3055505752563
15.4499950408936
24.891658782959
27.7527694702148
26.4175834655762
35.382396697998
41.4860992431641
37.4805450439453
35.0962867736816
39.7694320678711
46.4453544616699
44.4425773620605
41.2953567504883
43.3935050964355
35.1916542053223
15.5453653335571
3.147221326828
10.0138854980469
24.4148063659668
26.0361022949219
23.6518440246582
22.2212886810303
11.3490705490112
2.38425850868225
1.71666610240936
-1.43055510520935
-11.635181427002
-8.86944198608398
-0.381481349468231
-12.302773475647
-20.2185115814209
-20.6953639984131
-27.5620288848877
-25.177770614624
-16.1175880432129
-9.06018257141113
-1.23981440067291
7.34351634979248
12.4935140609741
17.2620315551758
24.0333251953125
26.6083240509033
21.7444381713867
8.77407169342041
4.86388731002808
15.2592544555664
21.5536975860596
27.0851764678955
35.4777679443359
34.9055442810059
34.7148017883301
39.7694320678711
33.0935096740723
19.1694374084473
16.2129573822021
27.2759170532227
34.1425819396973
27.657398223877
17.8342533111572
10.5861072540283
7.72499752044678
9.44166374206543
7.24814605712891
-5.7222204208374
-28.7064723968506
-75.3425674438477
-132.755508422852
-165.944396972656
-190.073089599609
-220.210113525391
-246.723068237305
-274.952697753906
-312.0517578125
-336.085083007813
-283.249908447266
-129.226806640625
69.9064559936523
298.986022949219
585.001647949219
818.945129394531
875.404357910156
912.78955078125
1080.92749023438
1161.22924804688
1063.474609375
927.381164550781
696.966430664063
398.075805664063
139.145324707031
-92.6045989990234
-236.327697753906
-292.59619140625
-341.521179199219
-370.990631103516
-379.669311523438
-382.911926269531
-374.996185302734
-364.505432128906
-352.584136962891
-359.0693359375
-389.206359863281
-394.737823486328
-390.732269287109
-399.601715087891
-371.562835693359
-323.019348144531
-291.070281982422
-253.589736938477
-213.915664672852
-198.274932861328
-204.760116577148
-205.618453979492
-192.075866699219
-183.301788330078
-177.674942016602
-164.51383972168
-156.311981201172
-140.766616821289
-112.441627502441
-99.7573776245117
-102.141632080078
-106.719413757324
-111.011077880859
-109.199035644531
-101.950889587402
-93.367561340332
-84.1166381835938
-68.1897964477539
-53.3120193481445
-46.5407257080078
-37.1944313049316
-28.9925842285156
-31.7583236694336
-39.4833221435547
-39.0064697265625
-25.0823993682861
-10.9675893783569
-11.3490705490112
-7.34351634979248
11.8259220123291
16.9759197235107
14.4009208679199
24.5101776123047
24.0333251953125
11.7305517196655
12.3981437683105
22.8888816833496
42.7259140014648
61.0370178222656
58.9388694763184
56.3638725280762
62.7536849975586
60.9416465759277
53.3120193481445
49.4018363952637
49.1157264709473
48.9249839782715
45.9685020446777
44.5379486083984
45.7777633666992
47.2083168029785
56.6499824523926
65.5194244384766
65.6147918701172
69.8110885620117
77.345344543457
76.9638671875
73.7212753295898
78.7759017944336
89.2666397094727
91.4601593017578
88.5036773681641
85.7379379272461
75.9147872924805
72.4814605712891
79.5388641357422
76.9638671875
70.2879409790039
59.5110931396484
38.2435073852539
27.4666576385498
22.9842510223389
17.8342533111572
25.4638805389404
36.6222114562988
39.197208404541
32.7120246887207
29.5648059844971
35.0009155273438
37.3851737976074
39.2925796508789
43.5842437744141
52.5490570068359
69.1434936523438
72.8629379272461
58.8434982299805
49.3064651489258
40.6277656555176
33.6657295227051
43.1073951721191
54.8379440307617
60.1786842346191
62.3722038269043
62.8490524291992
70.0018310546875
72.8629379272461
68.4759063720703
63.8027572631836
47.3036880493164
40.0555419921875
51.9768333435059
53.3120193481445
54.0749816894531
54.9333152770996
45.6823921203613
46.3499870300293
48.066650390625
46.1592445373535
40.913875579834
23.7472152709961
21.1722145080566
33.2842483520508
27.3712882995605
19.4555492401123
19.1694374084473
13.1611070632935
8.77407169342041
2.76573991775513
3.91018390655518
12.1120328903198
7.34351634979248
4.00555419921875
7.53425693511963
14.7824029922485
29.1833248138428
32.4259147644043
25.8453617095947
20.7907333374023
14.5916624069214
11.0629596710205
13.0657367706299
16.7851791381836
16.2129573822021
9.82314491271973
8.77407169342041
10.3953666687012
9.34629344940186
10.2999963760376
3.8148136138916
-6.77129411697388
-6.77129411697388
-1.33518481254578
0
-2.5749990940094
-2.09814739227295
3.91018390655518
7.43888664245605
8.20184898376465
-1.33518481254578
-26.7990646362305
-40.7231369018555
-37.4805450439453
-38.3388748168945
-40.8185043334961
-35.0009155273438
-23.5564746856689
-14.4009208679199
-10.204626083374
-11.7305517196655
-22.2212886810303
-28.1342506408691
-28.1342506408691
-33.6657295227051
-31.9490642547607
-27.5620288848877
-37.5759124755859
-43.3935050964355
-32.6166572570801
-17.9296245574951
-7.53425693511963
-4.29166507720947
-10.6814785003662
-18.2157344818115
-18.2157344818115
-18.6925868988037
-28.8018417358398
-36.3360977172852
-35.9546165466309
-37.4805450439453
-36.5268402099609
