Value(bpm)
98.7781350482315
98.8825430482307
98.9843665521499
99.0807779868256
99.1689291789745
99.2459552235933
99.3089800190395
99.3551234808599
99.381510430999
99.3852811394956
99.3636034723133
99.3136865718244
99.2327959661153
99.1182699703207
98.9675372084113
98.7781350482315
98.5498299033007
98.2908496013411
98.0114038503289
97.7215139265741
97.430982772553
97.1493854748422
96.8860789809348
96.6502299259478
96.4508596042317
96.296905321951
96.1937403421333
96.1338939604446
96.1071182600937
96.1032722554966
96.1122627928015
96.1240069651764
96.1284157516651
96.1153988268693
96.0748905396777
95.9968969896187
95.8739255684756
95.7072479681019
95.5001860079663
95.256117128755
94.9784483590588
94.6705924840133
94.3359465858319
93.9778730610585
93.5996831605596
93.2046230467316
92.7957829205989
92.3754090115562
91.9452633527759
91.5070540728295
91.0624376157015
90.6130168378677
90.1603397370401
89.705898766281
89.2511306865296
88.7974169107994
88.3460842942635
87.8987222836537
87.4588684653092
87.0307083401015
86.618267149394
86.2254228699196
85.8559244126535
85.5134127192634
85.2014445550648
84.9235188826736
84.6831057924046
84.4836780643996
84.3286579140353
84.2192038162838
84.1540687730695
84.1320268958494
84.1519892060244
84.2129927727573
84.3141910479321
84.4548452479127
84.634316651821
84.8520597029569
85.1076158142455
85.4005909705067
85.7278034573886
86.0799323951709
86.4466042691551
86.8171023122339
87.1803399085374
87.5248612705144
87.8388718329095
88.1103006714469
88.3268967624522
88.4763600127691
88.5467195280896
88.5359556248723
88.4558374580138
88.3193949691366
88.1397517718111
87.9299793815413
87.7029904939295
87.4714712541903
87.2478513905147
87.0443104983873
86.8728186350479
86.7451059136575
86.6656125610958
86.6270064840622
86.6210097505827
86.6394365484144
86.6741392508356
86.7169700804363
86.7597581213793
86.7943016734865
86.8123760627306
86.8057570220859
86.7663033521746
86.6912477011226
86.5881560971117
86.4657613665867
86.3327343977696
86.1976545482869
86.068997410947
85.9551394600048
85.8643790709525
85.8049735143061
85.7851917614886
85.8133827329311
85.8952431571887
86.0273189968314
86.2043447709961
86.4211163052523
86.6724377394175
86.9530748592742
87.2577144800165
87.5809298347694
87.9171521176441
88.2606484991409
88.6055156884444
88.947131017156
89.2838594222042
89.6144214680711
89.9375050891789
90.2517672267183
90.5558358939795
90.8483126894152
91.1277757739932
91.3927833260614
91.6418774829354
91.8736500707503
92.0872233603296
92.2820053940531
92.4574225374202
92.6129193140718
92.7479605055145
92.8620332446562
92.9546490905298
93.0253460711238
93.0736906808942
93.0992953694579
93.1022942888017
93.0834306897968
93.0435111263931
92.9833687387949
92.903859622048
92.805859272469
92.6902591336548
92.5579632614676
92.4098851249998
92.2469445648051
92.0703042616535
91.8819920091723
91.6842110468348
91.4791353263209
91.2689057773803
91.0556276268196
90.8413687321951
90.628158887892
90.4179900593799
90.2128175013896
90.014528397403
89.8234756041091
89.6379314443728
89.4560458710097
89.2759993730369
89.0960017120063
88.9142913958383
88.729135859482
88.5388323222744
88.3417092912786
88.1361286782463
87.9205837253236
87.6961405613507
87.4665881716879
87.2357777517792
87.0074811077367
86.7853917032488
86.5731288681091
86.374245002016
86.1922356289918
86.0305521890366
85.8926174937312
85.7818197233133
85.699379757302
85.6426838371994
85.6087803611065
85.5947664872302
85.5977737054098
85.6149554774911
85.6434768544432
85.6805060104527
85.7232076607031
85.7687383505392
85.8142441001282
85.8576211348395
85.8990660735267
85.9392120607883
85.9786947895706
86.0181523587429
86.0582252247869
86.099556248542
86.1427908379437
86.1885771877577
86.2375666174315
86.2904140083729
86.3475769863187
86.4086308666076
86.4729060514389
86.5397297129582
86.6084253413407
86.6783123897851
86.7487060246138
86.8189169821243
86.8882515339763
86.9560115629617
87.0214947509963
87.0842336405043
87.1449126680773
87.2045687433759
87.2642447056097
87.3249891430862
87.387856534219
87.4539076430647
87.5242101733838
87.599839685766
87.6818807831823
87.7714285714286
87.8696316449422
87.9778186620653
88.0973786634563
88.2297233739221
88.3762910602496
88.5385509070655
88.7180079451788
88.9162085736753
89.1347467249229
89.3752707307812
89.6394731776568
89.9274963780522
90.2366071259637
90.5637177943279
90.9056667194575
91.2592054948289
91.620988313425
91.9875635122965
92.3553675049354
92.7207213129736
93.0798299275348
93.4290199903451
93.7655580394344
94.0869341443929
94.3905891286506
94.6739227168817
94.9343032051096
95.1690786641616
95.3755896713405
95.5511835379053
95.6932299693149
95.7997169861445
95.87149206472
95.9103298266108
95.9180817614528
95.896663583858
95.8480431872184
95.7742291439485
95.6772598549578
95.5591934331862
95.4220983884797
95.2684127561512
95.102702841791
94.9302562786969
94.7562912793953
94.5859513511733
94.4243067593349
94.2763614552599
94.1470652817581
94.0413313120836
93.9640582451925
93.9194222567276
93.9027650441287
93.9035999842094
93.9113636917669
93.9154943565232
93.9054280365157
93.8706187065435
93.8005819606515
93.6849619677146
93.513620762869
93.2769729852077
92.9759967210459
92.6258567830941
92.2424963818205
91.8414558564177
91.4377926249935
91.0460531866782
90.6802930656861
90.3541405922731
90.0809010229955
89.8736986218453
89.7444082731779
89.6916793335878
89.7063542185031
89.7794792917881
89.9022962643413
90.0661355814428
90.2623275337025
90.4821301383512
90.7166734986494
90.9569208727598
91.1936516506517
91.4192979741528
91.6308281900682
91.8258988379238
92.0021454870782
92.1571914230297
92.2886575877302
92.3941737491903
92.4713908532446
92.5179944856594
92.5317193462162
92.5108212860355
92.4572161529624
92.374571764241
92.2665997362812
92.1370239042081
91.9895617038462
91.827908568085
91.6557253617674
91.4766288320488
91.2941850144569
91.1119025442791
90.9328774421801
90.7594662588571
90.5939116301035
90.4384261499991
90.2951969432286
90.16639126319
90.0541630976726
89.9606607763943
89.8880355891183
89.8384514395216
89.8138893920792
89.8127710924887
89.83050230906
89.8624125086463
89.903834718879
89.9500931930278
89.9964959219305
90.0383320155224
90.0708739986482
90.089385066605
90.0891313248666
90.0670737552078
90.0290874396178
89.9839808105587
89.9405368271648
89.9075058199481
89.8936172659288
89.9076085301274
89.958270629888
90.054511383572
90.2054367553086
90.4203658654046
90.7012062777745
91.0361119571728
91.4116219183241
91.813941244366
92.2288330186152
92.6415513736648
93.0368193070387
93.398855565339
93.7114549308823
93.9581266623766
94.1277868607022
94.2278297519757
94.2698424502025
94.2657012433571
94.2274402321954
94.1671490089302
94.0969008079254
94.0287116324811
93.9745302565735
93.9462587274739
93.953959166485
93.9958936660196
94.0656859734292
94.1569678922901
94.2633573441906
94.3784333322455
94.4957195266786
94.6086766039572
94.7107035407876
94.7951480835008
94.855871593544
94.8920110803001
94.9056982457676
94.8991340113054
94.8745459874035
94.834179502971
94.7802896365901
94.71513428925
94.640968323414
94.5600387805748
94.4745484075541
94.3861157904527
94.2958648887216
94.2048961473276
94.1143016678508
94.0251651883655
93.9385623141128
93.8555609940336
93.7772222385881
93.7046010748762
93.6387499811057
93.580875219988
93.5324379968493
93.4949223620443
93.4698145254086
93.458606587274
93.4628007560665
93.4839140686606
93.523483635792
93.5830724417759
93.6642755167439
93.7676501938894
93.8902055353374
94.0281999401081
94.177864612569
94.335392441961
94.4969298648002
94.6585717866308
94.8163596627333
94.9662828501265
95.104283344883
95.2269711136474
95.3340483898926
95.4260872292719
95.5036794044866
95.5674345000074
95.6179780649448
95.655949810613
95.682001862165
95.6967970727954
95.7010074081309
95.6953933980615
95.6811124104758
95.659443303282
95.6316665009998
95.5990621692416
95.5629087559534
95.5244818760785
95.4850535388642
95.4458917159705
95.4082602478747
95.3730349147756
95.3388473331806
95.3035223556086
95.2648902372738
95.2207887621666
95.1690652286018
95.1075794032789
95.0342074273798
94.946846651799
94.8434213704835
94.7222143541449
94.5843653398114
94.4324675656726
94.2691083713027
94.0968503553805
93.9182260457442
93.7357339869706
93.5518362062045
93.3689570110207
93.1894830692973
93.01577670861
92.8505422118699
92.6968896653772
92.5579195753842
92.436706334643
92.3363092594195
92.2597856165672
92.2102056690004
92.1906698073512
92.2043278812541
92.254400832967
92.3419212289652
92.4596782069722
92.5985520432372
92.7493507125288
92.9027765636166
93.0494112704321
93.1797196212552
93.2840727587938
93.3527913708289
93.3762090458157
93.3460142024857
93.2650184621434
93.1418019720298
92.9850337479227
92.8033554853585
92.6053281948054
92.3993950312151
92.1938599870807
91.9968818964303
91.8164830977737
91.6605304232841
91.5330486936161
91.4313648106491
91.3521832057019
91.2922668256799
91.2484224011317
91.2174881192937
91.1963235952077
91.1818020671983
91.170804769116
91.1602174512459
91.1470709681942
91.1296347484391
91.106817328292
91.0775363600299
91.0407147616357
90.9952823749957
90.9401778684103
90.8743508758434
90.7967643633878
90.7063972112852
90.6022498187046
90.4844731853301
90.3560725485204
90.2204694547382
90.0810499275312
89.9411604917987
89.8041067342524
89.6731543232787
89.5515324111854
89.4424393490077
89.3490506582516
89.2744706769962
89.2196122378662
89.182610425581
89.1614469755731
89.1541257688595
89.1586661995064
89.1730974662269
89.1954537602009
89.2237703310857
89.2560804213382
89.290413065462
89.3248682821592
89.3584651047796
89.3908335473211
89.4216136625484
89.4504446642926
89.4769650690079
89.5008128667207
89.5216257214322
89.5390412009759
89.5526970362604
89.5622314097396
89.5676314623634
89.5705662558671
89.5732124533319
89.5777474750241
89.5863497843984
89.6012003368957
89.6244850916303
89.6583985932764
89.7051486377151
89.7669620435191
89.8460741012892
89.9426366104098
90.0526999812071
90.1718152298781
90.2954932698791
90.4191979643526
90.5383436614905
90.648297337399
90.7443854722812
90.8219057669677
90.8761437670975
90.9029305804665
90.9039169729527
90.8843274752692
90.8494611712434
90.8046205073995
90.7550965940018
90.7061606952995
90.6630618755125
90.6310307406147
90.6152892194178
90.621065061739
90.6515566395781
90.7037715381034
90.7735607680286
90.8567735514603
90.9492430313804
91.0467757605862
91.1451449995298
91.2400878859553
91.3273065580212
91.4024733162241
91.461505798418
91.5043979022008
91.5343577245239
91.5547002247657
91.5687539948779
91.5798554776149
91.5913456012759
91.6065688462474
91.6288747520638
91.6616218745967
91.708181553062
91.7700195531648
91.8432831120902
91.9231892866319
92.0049263544543
92.083649309115
92.1544804183884
92.212514934624
92.2528320321657
92.2705110098897
92.2606527363084
92.2190660213274
92.1480076165509
92.053346467768
91.9409862862426
91.8167997691139
91.6866099965156
91.5561793547686
91.4312058243968
91.3173264333274
91.220127675874
91.1451521710302
91.0952946349613
91.067381164404
91.0574224714331
91.0614574431229
91.0755392440947
91.0957248903437
91.1180682506281
91.1386164634808
91.1534097771664
91.1584848267226
91.1501549516879
91.1280482784187
91.0939947509556
91.0498685400596
90.9975442060955
90.9388929604746
90.8757797014656
90.8100608230567
90.7435827911248
90.6781814780773
90.6156821418053
90.5573925989215
90.5029318385034
90.451573392696
90.402594793471
90.3552771314798
90.3089047311746
90.262764940663
90.2161480349406
90.1683472312533
90.11865881537
90.0664017371726
90.0116231544562
89.9552953014498
89.8984460410278
89.8420981253291
89.7872692012661
89.7349720471714
89.6862150376789
89.6420028342757
89.603337299512
89.5712186336165
89.5466871272503
89.5312199150597
89.5265627930746
89.534471673909
89.5567133800063
89.5950709494246
89.65134968524
89.7273839849517
89.8250449974306
89.9462491678207
90.0929677022289
90.2656715853044
90.459153635842
90.6668384702059
90.8820450572506
91.0979699383284
91.3076803297963
91.5041175931389
91.6801115727104
91.8284062473898
91.9416970145934
92.0130378667655
92.041041444512
92.0287380896645
91.9793809408532
91.8963041484959
91.7828974907402
91.642583131879
91.4787947344326
91.2949590697329
91.0944802115943
90.8807263560711
90.657425895591
90.4297183029317
90.2029784631599
89.9824748465941
89.773374351873
89.5807530836031
89.4096127917848
89.2649027675183
89.151547081572
89.0744771683705
89.0386335706145
89.0446496540621
89.0847293437198
89.1501566861914
89.232219145121
89.322166355082
89.4111858996058
89.4903963037132
89.550857561023
89.5835995015631
89.5796681442066
89.5306323285121
89.4370248553277
89.3076020789422
89.1514240400616
88.9774875950409
88.7946823164515
88.6117646236969
88.4373495960348
88.2799197824266
88.1478503296054
88.0494498912941
87.9924886778656
87.97762792598
88.0004764337949
88.0566245958842
88.1417229341121
88.2514510673366
88.3814911028706
88.5275052786994
88.685117787346
88.849900796391
89.0173647478214
89.183260264375
89.3452583915947
89.5017856669104
89.6512507301045
89.7920444956504
89.9225428609494
90.0411100181129
90.1461023761094
90.2358730946418
90.3087772247205
90.3631853843463
90.3988247191192
90.418288723456
90.4245570364537
90.4206244580015
90.4094932003144
90.3941671136537
90.3776479034617
90.3629333428331
90.3530174764747
90.3508928101009
90.3594115381268
90.3792406308833
90.4093385331708
90.4486225145079
90.4960121031352
90.5504270047192
90.6107852795327
90.6760017761428
90.7449868213497
90.8166451675642
90.8898751989264
90.9635291985568
91.0363090117282
91.1068756012301
91.1738818829746
91.2359735625614
91.2917903764028
91.3399677415549
91.379138816608
91.4079369736675
91.4249986786238
91.4290923152184
91.4214998367723
91.4058187858473
91.3857337812606
91.3649252533844
91.3470673819949
91.3358289941165
91.3348774108743
91.3478852403787
91.3785401316285
91.4305574814741
91.5058628627678
91.599735665734
91.7059161477201
91.8180999616382
91.9299253801619
92.0349692155135
92.12675164385
92.1987501418374
92.2444226883535
92.2572402745907
92.2312322669011
92.167357999393
92.0715770447453
91.9499835678747
91.8086597128059
91.6536459230057
91.4909193698535
91.3263803766867
91.1658466302895
91.0150549203633
90.8796698359174
90.7638199375042
90.6667107995336
90.5865639760085
90.52163332955
90.4701988765024
90.4305613614547
90.4010375244296
90.3799560322654
90.3656540527521
90.3564744559985
90.3507807280215
90.3474762941289
90.3460987882079
90.3462225220468
90.3474219847411
90.3492717213181
90.3513462514512
90.3532200282462
90.3544674371073
90.3546628346956
90.3533806279894
90.3504155931272
90.3471262451094
90.3455473298087
90.3477161464463
90.3556710722275
90.3714537136088
90.3971119824025
90.4347041062181
90.4863035895032
90.5540051500758
90.6399217243232
90.7445187427748
90.8647138093626
90.9969528771684
91.1376512776733
91.2831854403751
91.4298874149446
91.5740422761644
91.7118885059622
91.8396214511563
91.9533999494728
92.0498751830736
92.1297704034588
92.1957637577907
92.2505749552558
92.2969464938468
92.3376378308263
92.3754211692979
92.4130788897817
92.4534026472237
92.4991941495215
92.5531867721469
92.6150955627154
92.6807547833371
92.7457234110097
92.805535787304
92.8557043962657
92.8917269799607
92.9090980271198
92.9033246325769
92.8699466696424
92.8045616892789
92.7055201614255
92.5800859010311
92.4373233784069
92.2862149974527
92.1356366140282
91.9943504362064
91.8710147719082
91.774210102584
91.7124811060818
91.69439452154
91.7280002849473
91.8121110643135
91.9383089163106
92.0980165127622
92.2826217175295
92.483421924266
92.6915843342398
92.8981225741636
93.0938903099518
93.2695926380283
93.4158763395375
93.5275567406142
93.6064285200798
93.6550172206006
93.6759217490767
93.6717981786811
93.645344767872
93.5992883372403
93.5363721120956
93.4593451081448
93.3709531049839
93.2737473259916
93.1695957786256
93.0602020761988
92.9472563564037
92.8324337365518
92.717393385642
92.6037781992098
92.4932150620367
92.3873156838187
92.2876779937739
92.195814796087
92.1122369232834
92.0367409636961
91.9691131801839
91.9091450156874
91.8566327536995
91.8113771939214
91.7731833421725
91.7418601136918
91.7172200490324
91.6990794699207
91.6874295118798
91.6826976600028
91.685381618258
91.6959826508317
91.7150064200837
91.7429638855327
91.7803722665354
91.8277560717742
91.8856481991636
91.9545911103243
92.0349046394309
92.1246560323566
92.2206322702214
92.3195827831757
92.4182300963929
92.5132688115312
92.6013669365417
92.6791696137281
92.743305288496
92.7903943463404
92.8170957478397
92.8216943412288
92.8047364800791
92.7669625440542
92.7091392166516
92.6320561679028
92.5365227925289
92.4233650235935
92.2934222397557
92.1475442822193
91.9865885954418
91.8121801672094
91.6296004530714
91.4451558977768
91.2650543033877
91.0954067451451
90.9422379467943
90.8115045833489
90.7091212880471
90.6409942640336
90.6130625659644
90.6312464664885
90.6959757618146
90.7993188522952
90.9326779976555
91.0874250740736
91.2548520836202
91.4261379371118
91.5923318869096
91.7443541902926
91.8730146526006
91.9690496232296
92.0253376284203
92.0462809191525
92.0401672704207
92.0153414182262
91.98016121866
91.9429712841923
91.9120917868283
91.8958223629687
91.902461027066
91.9403380878282
92.0176088009305
92.135690241162
92.2886279357741
92.4700976634492
92.6737337711881
92.8930933328718
93.1216289120608
93.3526701729475
93.5794147206041
93.7949286377148
93.9921777411639
94.1665215302314
94.3181398283083
94.4478101598609
94.5563519937002
94.6446228414228
94.7135143741682
94.763948589405
94.7968740571251
94.8132622723122
94.8141042244042
94.8004696412954
94.7736140702882
94.734831641671
94.6854219830598
94.6266871474002
94.5599288937084
94.4864463258643
94.4075338918529
94.3244797433402
94.2385644533906
94.1509751875482
94.0624816151955
93.9737247382674
93.8853407434232
93.7979610457899
93.7122123927144
93.6287170510781
93.5480930766079
93.4709546637526
93.3979125748709
93.3295171097131
93.265622674773
93.2056260450554
93.1489198758701
93.0949005136918
93.0429676061185
92.9925237910804
92.9429744641108
92.8937276226374
92.8441937863635
92.7938053780114
92.7433544909419
92.6958518560879
92.6545020319485
92.6224999311519
92.6030361844756
92.5993047006213
92.6145124356035
92.6518914107867
92.714713050473
92.8063049489765
92.9281666353691
93.0734796983734
93.2330707423983
93.3976590471801
93.5578369020427
93.7040685143389
93.826708213287
93.9160385369877
93.9623285505938
93.9559123275273
93.8888220742159
93.7666760413944
93.6020801206109
93.4076645362397
93.1959309309859
92.9791906435064
92.7695364183512
92.5788462330219
92.4188178018089
92.3010325329262
92.2368988179891
92.2295951819074
92.2699341201513
92.3478223620553
92.4532084382087
92.5760113864617
92.7060713247147
92.833121991973
92.9467857142695
93.036591404569
93.0920162399381
93.1058844393549
93.0832462004464
93.031995476569
92.9600553477816
92.8753362152372
92.7857074857272
92.6989827178649
92.6229180479456
92.5652236557529
92.5335880659577
92.5351509962009
92.5702965622981
92.6349532520295
92.7250071898586
92.8363586026315
92.9649009059756
93.1065034038697
93.2569975797371
93.4121670155805
93.5677410207152
93.7194385022647
93.8646685264155
94.0030469912989
94.1343349288222
94.2582943786588
94.3746887229596
94.4832830310667
94.5838444136232
94.6761423854054
94.7599492361406
94.8350413320315
94.9012823160545
94.9586896693676
95.0073015155901
95.0471611464939
95.0783169299752
95.1008222113942
95.1147352085839
95.1201189008421
95.1170409122352
95.1055732101249
95.0857473137889
95.0574955436442
95.0207402773002
94.9754086976424
94.9214329322803
94.8587501872924
94.7873028748605
94.7070387343967
94.6179109467799
94.519878260397
94.4135887003035
94.3021735193092
94.1893014217255
94.0786068679897
93.9736904482428
93.8781220235508
93.7954465727485
93.7291926975022
93.6828837611717
93.6600516682826
93.6638558931141
93.6943760561409
93.7502609581598
93.8301867901402
93.932858747047
94.0570043949171
94.201367469461
94.3647020686843
94.5457672092804
94.7433217231666
94.9559782731114
95.1806241513273
95.4129539244327
95.6485607239784
95.8829508508002
96.1115422846788
96.3296675168253
96.5325809188587
96.715470843031
96.8734766098983
97.0022515288427
97.1021716657378
97.1761031816694
97.2269957752563
97.2578477187437
97.2716925231177
97.2715873618083
97.2606033365933
97.2418176416571
97.2183076586789
97.1925975622698
97.1640001441232
97.1306703912452
97.0907678583853
97.0424604104702
96.9839270478068
96.9133614035385
96.8289758951956
96.7290065062763
96.6117181669824
96.4757984288198
96.3218367384263
96.1509972643812
95.9644480689768
95.7633572479336
95.5488894654457
95.3222027769162
95.0844457436639
94.8367548408769
94.5802521573887
94.3159863596175
94.0445440943253
93.7662952583588
93.4816051249499
93.1908351695964
92.8943426675734
92.5924803216196
92.2855959194106
91.9740320203315
91.6581256709599
91.3382412211247
91.0177094589713
90.7050358473988
90.4090357431167
90.138304513341
89.9012596256094
89.7061980174964
89.5613683057359
89.475057906465
89.4556957634596
89.5119721343456
89.6523218583593
89.8742353316653
90.1657739993661
90.5147195674984
90.9087019989643
91.3350519667152
91.7806857414238
92.2320243962892
92.6749504255904
93.0948056972421
93.4764958620487
93.8100725215837
94.0954106093871
94.3335860197792
94.5258556530967
94.6736435340761
94.7785260496584
94.8422165629428
94.8665496543969
94.8534652306038
94.8049957657831
94.7244654559553
94.6183140963938
94.4934496330346
94.3567369422555
94.2149759536811
94.0748897644642
93.9431225015963
93.8262466478222
93.730779563492
93.6632090081653
93.6286787432913
93.6252223656213
93.6485722682868
93.6945021862533
93.7588063309275
93.8372809082242
93.9257094224566
94.0198517369673
94.1154369109306
94.2081598661734
94.2937920635874
94.3691435291539
94.4316087197248
94.4785844257658
94.5074709454483
94.5156812663039
94.5006516316811
94.4598534319089
94.3908063349348
94.2910925438742
94.1587127616525
93.998529309224
93.8216150930478
93.6391389825559
93.462105320554
93.3013544885823
93.167588824221
93.0714230408796
93.0234586743002
93.0343826827905
93.1150501101896
93.26971637273
93.4882262371721
93.7586223301816
94.0688598507797
94.4066845447976
94.7595408980785
95.1145117806803
95.4582916407534
95.7771958711446
96.0572410519706
96.2896260120884
96.4770426878215
96.6238378422655
96.734527061242
96.8137584606679
96.8662799750026
96.8969107064902
96.9105166948941
96.911991360459
96.9062238564871
96.8969201320447
96.8858413741827
96.8745674403968
96.8646767847893
96.8577466519421
96.8553537845787
96.8590756446108
96.8704921484835
96.8911879197566
96.922739479048
96.9661494538587
97.0216843278375
97.0895718536484
97.1700502288274
97.2633686763811
97.3697880587491
97.489581527764
97.6230352134653
97.7704489548597
97.932056006184
98.1068557193366
98.2928626017648
98.4880419547083
98.6903313212725
98.8976368674728
99.1078306062336
99.3187484985029
99.5281894701502
99.7339153862668
99.9343519408418
100.130988582795
100.326190974004
100.522362595984
100.721944803764
100.927418078676
101.141304506323
101.366171533647
101.604637066005
101.859184041493
102.128507431951
102.407717850733
102.69168956028
102.975183534091
103.252844496345
103.519203435383
103.768685900189
103.995626368045
104.194329323134
104.361897112544
104.50011879205
104.611290287621
104.697773258585
104.761983276202
104.806378898285
104.833451738357
104.845717608379
104.845705958915
104.834818121354
104.811589049558
104.774118246529
104.720521320305
104.648935460376
104.557525533342
104.44449075886
104.308071917838
104.146559035222
103.959303193441
103.750529950267
103.525878387559
103.29091198025
103.05110482368
102.811834170771
102.578378735323
102.355922498027
102.149563758585
101.963924137478
101.795523989873
101.633548094733
101.467049232891
101.285224762028
101.077437083349
100.833256356872
100.54252427433
100.195437249595
99.7826467860676
99.2993870972615
98.7624679714117
98.195130113442
97.6197023194752
97.057523240795
96.5289659548293
96.0535498522279
95.6501302661181
95.3371590468994
95.1330131738471
95.0525243781063
95.0838047946097
95.2038549657092
95.3899894074237
95.6195113117982
95.8694482818386
96.1163959135433
96.3364726725091
96.5053915949015
96.5986540991337
96.5959845212715
96.5015964376957
96.328860206104
96.0913988231266
95.802877722991
95.4768445219573
95.1266079974452
94.7651559423109
94.4051103571969
94.0587177329008
93.73720524023
93.4435159543862
93.1752789454745
92.9301186626183
92.7057392511964
92.4999138545819
92.3104752398035
92.1353076384981
91.9723397131721
91.819538574445
91.6749057720748
91.5367175609812
91.403838820891
91.2752286336488
91.1498588327149
91.0267131239315
90.9047864415866
90.7830845327404
90.6606237633184
90.5364311397854
90.40954454033
90.2792041612894
90.1479800674944
90.0212252530039
89.9043225481374
89.8026032625949
89.7213622577428
89.6658792142656
89.6414460844198
89.6534008392614
89.707167774124
89.8083048234601
89.960809267921
90.1586366355965
90.3920473394789
90.6511885710702
90.9260303583458
91.2063176904758
91.4815447844408
91.7409528444635
91.9735528140101
92.1681745342091
92.3138421416923
92.4075933235628
92.4553149712462
92.463506136769
92.4387841570498
92.387832833176
92.3173597934593
92.2340634314777
92.1446095819223
92.0556179258851
91.973657959375
91.9036061246176
91.8443196079196
91.7933060635523
91.7480895758727
91.7062068563094
91.6652047818397
91.6226392566678
91.5760753829041
91.5230889271617
91.4612690681898
91.3883997027246
91.3058159775892
91.2180977133256
91.129914133812
91.0458990893368
90.9706530151374
90.9087495474738
90.8647467266728
90.8432027544713
90.8486963299911
90.8858516650535
90.9574747631752
91.058125117998
91.1800811845139
91.3155757566424
91.4567659405707
91.5957162745051
91.7243954012013
91.834686711269
91.9184133502656
91.9673778521288
91.9738336505922
91.938449974758
91.8696618823084
91.7762262016475
91.6668799661104
91.5503021213229
91.435091883335
91.3297634641304
91.2427567757177
91.1824637466026
91.1572700296736
91.1726325742807
91.2221825394692
91.2966230492495
91.3866489350382
91.4829052409754
91.5759646987704
91.6563244411443
91.714422335133
91.7406732606263
91.7255254302293
91.6599768097752
91.5439856088927
91.3857248033811
91.1936905529236
90.9763299452599
90.7419876006455
90.4988681153181
90.2550139202942
90.0182979086268
89.7964300794553
89.5969774513418
89.4264407027608
89.2844994260398
89.1679686504588
89.0737298816088
88.9987263509474
88.9399488448953
88.8944237560329
88.8592032451942
88.8313574346381
88.8079685774749
88.7861271676301
88.7636650308536
88.7413571494247
88.7207113099193
88.7032326167703
88.6904243132781
88.6837891118142
88.6848310331576
88.6950577571604
88.7159834899301
88.7491323564512
88.7960386303157
88.8573280366129
88.9314976696045
89.0167437394937
89.111257541819
89.2132212545696
89.3208044601109
89.4321613984032
89.5454289634036
89.6587254587151
89.7701501314667
89.8777881105128
89.9798131622824
90.0744907896402
90.1600798971724
90.2348313152565
90.296991606161
90.3448075571537
90.3765313533555
90.3904264152539
90.3847738769447
90.357879671396
90.3086570115959
90.2394075485875
90.1536587282517
90.0549342474643
89.9467409912828
89.8325604215699
89.7158427144192
89.6000035980812
89.4884238287263
89.384451235756
89.2914036136125
89.2113778514253
89.1431566167134
89.0849738291506
89.0350800480004
88.9917388757438
88.9532240623513
88.9178172944638
88.883806657958
88.8494857654442
88.8131535422092
88.7731225492619
88.7282641823347
88.6783595244053
88.6232760311542
88.5628836605853
88.4970550314604
88.4256655830309
88.3485937356935
88.2657210521816
88.1769323988902
88.0821161069201
87.9812294145228
87.8766734098305
87.7739396403865
87.6786713097746
87.5964651113561
87.5328844815345
87.4934798897428
87.483816149481
87.5095068621047
87.5762562711265
87.6899090129897
87.856203159276
88.0729244493378
88.3290238233724
88.6128598879073
88.9125501158882
89.2159094841602
89.5104210321321
89.783240550681
90.0212377803505
90.2110762480819
90.339333153283
90.3950373949622
90.3827778300022
90.3135071524171
90.1983718812782
90.0485713238507
89.8752587393392
89.6894703660882
89.5020821808703
89.3237936721262
89.1651376098783
89.0365141273363
88.9451079517408
88.8877099146491
88.8590532560028
88.8539476099198
88.867248496308
88.8938330185776
88.9285815710888
88.9663654640293
89.0020404478472
89.0304461650506
89.0464449272275
89.0479196252644
89.0381497748334
89.0209787679078
89.0002493730861
88.9797990093234
88.9634583347429
88.9550531385499
88.9584095249383
88.977362390672
89.015767222735
89.0773806638297
89.1629105236549
89.2699977337566
89.396157818917
89.538903766182
89.6957358409867
89.8641327585923
90.0415442122976
90.225384779315
90.4130292415916
90.601809372152
90.7890303742934
90.9720495341828
91.1482147156799
91.3148358615343
91.4691895872271
91.6085254521111
91.7300739220936
91.8310560404252
91.9086948010377
91.9602281923956
91.983072976881
91.9786820761558
91.9528850748215
91.9117512780827
91.8613485351524
91.8077270426969
91.7569111565795
91.7148991504563
91.6876708365881
91.6812029846185
91.7014925373134
91.7526563496351
91.8311475973514
91.9315092233791
92.0482728011705
92.1759354967294
92.3089434939398
92.4416819760489
92.5684718238781
92.6835732260693
92.781196396788
92.8559285827169
92.90729644895
92.9381419118314
92.9514034355494
92.9500452679161
92.9370471652036
92.9153959783923
92.8880791390882
92.8580800633325
92.828375476551
92.8019268772743
92.7811447190285
92.7675441693701
92.7625587990269
92.7676258710413
92.7841892354702
92.8137026826325
92.8576337678582
92.9174681254737
92.9947142952585
93.0909090909091
93.2064278842615
93.3368765311376
93.4766255813349
93.6199856207176
93.7611991549917
93.8944394654371
94.0138166543779
94.1133910864882
94.1871943817754
94.2292580256554
94.2345295825627
94.204278219732
94.1425509935823
94.0534535163363
93.941113720094
93.8096599278866
93.6632025373092
93.5058193631747
93.3415446253349
93.1743615211668
93.0081696559328
92.846157237609
92.6908145992477
92.5445722220937
92.4098337724816
92.2889816244932
92.1843835807222
92.0984007812952
92.033396807235
91.9917480027272
91.9758547015053
91.9863841934612
92.0181698930408
92.0648465659304
92.1200425095771
92.1773632963744
92.2303843432909
92.2726523920601
92.2976960015455
92.2990451188819
92.270259707656
92.2056717403861
92.1082085292336
91.9864639011206
91.8490917192157
91.7046674122895
91.5616672047288
91.4284632789812
91.3133343940638
91.224491508222
91.1701180940662
91.1584204117821
91.1943106628817
91.2734695638758
91.3900680161492
91.5383185250167
91.7124306949742
91.9065740579664
92.1148481187329
92.3312596819139
92.5497076686897
92.7639757359073
92.968209516321
93.1602137698859
93.3395484520412
93.5057893089127
93.658518513412
93.7973257364226
93.9218092362973
94.0315769625553
94.1262476693772
94.2054520342183
94.2688775365019
94.316897930392
94.3504302869812
94.3704223916242
94.3778359117731
94.3736437257106
94.3588274269274
94.3343750145971
94.3012787785672
94.2605333853852
94.2131378998302
94.1602301602184
94.1031233828847
94.0431374716784
93.9815863812538
93.9197775073754
93.8590114441452
93.8005821033653
93.7457771911851
93.6958790375425
93.6521651089382
93.6156433005451
93.5866477763646
93.5654107264991
93.5521676797157
93.5471579047941
93.5506248287163
93.5628164728079
93.5839859080443
93.6143917308532
93.6542985608646
93.7038686063637
93.7626916879085
93.8301695384701
93.9057052115009
93.9887021150365
94.0785630015876
94.1746890330406
94.2764789198217
94.3833281340613
94.4946281969438
94.609624726879
94.7263237735838
94.8420755268423
94.9541990303914
95.0599886204535
95.1567166864895
95.2416380073383
95.3119956863721
95.3650286969753
95.3979810333637
95.4084063770337
95.397056218399
95.3666448755255
95.3199324824724
95.2596871987597
95.1886765969516
95.1096606568054
95.0253863742826
94.9385839786566
94.8519647398645
94.7681034982088
94.687523633963
94.6090210758055
94.5313453669744
94.4532543370467
94.373514030436
94.2908989586375
94.2041926704108
94.1121886336635
94.0136914220356
93.9075526923412
93.7945559898974
93.678364972292
93.5628470169445
93.4518317391735
93.3491132193135
93.2584553114333
93.1835999701227
93.1282785552057
93.0962261075642
93.0911985971705
93.1157227946273
93.1677508584305
93.2442206935238
93.3420916491952
93.4583293757936
93.5898926845799
93.7337223663751
93.8867319581963
94.0458004752706
94.207767148821
94.3695107745646
94.5284001313178
94.6819807076311
94.8277683209366
94.9632518905335
95.0858980824913
95.1931573304636
95.2824712470699
95.3512814255378
95.3970396131565
95.4176292540359
95.4141874047972
95.3894080392031
95.3460197060137
95.286765149136
95.2143914499099
95.1316417365588
95.0412484813441
94.9459283878969
94.848378856993
94.7512433168846
94.6567497336742
94.5668477203937
94.483468343346
94.4085311418581
94.3439472122664
94.2916230575303
94.2534652016654
94.2313855754092
94.2273076880692
94.243045807925
94.2770173031702
94.3239399945329
94.3783381730153
94.4347166796403
94.4875553659217
94.5313099758835
94.5604195213829
94.5693202022581
94.5524658703446
94.5044346638525
94.4254591133321
94.3249526855356
94.2131329557876
94.1001366984243
93.9960066932031
93.9107001590563
93.8541183381599
93.8361569241771
93.8667773847035
93.9560963035909
94.1089957811833
94.3139195433902
94.5561332046021
94.8207070368036
95.0924191464439
95.3557057804448
95.5946612629773
95.7930904268056
95.9346160612389
96.0028468518304
95.988030982286
95.9002725882266
95.7536206407734
95.5622102813286
95.3401119457536
95.1012223004024
94.859196815736
94.6274227278928
94.4190305768233
94.2469424309355
94.1213377618345
94.0385356437657
93.9904250943619
93.969014637629
93.9663830669072
93.9746411045516
93.9859064807331
93.9922922731505
93.9859084786673
93.9588768234579
93.904083744573
93.8222978055289
93.7190830859797
93.6000582247179
93.4708061901073
93.3368589907077
93.2036890623692
93.0767071754368
92.9612666800159
92.8626739133536
92.786156221657
92.7342378816343
92.7054075647669
92.6978573478768
92.7098114775161
92.7395185628865
92.7852445179548
92.8452662095161
92.9178657788558
93.0013256142612
93.0939239624792
93.1940178390173
93.3002704320353
93.4114074558528
93.5261440353391
93.6431834950774
93.7612164984933
93.8789205454384
93.9949598375614
94.1079855212216
94.216636317678
94.3195762573117
94.4156963716356
94.5039754619391
94.5833887699719
94.6529095200472
94.7115109188628
94.7581683778595
94.791861953642
94.8115789998944
94.8163170219649
94.8053682855716
94.7807632518703
94.7460667582654
94.7048583050972
94.6607089266533
94.6171776416913
94.5778105928594
94.5461428515588
94.5257028663008
94.5200195424684
94.5323827638083
94.5617570216992
94.6034275962678
94.6525580532636
94.7042973291984
94.7537745449197
94.7960988049821
94.8263640342365
94.8396588930804
94.8310817808325
94.7958879353201
94.7333798421548
94.6476029076439
94.5428808997227
94.4235266395534
94.2938268919531
94.1580312212513
94.0203447627665
93.8849248255713
93.7558812226646
93.6372768060693
93.5322868027652
93.4421034624708
93.3676464377488
93.3098443349001
93.2696380144179
93.2479841111714
93.2458587921669
93.2642617730952
93.3042206186103
93.3667953554303
93.4521427811031
93.5554506116117
93.6702310164899
93.7899431866053
93.9079827127659
94.0176791026808
94.1123027090845
94.1850812900444
94.2292263527984
94.2379693036545
94.2054061744518
94.1334649898142
94.0284819676254
93.8968645843075
93.7450035147738
93.5792412314827
93.405849374083
93.2310147510049
93.060833732102
92.9013147382702
92.7583016600006
92.6336550874487
92.5238021748226
92.4248203170693
92.3328296217058
92.2439853432332
92.1544735874386
92.060510208712
91.9583428332428
91.8442559396795
91.7145789169989
91.5671072060296
91.4071418277009
91.2423804195212
91.0804168724586
90.9287385388789
90.794737425614
90.6857333907704
90.6090090491982
90.5718562905378
90.5816345904577
90.6457686841339
90.7667764812213
90.9389725342489
91.1559821460273
91.411447889686
91.6989692930652
92.0120511747055
92.3440605729999
92.6881924958081
93.037444956603
93.3846039725824
93.7229420155361
94.0481193640099
94.3562801876965
94.6434897208068
94.9057490030229
95.1390131468695
95.3392131775936
95.5022814215402
95.6241803360674
95.7009345794392
95.7303234527515
95.7168854064666
95.6669325342741
95.586844624188
95.4830249743682
95.3618646143142
95.2297151146796
95.0928699929661
94.9575545946742
94.8299242502895
94.7153193019021
94.614658893483
94.5272840189544
94.4525494027688
94.3898239648052
94.3384892042747
94.2979376900839
94.2675716507579
94.2468016578844
94.2350453978273
94.231553105465
94.2337088430074
94.2377573271016
94.2399265231105
94.2364439277419
94.223539583364
94.1974521067847
94.1544377121276
94.0907821822541
94.0028157082877
93.8871231527261
93.7455098646409
93.5853644654186
93.4142833945778
93.2397663469063
93.0692052186097
92.9098849797568
92.7689960350947
92.6536576815679
92.5709523899486
92.5279690223723
92.5290030544927
92.5698123128988
92.6446163791526
92.7476812787609
92.8732805796331
93.0156636294914
93.1690308182897
93.3275158994393
93.485175515242
93.6359861471699
93.7743702617119
93.8980570335746
94.0061005534296
94.0975654561076
94.1715267081459
94.227072852864
94.2633093956216
94.2793623116417
94.2743816563084
94.2475452554384
94.1983139465056
94.1292147511268
94.0447954570457
93.949625936752
93.8482494181259
93.7451743946531
93.6448709280798
93.5517712558906
93.4702746101042
93.4047561650089
93.3594896726777
93.334662930389
93.324812821609
93.3240812302433
93.3266187742118
93.326577038943
93.3181081449193
93.295371642554
93.2525487106949
93.1838635796888
93.0836126338058
92.9492672931474
92.7885474077989
92.6112178174598
92.4269237562382
92.2451670187046
92.0753020690838
91.9265513306505
91.8080389457331
91.7288425080021
91.6980626293824
91.7242362106697
91.8057463491066
91.9330344308944
92.0963743070259
92.286000399234
92.4920403713004
92.7044683237851
92.9130790612001
93.1074843146488
93.2771319454045
93.4114215376255
93.5047878520867
93.5600699529395
93.580993609865
93.5713730574472
93.5350844967429
93.4760424450715
93.398179157483
93.3054272677048
93.2017057303368
93.0909090909091
92.9767239757929
92.8621001149
92.7497833371659
92.6424931458487
92.5429249483937
92.4537538480296
92.3776399675019
92.3172352865608
92.2751919896352
92.254172338537
92.2565667095929
92.2802961697221
92.3197821752327
92.3693534499299
92.4233240362855
92.4759843420278
92.5215992020282
92.5544130308285
92.5686621328798
92.5585941920763
92.5185141903639
92.4460557557701
92.3458137857967
92.223274255581
92.083904380525
91.9331297814324
91.7763181846136
91.6187695475571
91.4657124371787
91.3223064558382
91.1936505086295
91.0846775437479
90.9990106675853
90.9394951068886
90.9089913995051
90.9104041631639
90.9467016868404
91.0209377605083
91.136275998624
91.296016982481
91.5036286287074
91.7627528243718
92.0725990866808
92.4225429961554
92.8004623367826
93.1938868135418
93.5899348909321
93.9752842809308
94.3361791101055
94.6584769726403
94.927738788718
95.1293714389029
95.254521336422
95.3104156788436
95.3073529712782
95.2558759116696
95.1666528516817
95.0503818031902
94.9177181490474
94.7792264316775
94.6453560278324
94.5264401795706
94.4304643332841
94.3554900991642
94.2969101452975
94.2501602645891
94.2107057845512
94.1740323512881
94.135641083939
94.0910480486024
94.0357880116684
93.9654224261331
93.8760754993747
93.7684708245804
93.6456842639002
93.5107965401629
93.3668650032275
93.2169168915149
93.0639446145647
92.9109030084861
92.7607085063757
92.6162401613354
92.4803183712649
92.3546455801586
92.2394050066098
92.1346736826536
92.0405345296553
91.9570765933217
91.8843952903795
91.8225926677876
91.7717776754069
91.7320664531138
91.7035826334097
91.6863615857106
91.6799371053954
91.6836826309486
91.6969783457247
91.7192099494173
91.7497674148819
91.7880438329997
91.8334343425606
91.8853351427781
91.9431425866293
92.0062290289792
92.0733401245637
92.1425361559708
92.211832105965
92.279231072926
92.3427246391082
92.4002941121828
92.4499126516927
92.4895482889896
92.5171678445095
92.5307425897427
92.5295992264865
92.5171507153021
92.4975836906681
92.4750826648802
92.4538254851888
92.4379825731362
92.4317199310678
92.4392059050443
92.4646217118976
92.5121757709642
92.5855098585648
92.6823938793258
92.7972810273077
92.9245575551053
93.05856073587
93.1935669711917
93.3237868132034
93.4433670989367
93.5464004032916
93.6269419874615
93.6792161656576
93.7023348851926
93.7007432721568
93.679194749119
93.6424640212149
93.5953292034641
93.5425588037265
93.488903583296
93.4390932719075
93.3978380895917
93.369825812313
93.3574392504497
93.3577512239197
93.3670970793321
93.3818161802663
93.398246255301
93.4127206177635
93.4215682607369
93.421116835286
93.4076985147957
93.3776587337261
93.3284703741175
93.2634814232583
93.1879676096175
93.1071820845296
93.0263453739507
92.9506424628856
92.8852256947039
92.8352233897119
92.8057541144347
92.8019465863871
92.8286217148109
92.8846686783816
92.9639258149434
93.0600683059852
93.1667422389971
93.2775456928974
93.3860184924098
93.4856408056253
93.5698407934235
93.6320115018604
93.6655800845008
93.6670119449583
93.6377662520947
93.5798174113818
93.4951854605157
93.3859242932513
93.2541106217133
93.1018337566211
92.9311862660915
92.7442555559787
92.5431163983981
92.3302465752717
92.1101190178744
91.8877369813341
91.6680100042496
91.4557545371277
91.2556998053824
91.0724985388747
90.910742363899
90.7749817114
90.6697501715222
90.5995207824462
90.5647723151927
90.5599744052411
90.5791618755594
90.6164046775147
90.6657803128327
90.721354045929
90.7771668580596
90.8272311823675
90.865534503936
90.8860509109038
90.883785935226
90.8618223712388
90.8270630994562
90.786428127062
90.7468178825125
90.7151095467343
90.6981638357705
90.7028421683159
90.7360342277883
90.8046960710305
90.915876429403
91.0729484251337
91.2712714440588
91.5051914908525
91.7690241971043
92.0570123696384
92.3632903312356
92.6818551920581
93.0065453654213
93.3310267829109
93.6487873681371
93.9543519193956
94.2474687184076
94.5293736575293
94.8013453453101
95.0647023644426
95.3208008602111
95.5710324524378
95.8168225021192
96.0596287620134
96.3009404388715
96.5414927681384
96.7788809220097
97.0098609570686
97.2311297503424
97.4393300970748
97.6310581724384
97.8028734323178
97.9513110035321
98.0728965814718
98.1641713657716
98.2229818180149
98.2499328282554
98.2460383405045
98.2123713925515
98.1500575126739
98.060268123296
97.944214011324
97.8031389201579
97.6383133131889
97.4510336083125
97.2428480923371
97.0156373115054
96.7712980702226
96.5117123623987
96.2387414936867
95.9542209696559
95.6599561395953
95.357718578257
95.049243181779
94.73621922434
94.4194874119874
94.0983098307617
93.7717936926243
93.4390748243997
93.099318520938
92.7517205207555
92.3955080881144
92.029941185057
91.6543137164557
91.2679548306986
90.8704763897418
90.4638791760021
90.0514182566881
89.6362548603583
89.2214397532009
88.8099136837958
88.4045098251782
88.0079580270344
87.622890703286
87.2518501968184
86.8972974828999
86.5615498960263
86.2460009628126
85.951450882045
85.6786886388577
85.4285072123041
85.2017084662623
84.999108205153
84.8215414231476
84.6698677802814
84.5449773440699
84.4477966409736
84.3792763107386
84.3387200014747
84.3224653057285
84.326589177921
84.3472007382865
84.3804242451322
84.4223856940628
84.4692029857828
84.5169796490586
84.5618021365664
84.5997407287745
84.6268540845556
84.6404268902117
84.6436863234788
84.641658182829
84.6393715024686
84.6418548934742
84.6541392245125
84.681266285235
84.7283034679467
84.8003645616734
84.9026368423118
85.0404147649972
85.2184577352697
85.4334172347597
85.6764423654405
85.9384412868891
86.2101270029414
86.4819844926723
86.7442580453757
86.9869601323921
87.1999031806983
87.3727554312693
87.4951216473764
87.5576936570611
87.562606816876
87.5191026667342
87.436666735621
87.3248363915841
87.1931269306886
87.0509784727665
86.9077236449857
86.772575646892
86.6546360928822
86.5629220125869
86.505905069076
86.4843169117073
86.4928948114627
86.5262806697428
86.5791493453547
86.6461812946455
86.7220417904956
86.8013666683512
86.8787546382687
86.9487662590516
87.0059296935556
87.0449908328246
87.0648375560287
87.067898630769
87.0567367189728
87.0339276158415
87.0020526071769
86.9636923414234
86.921422232082
86.8778093928251
86.8354110981178
86.7967747564499
86.7644229555236
86.7404952919309
86.7267533265486
86.7249463785641
86.736832434089
86.7641833445977
86.8087907775355
86.8724729530384
86.9570822119405
87.0645134732051
87.1967136538586
87.3555755903998
87.5403721067967
87.7477026049041
87.9740181774676
88.2157201526461
88.4691452574578
88.7305536075322
88.99611965064
89.2619262303399
89.5239619650952
89.7781221562189
90.0204685628893
90.2488088149336
90.4617127318634
90.6577445292044
90.835464496266
90.9934342537758
91.1302224578764
91.2444109284069
91.3346011719382
91.3994212622483
91.4375703121907
91.4504021664044
91.4435986017292
91.4232657190655
91.3955152004593
91.3664503223028
91.3421601332683
91.3287217667188
91.332210847509
91.3587199886715
91.4143854543682
91.5044648715049
91.6275106226377
91.7791721789994
91.9550867432714
92.1508652047502
92.3620704239999
92.5841995999513
92.8126708110286
93.0428138865253
93.2698658127945
93.4890580930114
93.6972830232256
93.8930023523244
94.0747240186414
94.2409465239096
94.3901634122675
94.5208682385864
94.6315600145755
94.7207491143212
94.7869636135858
94.8288290915319
94.8477419307748
94.8486358928542
94.8366980651928
94.8171241004293
94.7951070116704
94.7758316570474
94.7644749055492
94.7662114638074
94.7862253572686
94.8296993669674
94.8993508897822
94.9934602228669
95.1098675418043
95.246424466877
95.4009842225267
95.571392770926
95.7554808948106
95.9510572208564
96.1559021892411
96.3677691573704
96.584808637315
96.8058539799087
97.0297841266405
97.2554572763905
97.4817102134518
97.707357903611
97.9311933718284
98.1519878754508
98.3684913869896
98.5793172931064
98.7810252389926
98.9683906915629
99.1360660903663
99.2786531311198
99.3907266247504
99.4668643491074
99.5016827925962
99.4898785403876
99.4262748816365
99.3071995440677
99.1362087760365
98.9192914161722
98.6624782739066
98.3717901658587
98.0531947694149
97.7125709813093
97.3556807436491
96.9881481416742
96.6154454589053
96.2421455578336
95.8694563959588
95.497670199838
95.1270703184254
94.7579313938943
94.3905195221231
94.0250924265891
93.6618996444302
93.301182723501
92.9431754293079
92.5881246109767
92.2365473693121
91.8891437069665
91.5465965392419
91.2095681084143
90.8787009739827
90.5546190769279
90.2379288715204
89.9292205189739
89.629069138005
89.3380361081291
89.0567536461286
88.7863240071825
88.5280006591769
88.2830139801431
88.0525749475451
87.8378793595344
87.6401123413351
87.4604531392474
87.3000802101999
87.1601766205435
87.0419357739261
86.9459930332292
86.8693205719276
86.8074804594903
86.7560745991119
86.7107355683408
86.6671182887339
86.6208960963248
86.5677611545493
86.5034291588208
86.4236482714084
86.3242121971289
86.2014426332353
86.056225039699
85.89197717281
85.7121230735658
85.5200517411607
85.3191065587007
85.1125774545467
84.9036957156415
84.6956313487598
84.4914928740078
84.2943294314561
84.1071196059555
83.9317131163796
83.7681721492056
83.6164032743089
83.4763228465544
83.3478568634176
83.2309408425668
83.1255197189976
83.0315477613792
82.9489885073519
82.8778147175814
82.8180083484507
82.7694649544375
82.7311657231018
82.7015859096473
82.6792055580069
82.6625123127022
82.6499990628947
82.6401621435226
82.631500087587
82.622512925983
82.6117020327689
82.5975705144138
82.578624463922
82.5538846785078
82.5239204864082
82.4895924312023
82.4517598026932
82.4112798226367
82.3690070103065
82.3257927269894
82.2824848980323
82.239927910743
82.1989626862902
82.1604269237349
82.1251810977685
82.0950414524942
82.0730440299353
82.0623019536481
82.0659328610251
82.0870686519343
82.1288676581014
82.1945293121567
82.2873114390952
82.410550346142
82.5676839510112
82.7622782651915
82.9971283631127
83.2685545833173
83.5699773978567
83.8946763445941
84.2357557125378
84.5861092318805
84.938395840153
85.2850274622176
85.6181698888743
85.9297578976848
86.211525714769
86.4559735819957
86.6654988229536
86.848753513799
87.0146905519417
87.1724333966928
87.3312499753093
87.5005458065629
87.6898771543449
87.9089850596755
88.16785132383
88.476777946196
88.8444836514588
89.2671182341446
89.7356399852396
90.2407318355594
90.7727195912309
91.3214953754247
91.8764608064921
92.4264924616868
92.9599326791347
93.4646090408521
93.9283862498705
94.3465130332247
94.720337868929
95.051575626939
95.342131656226
95.5940838700098
95.8096644879826
95.9912417673207
96.1413020316082
96.2624322793517
96.3572571065372
96.4278369987044
96.4758278571592
96.5029158577607
96.5108198169393
96.5012840234524
96.4760716145318
96.4369585373396
96.3857281272717
96.3241663259873
96.2540294032039
96.176729424895
96.0934484657406
96.0053591096605
95.91362721023
95.8194108887006
95.7238598175717
95.62811478501
95.5333075348472
95.4405608766108
95.3506397303412
95.2589550108788
95.1567765872791
95.0353428467765
94.8859999860505
94.7002447790859
94.4697821255119
94.1865962087361
93.8430336340975
93.4318963944601
92.9466559735446
92.3916369476376
91.7893111209273
91.1631018520065
90.5352999329203
89.9270202858824
89.3582624099389
88.8480608115154
88.4147139730866
88.0760841264958
87.8499649221286
87.7542505167965
87.7926908021734
87.9475140597854
88.1998314543326
88.5310466099616
88.9224717487942
89.3550217776106
89.8089851744811
90.2638754091346
90.6983701998737
91.0903480289829
91.4196093420728
91.6840190086673
91.8896920034175
92.0431451853957
92.1511857547167
92.2208382623139
92.2592803469651
92.2737884171907
92.2716941256498
92.2603521681038
92.2469896375978
92.2339544457209
92.2173672919531
92.1929494589735
92.156434229412
92.1035761039729
92.0301639030621
91.9320376512106
91.805109086463
91.6453855669322
91.4489970657644
91.2136652208991
90.9448535437404
90.6504816272908
90.3383295609363
90.0160011593667
89.6909023325345
89.3702322456441
89.0609864232744
88.7699709430219
88.5038269323571
88.2690646633504
88.0701670679433
87.9045696255253
87.7682226602716
87.6571870431628
87.5676099040795
87.4957041795745
87.4377317363599
87.3899898809262
87.3488011216582
87.3105060927911
87.2714596152343
87.2292751281675
87.1861072984979
87.1451330751766
87.109517709798
87.0824175130884
87.0669848971839
87.0663756985426
87.0837587951686
87.1223280576868
87.1853167069491
87.2760141469112
87.3961684168687
87.5416927439313
87.7071428482877
87.8870224204276
88.0757609974199
88.2676986454553
88.4570776879899
88.6380417842202
88.8046426900524
88.9508550200032
89.0706253881803
89.1610445131984
89.2253940956427
89.2677338502723
89.2921762666127
89.302868192367
89.3039761277908
89.2996753395844
89.2941428531404
89.29155434699
89.2960849534474
89.3117846850892
89.3397405835316
89.378073974261
89.424778264909
89.4778439491574
89.5352552751116
89.5949878134564
89.6550069317762
89.7132671851949
89.7677126355484
89.8162781116094
89.8571973955186
89.8908755869776
89.9186641741477
89.9419244986376
89.9620224216147
89.9803271567466
89.99821051711
90.0170465788277
90.0382117635071
90.0630853413883
90.0930498277145
90.1292801332874
90.1724195412148
90.2230330876159
90.2816918227275
90.3489737859931
90.4254650636389
90.5117609327527
90.6084670965088
90.7162010158755
90.8355933439071
90.967094832213
91.1081751176407
91.253927512173
91.3993217944051
91.5392637559111
91.6685982040708
91.7821177633861
91.8745776264711
91.9407163505916
91.9752827110502
91.9730761769166
91.9320514930484
91.8580145715123
91.7580162097641
91.6390996972731
91.508266723749
91.3724541446238
91.2385214611681
91.113248759393
91.0033448069743
90.9154650276899
90.8557639352189
90.8231236223061
90.810779446315
90.8118562286684
90.8194951378423
90.8268385904156
90.8270255186206
90.8131969990642
90.7785122344537
90.7161748117066
90.6194690265487
90.4839461535019
90.3138331489996
90.1155057890163
89.8952941353465
89.6594484024517
89.4141138689353
89.1653145909613
88.9189455580354
88.6807728664651
88.456441468553
88.2514882037943
88.0700095673802
87.912331917749
87.7781746079137
87.667295912798
87.5794920249382
87.5145962081967
87.4724781030365
87.4530431780772
87.4562323237709
87.4820215850919
87.5304207663243
87.6009663887766
87.6919395538245
87.8014363803572
87.92755830854
88.0684042979736
88.2220638403306
88.3866107735786
88.5600978970331
88.7405523972091
88.925972103788
89.1143188900878
89.3033514328535
89.4905548621841
89.6733548698673
89.8491363998421
90.0152467558159
90.1690002986081
90.3076847798528
90.4285693452307
90.5289142226066
90.6059820882486
90.6575020549153
90.6847774455384
90.6908289876745
90.6787218036899
90.6515422121852
90.6123864371337
90.5643513969855
90.5105276054802
90.45399419259
90.3978160367269
90.3450400368926
90.2975164776512
90.254105060166
90.2132078171562
90.1732331967742
90.1325954496321
90.08971457629
90.0430168297856
89.9909357674607
89.931913845215
89.8644045453986
89.786958506024
89.7003722774896
89.6078566496723
89.5127204307805
89.4182456314905
89.3276868146875
89.2442728290162
89.1712108768654
89.1116928764105
89.0689040932425
89.0460340397874
89.0460364017353
89.0691634754903
89.114034217475
89.1792713424244
89.2635185123862
89.3654342315994
89.4836861966932
89.6169460740071
89.7638846829151
89.9231675704802
90.093450956421
90.2729373459267
90.4581936903876
90.6453642714125
90.8305296762838
91.0097065210599
91.1788506395343
91.3338638774328
91.4706046136348
91.5849020984301
91.6725746522405
91.7296688894473
91.7560570283965
91.7548905024429
91.7294762925178
91.6831562164041
91.6192905427169
91.5412439852997
91.4523741468794
91.3560224417271
91.2555074954219
91.1541209828564
91.0546609424007
90.9582111820082
90.8654628376284
90.7771020885604
90.6938107880805
90.6162671938893
90.5451467974013
90.4811232513949
90.4248693960951
90.3770583843779
90.3383348440121
90.3082203954479
90.28480492614
90.2660921762986
90.2500911554262
90.2348145056267
90.2182777434757
90.1984993762863
90.1735018892042
90.1413135985487
90.0999713642112
90.0479838578172
89.9878692652807
89.9241923809467
89.8615112680478
89.8043589500648
89.7572467398051
89.7246721022701
89.7111310171063
89.7211348491315
89.7592317971339
89.8300325993914
89.9359141446878
90.0716039999624
90.2302201027602
90.4048240195794
90.5883903623666
90.7737867928379
90.9537649628101
91.1209628370103
91.2679188703907
91.38709845913
91.4712577902669
91.5188404918794
91.5331864169447
91.5178703437108
91.4765248266182
91.4128181564806
91.33043507327
91.2330603671922
91.1243654442706
91.0079978825066
90.887573964497
90.766300096151
90.6458568515778
90.5275349779697
90.4126119022244
90.3023525557838
90.1980105494886
90.1008296904973
90.0120458349282
89.9328890718709
89.8645862367683
89.8083467648665
89.7641932817842
89.7302095904012
89.7043125754064
89.6844291049329
89.6684927722126
89.6544415996563
89.6402166964085
89.6237618639536
89.6030241460296
89.575955318964
89.5406941588606
89.4981452430794
89.451368144645
89.4034691158545
89.3575415958289
89.3166665192715
89.28391475357
89.2623516459642
89.2550436726234
89.2650671976572
89.2955193723701
89.3488213693756
89.4228632967722
89.5137364371265
89.6175175196558
89.7302600265748
89.8479844094903
89.9666717639455
90.0822610377308
90.1906498660288
90.287699130578
90.3692506813691
90.4327122816215
90.478850328651
90.5088824423621
90.5240477139591
90.5256024439015
90.5148161809447
90.4929680832523
90.461343618239
90.4212316137914
90.3739216698389
90.3206716187735
90.262271686809
90.199147086822
90.1317126384223
90.0603820835466
89.9855677185015
89.9076800647462
89.8271275782484
89.7443163971289
89.6596501272087
89.5735296649825
89.4865670053183
89.4006164839112
89.3179687904907
89.2408987634516
89.171667068596
89.1125236416548
89.065712257303
89.0334762208965
89.0180651900596
89.0217431465508
89.0467967886562
89.0943320747675
89.1618111408448
89.2460146748437
89.3437200808062
89.4516904280212
89.5666657076532
89.6853564136786
89.8044394882988
89.9205566883321
90.0303154381929
90.1303129288949
90.2177741006873
90.2906812981609
90.3470612956769
90.3849481201467
90.4023905924874
90.3974606710455
90.3682625473106
90.3129424290971
90.2296989304952
90.1167939716333
89.9730849304757
89.8015813934892
89.6072213854097
89.3949129236184
89.16950094569
88.9357511893844
88.698339402944
88.4618456749287
88.2307536383133
88.0094542918235
87.8022541904503
87.612643623817
87.4392989863409
87.2790522157274
87.1287887745045
86.985444036537
86.8459972012403
86.7074673862128
86.5669118179621
86.4214260492178
86.268146134096
86.1042526894894
85.9274117364708
85.7400113867398
85.5472469291709
85.3542662174321
85.1661257848699
84.9877940683835
84.8241604477756
84.6800498581588
84.5602427922387
84.4695005937125
84.4125960517986
84.3942998519167
84.4159943438503
84.4734685288445
84.5620568213649
84.6771299905951
84.8140631794152
84.9682090172323
85.1348757293545
85.3093102587053
85.4866865061861
85.6620988639772
85.8305623443151
85.9878048866872
86.1316857841517
86.2604237290708
86.3722322425903
86.4653261140069
86.5379285723522
86.5882791617047
86.6146422790826
86.6153163202316
86.588643364466
86.5330193405094
86.4478109899728
86.335743507659
86.2003158079789
86.0450265927222
85.873357241377
85.6887575774037
85.4946345079247
85.294343491499
85.0911827558935
84.888390164781
84.689142618627
84.4964696002427
84.3123989541011
84.138350409903
83.9757171601034
83.8258779467271
83.6902012461716
83.5700498781882
83.4667860437448
83.3817768031828
83.3164000134322
83.2720507511019
83.2501460835401
83.2512626193568
83.2738110271143
83.3158905411513
83.3756220060626
83.4511394107885
83.5405823073146
83.6420890786259
83.7537910342
83.8738073232734
84.0002406665032
84.1311739155344
84.2648848654732
84.4015282551901
84.5422419049093
84.6881876552543
84.8405446708558
85.0005111106728
85.1693061532793
85.3481723943044
85.5383786360038
85.7412230922734
85.9580370363577
86.1900735897506
86.4368456644046
86.6964656860404
86.9669715461911
87.2463574366653
87.5325687630569
87.8234979295949
88.1169810538371
88.41079567809
88.7026595510856
88.9902305581278
89.2712393772692
89.5443031390409
89.8084204789079
90.0625759112828
90.3057401327252
90.5368721830554
90.7549218616426
90.9588323998684
91.1475433883759
91.3199939550713
91.475137132418
91.6127021460563
91.7337011964883
91.8392947537653
91.9306712961352
92.0090434290697
92.0756442608432
92.1317240589999
92.1785472083427
92.2173894875961
92.2495356786737
92.2764792414118
92.3007903283362
92.3253995122253
92.3532440007561
92.3872685429162
92.4304284367948
92.485694433668
92.5560595671497
92.6445479521009
92.7542256194025
92.8878661482996
93.0422326861118
93.2088952161875
93.3791515145692
93.5441747259926
93.6950144052585
93.8226145774222
93.9178493450132
93.9715763559992
93.9747080853303
93.9184308378965
93.8014300868758
93.6335312734161
93.4255101333754
93.1880811114394
92.9318195399651
92.6671086517686
92.404110697471
92.1527610598822
91.9227841072825
91.7237295844947
91.5636965116337
91.4429942808845
91.3592229467245
91.3100876696296
91.2933849715053
91.3069867227463
91.3488255612615
91.4168815812412
91.5091701592999
91.6237308116539
91.7585439706942
91.9088477950901
92.0663148884381
92.2222794763564
92.3679589547769
92.4944646759962
92.5928298265128
92.6540547736535
92.6691699625686
92.629316006235
92.5258401426332
92.3542564010739
92.1243859033075
91.8492673851984
91.5418041607543
91.2146588042684
90.8801845452292
90.5503917697753
90.2369474584959
89.9512052261201
89.7042638177191
89.5069502629452
89.3628974732473
89.2641935768462
89.2020676140303
89.1679018444523
89.1531694813241
89.1493893725973
89.148097081966
89.1408321219952
89.1191412586197
89.0745978441041
88.9992051233821
88.8923988079077
88.7604168007118
88.6097259785594
88.4467374686762
88.2777847052424
88.1091108007033
87.9468649450875
87.7971074999958
87.665823460426
87.5589440135404
87.4821498010401
87.4371953820085
87.42254899525
87.436639622896
87.4779530461839
87.5450221003661
87.6364176589963
87.7507402660665
87.8866123480581
88.0426709500395
88.2175609507458
88.4097699190018
88.6160567815169
88.832077494728
89.0533942752443
89.2754823733962
89.4937264437052
89.7034215952248
89.8997793633928
90.0779388317036
90.232983095222
90.3599615226843
90.4555186948246
90.521657087764
90.561555936587
90.5784556936854
90.5756403480701
90.5564219239505
90.5241272850519
90.4820873279411
90.4336286109904
90.3820674361197
90.3306358910708
90.2803356121855
90.2295578652399
90.1765518814008
90.1195753523606
90.056895616239
89.9867915063922
89.9075558507436
89.8174986058039
89.7149506051179
89.5982678965317
89.4663287523505
89.3227857910271
89.1739093713992
89.0259207521338
88.8849597306999
88.7570904116698
88.6483152557855
88.5645971925161
88.5118896829533
88.4961747684842
88.5235093343399
88.5986273839455
88.7179334002595
88.8748417192698
89.0627739152347
89.2751110381458
89.5051512257873
89.7460769496296
89.9909321647887
90.23260981495
90.4638502623428
90.6772873766351
90.8687184787463
91.0397789520302
91.1927707176787
91.3300526004601
91.4540315799914
91.5671551587083
91.6719049285129
91.7707914029903
91.8663501693703
91.9611394043819
92.0571840188726
92.1529488111327
92.2454664203544
92.3317425969669
92.4087627373988
92.4734968795529
92.5229066980311
92.5539545059381
92.5636142481199
92.5488844432611
92.5069370400691
92.4385809238271
92.3485451318043
92.2417518370116
92.1231007793693
91.9974542719425
91.8696274387252
91.7443835858011
91.6264345764759
91.5204460722863
91.4310475145621
91.3614453908441
91.3086993693579
91.2682165117085
91.2354327546717
91.205802964799
91.1747955189188
91.13789140809
91.0905878287502
91.0284062192671
90.9469046760903
90.8418320199538
90.7141433832514
90.5713586138658
90.4213507272783
90.2718970396415
90.1306738122131
90.0052640936579
89.9031783419986
89.8318875109501
89.7988684757038
89.8116619491577
89.8768975859121
89.9912686290578
90.1458944426579
90.3318316474182
90.540064343396
90.7614493159858
90.9866790544224
91.2062632345305
91.4105295613921
91.5896449520371
91.7336923770504
91.836876066045
91.9015702484597
91.931198544438
91.9292796626181
91.899401820625
91.8451995472256
91.7703331034861
91.6784706901831
91.5732735458725
91.4583839857667
91.3374374122124
91.2142174691805
91.0925620749236
90.9762693128005
90.8690996676724
90.7747821473329
90.6970234416687
90.6395200797133
90.6059735816017
90.6001086494494
90.6256871596334
90.6835915981589
90.7673170924939
90.8692007791244
90.9815393969291
91.0965647713174
91.2064323699556
91.303223224432
91.3789595476182
91.4256343137757
91.4352549038399
91.4007837229367
91.3259644594569
91.2216757659338
91.0988977140331
90.9685275577499
90.8413489487458
90.7280270756453
90.6391290360039
90.5851688287928
90.5766766780175
90.6242920440147
90.7343851609919
90.8986434376003
91.1057272355851
91.3442288295049
91.6025771299819
91.8689706079067
92.1313394199751
92.3773383127391
92.5943721444259
92.7696557771808
92.8914787899451
92.9594996419086
92.9799179755912
92.9591749152766
92.9038216611289
92.8204662662181
92.7157293806169
92.5962093314288
92.4684566729089
92.3389581611422
92.214097042266
92.0978854483507
91.990532434803
91.8919013365797
91.8018612592986
91.7202868571774
91.647058122029
91.5820601826815
91.5251831142276
91.4763217565473
91.4353755415852
91.4021041594939
91.375248732585
91.3531138650803
91.3340075359371
91.3162414354278
91.2981301560961
91.2779910075257
91.2541444520792
91.2249151585713
91.1886336696969
91.1436446124552
91.0888403703557
91.0240804753529
90.9493305020954
90.8645630043934
90.7697576016075
90.6649010531866
90.5499873210489
90.4250176195358
90.2900004527076
90.1449516387905
89.9901332150797
89.8290425576162
89.6674523983664
89.5111049905309
89.3656637076531
89.2367236101523
89.1298289738184
89.0504976290112
89.0042520698065
88.9966574376357
89.0333666655271
89.118841390189
89.2491325820342
89.4169702215584
89.6150709092002
89.8360897523055
90.0725754845101
90.3169374091606
90.5614245903614
90.7981179097756
91.018935716513
91.2156929964069
91.3828540364691
91.5193879785933
91.6247362105121
91.6984002286228
91.7399446777387
91.7490001074506
91.7252654163312
91.6685099576992
91.5785752835591
91.4553765066327
91.2996228418857
91.117175811833
90.9160537410867
90.7041768845785
90.4893337919479
90.279170335906
90.0811919403454
89.9027783909548
89.7512106756939
89.6337094506439
89.5574830332069
89.526752070105
89.5366566334446
89.5807175094639
89.652518992548
89.745664319865
89.8537403798987
89.9702915314986
90.088802555394
90.2026908909139
90.3053083866529
90.3901177659266
90.4549706920329
90.5025329265595
90.5357446929414
90.5575707035519
90.5709917239885
90.5789980571536
90.5845849810637
90.5907501590433
90.6004930310553
90.6168161904856
90.6424073925607
90.6780870695905
90.7240041115564
90.7803138796355
90.8471794788853
90.9247721133235
91.0132714611001
91.1128660711797
91.2237537830657
91.3461421712146
91.4802298689179
91.6253559195336
91.7796470510345
91.9411205548075
92.1077689845093
92.2775573093988
92.4484209332718
92.6182646108636
92.7849622966858
92.9463579626819
93.100267405989
93.2444086877715
93.3762366077952
93.4931365204604
93.5924812691838
93.671640135371
93.727989272023
93.7589235861273
93.7618700080717
93.7343020575539
93.6737555843628
93.5787348451337
93.4541286350838
93.3075546898856
93.1465873090609
92.9787174115681
92.8113358805175
92.6517289000671
92.5070848697167
92.384512491051
92.2910697060079
92.2336592841037
92.2138273853597
92.226309269179
92.2654604398333
92.3256707102458
92.4013350601746
92.4868313412109
92.5765047744469
92.664659283484
92.7455557676491
92.8134178238542
92.8642938717633
92.9003750941226
92.9251488322886
92.9421201539078
92.9548046451997
92.9667238402078
92.981403308973
93.0023734163045
93.0331727610005
93.0773543120798
93.1380979938056
93.2151609257172
93.3065332996197
93.4101888669187
93.5240937224922
93.6462012993669
93.7744482341265
93.9067511135918
94.0410041202146
94.1750775989509
94.3067832021303
94.4333075797853
94.5512970487196
94.6573521300159
94.7480508995155
94.8199587119581
94.8696404350748
94.8936751705371
94.8886733979375
94.8512964302392
94.7784244248188
94.6716293713137
94.5379421051952
94.384679116107
94.2190954716607
94.048360791353
93.8795463972014
93.7196233028927
93.5754706581568
93.453894287442
93.3616470846168
93.3022841193583
93.2713533797994
93.2632208914931
93.2722961639812
93.29300820389
93.319788271393
93.3470593001709
93.3692319709307
93.380707464958
93.3758869271286
93.3503092653187
93.3060906288349
93.247728879062
93.1797188106867
93.1065374761963
93.0326371220299
92.9624424217809
92.9003519440749
92.8507437902914
92.817985351587
92.8063017554747
92.8170379148987
92.8488954225366
92.9005022640458
92.9705066391394
93.0575713323574
93.1603685164816
93.2775749636062
93.4078676450819
93.5499197071832
93.7023893989922
93.8632503715787
94.0292470810261
94.1969546350064
94.3628994472478
94.5235590481677
94.6753645069885
94.8147055560961
94.9379384970137
95.0413969470146
95.1214133548684
95.1763049330245
95.2089921812593
95.223081980364
95.2222104367924
95.2100300637113
95.1901997091291
95.1663772768204
95.1422152578749
95.1213590717604
95.1074473700793
95.1027929799036
95.1057058298143
95.1137445332885
95.1244683619665
95.1354352404156
95.1442009939532
95.1483198513748
95.1453462047016
95.1328376256189
95.1083591331269
95.0703457293947
95.0206726156896
94.9620718910535
94.8972685091439
94.8289759681797
94.7598935684944
94.6927052211239
94.6300797861872
94.5746729188543
94.5291304033361
94.4956645296155
94.4737340145339
94.4617163700239
94.4579950004627
94.4609588110723
94.4689996526781
94.4805103185044
94.4938830892174
94.5075088249007
94.5197766043387
94.5292762040596
94.5367792749406
94.5443902343519
94.5542339484746
94.5684372646027
94.5891304946109
94.6184498595549
94.6585409033522
94.7115628890667
94.7796941987865
94.8649201419725
94.9654375316843
95.0761914621811
95.1919850195029
95.307573457762
95.4176613936823
95.516905838164
95.5999252035459
95.6613143974963
95.6956660579367
95.6978556121028
95.667953127352
95.6108222309676
95.5315323893273
95.435155861862
95.326747042563
95.2113272077699
95.0938746391694
94.9793200355233
94.8725470951833
94.7782977833698
94.6975289791538
94.6264104877361
94.5608306848743
94.4967038244387
94.4299669751712
94.3565804742264
94.2725318440719
94.1738431116584
94.0565814489347
93.9168845507879
93.753838305861
93.5731893065308
93.3815503760613
93.1854400914979
92.9912725360918
92.8053560791521
92.6339008102016
92.4830342747393
92.3588252267372
92.2673152250438
92.2136664776103
92.1961027800851
92.2096316081175
92.2493051974438
92.3102093556685
92.3874381088106
92.4760736129713
92.5711712692472
92.6677500584535
92.7607881674815
92.8452548564424
92.9170585982307
92.9732373403062
93.0108947139024
93.027145155636
93.0191262298361
92.9840126436175
92.9190318516584
92.8214811108172
92.6887458054555
92.5183192463744
92.3098877467468
92.0700594100263
91.8067906828996
91.527909000676
91.2410810480384
90.9537944796802
90.6733524108179
90.4068799126036
90.1613417592176
89.9435707622471
89.760177096764
89.6118989374648
89.4914756037684
89.3911907763406
89.3034311295328
89.2206583853092
89.1353943808033
89.0402188176463
88.9277794235131
88.790814230082
88.6221855608002
88.4153403810885
88.1721774812928
87.9021996348016
87.6150295001792
87.320077040952
87.0265147257771
86.7432727384835
86.4790529030037
86.2423600827332
86.0415500202943
85.8848929246535
85.780555465659
85.7313866569844
85.7322751267675
85.7776211057799
85.8619519241034
85.9798683378856
86.1259982709438
86.2949574889769
86.4813169539291
86.6795767972373
86.8841470068553
87.0893526961863
87.2906544599805
87.4854757556635
87.6713876414542
87.8459257220042
88.0065955764106
88.1508796433389
88.2762455860156
88.3801561418338
88.4600804396352
88.5135067425438
88.5380595025794
88.5341667339832
88.5052988612543
88.4551132956517
88.3872855962669
88.305493388232
88.2134033254045
88.1146611257175
88.0128846674113
87.9116601051806
87.8145409468109
87.7249543328661
87.6443969957235
87.5726062666341
87.5092608937937
87.4540462968454
87.4066539851266
87.3667810064804
87.3341294248048
87.3084058246884
87.2893208416419
87.2765887165874
87.2700472253008
87.2719375550253
87.2867188192553
87.3189481925494
87.3732140630185
87.4541567662365
87.5664944028654
87.7150540359232
87.904808695496
88.1409207816969
88.4287926570827
88.7730082372398
89.1663161680058
89.5938658973085
90.0402022985905
90.489270175683
90.9243682860406
91.3281627070271
91.6827656065584
91.9698848417809
92.1710480228729
92.2680232406167
92.2540739798285
92.1428197432955
91.950440802123
91.6933439754437
91.3879079663784
91.0502870137813
90.6962737022193
90.3412193189476
90.0000085872966
89.6870848947061
89.4159022887116
89.1889194078505
88.9995636165871
88.8411839414961
88.7072934634183
88.5915288434008
88.4876196693017
88.3893670973627
88.2906314222257
88.1853283108395
88.0674334845449
87.9314878893236
87.778042404077
87.6115774853811
87.4365921982644
87.2575225710593
87.0787355608967
86.9045274973599
86.7391268239408
86.5867009607149
86.4513671326265
86.3372070446998
86.2480549498454
86.1831628142765
86.1376031474761
86.1063421307056
86.0843785653296
86.0667301632369
86.0484256608097
86.0245026980677
85.9900114290133
85.9400238256622
85.8696486071275
85.7741411201129
85.6538099415012
85.5164751160568
85.3705025970506
85.2241558531916
85.0855875767652
84.9628471831788
84.8639035825114
84.7966828269133
84.7691204784127
84.78922889729
84.865180028532
85.0019163365002
85.1919236330404
85.4248463091618
85.6902454009665
85.9775033898475
86.2757539894502
86.5738379585482
86.8602865984267
87.1233349415012
87.3509666793179
87.5309933459429
87.6549797844803
87.7272714091847
87.7550668774522
87.7457351628711
87.7067469456863
87.6456178609448
87.5698642799524
87.4869719425356
87.4043774868316
87.3294627446443
87.2695611917069
87.2300518786727
87.2099305688541
87.2068983462527
87.218678930297
87.243010347205
87.2776378203844
87.3203078473203
87.3687634446732
87.4207405549381
87.4739656170965
87.5261545484624
87.5753901677302
87.6208914029373
87.6620906436253
87.6984193432902
87.7293086085777
87.754189862506
87.7724955811059
87.7836601024842
87.7871205069039
87.7823175660196
87.7686985346239
87.7464285378764
87.7174745174913
87.6840810556089
87.648487841949
87.6129279853007
87.5796274680426
87.5508057349053
87.5286774072443
87.5154551165562
87.5133534558096
87.5245926058899
87.5510435974011
87.5937583302007
87.6536919150455
87.7318241193924
87.8291632653722
87.9467504417687
88.085664061985
88.247024804915
88.432000981243
88.6418143740861
88.8776416088002
89.135939518031
89.4064350886326
89.6781226114148
89.939728841431
90.1797223292055
90.3863521577127
90.5477175347971
90.6518691134549
90.6869419809324
90.6413189748396
90.5058721092097
90.2881054081391
90.0033847745754
89.667099545757
89.2944215439196
88.9001626726463
88.4986845959274
88.1038575923808
87.7290648223366
87.3872480563269
87.0909912950863
86.8511487247639
86.6655892770417
86.525781874421
86.4234076185566
86.3503357740316
86.2985611367598
86.2601571451017
86.2272440093565
86.1919714443749
86.1465157805735
86.0830913064681
85.9944475818029
85.8806506729602
85.74744336831
85.6006808830484
85.446157298479
85.289591519097
85.1366210680198
84.9928034574013
84.8636248586078
84.7545158262122
84.6708738976594
84.6180754566288
84.599408330014
84.6141105300635
84.6610252210642
84.7390657999409
84.8472075513204
84.9844799062969
85.1499592211733
85.342762002853
85.5620385165733
85.8069667195439
86.0767455460399
86.3691151877167
86.677287662736
86.9934422636245
87.3095322392599
87.6172754296981
87.908160233763
88.1734680447747
88.4043131883422
88.5917011494581
88.7266054717607
88.8001308658788
88.8096910080651
88.7638914894473
88.6726593426436
88.5460026198357
88.3939200222836
88.2263330734064
88.0530409719331
87.883697731115
87.7278108948052
87.5947610138011
87.4937692887575
87.4289992174557
87.396434152062
87.3913829067429
87.4092147613925
87.4453327460564
87.4951519406906
87.5540826438122
87.6175183491177
87.6808285329021
87.7393562976605
87.7884608806212
87.8252961036434
87.8495290712066
87.8610221028583
87.8596484051962
87.8452924339076
87.8178502344474
87.7772297597766
87.7233511636532
87.6561470680483
87.5755628033551
87.4815899122082
87.3754773572632
87.2600596647343
87.1382525138526
87.0129434581154
86.8869887663235
86.7632121748775
86.6444054975655
86.5333310384762
86.4327257580495
86.3453071513585
86.2737729504952
86.2201074109621
86.1850385684014
86.1691844507038
86.1731872578655
86.1977163004937
86.2434711321039
86.3111848984699
86.4016279301678
86.515611607732
86.6539925325607
86.8176665771831
87.005808591192
87.2138407306706
87.4366419013764
87.6690014243732
87.9056037253991
88.1410191930645
88.3697015427477
88.5859920568247
88.7841310712
88.9582770393514
89.1026398947806
89.2147696378684
89.2962227274935
89.3488616373596
89.3746166649306
89.3754737682597
89.3534630073941
89.3106477017895
89.24911439553
89.1709637030659
89.0783020900945
88.9732590320134
88.8582500456068
88.7358686521188
88.6086885565872
88.4792567129755
88.3500914034242
88.2236817759009
88.1024887976136
87.9889475823618
87.8854710540722
87.7944549159351
87.7179770752474
87.6551494725805
87.603441880668
87.5603273590718
87.5232949837184
87.4898456336601
87.457489224289
87.423743368625
87.3861334532501
87.3421941169946
87.2894721186556
87.2257993963673
87.1516240894532
87.0688523873882
86.9793982137883
86.8851637908461
86.7880371831433
86.6898906785084
86.5925799902376
86.4979442628627
86.4078068630157
86.3239769377214
86.2482355098951
86.1821064938993
86.1269159430794
86.0839854477677
86.054640938706
86.0402167041166
86.0420598380337
86.0615351402706
86.1000304947021
86.1589627596304
86.2397842119994
86.3439366646413
86.4714906924151
86.6210075518275
86.7909838144314
86.9799204894359
87.1863158107288
87.4086585284031
87.6454216882658
87.8950568924456
88.1559890431894
88.4266115802977
88.7051040222636
88.9871670505836
89.266625751024
89.5371106498645
89.7921030475307
90.024951620452
90.228899032169
90.3971189142044
90.5227633813606
90.599020981759
90.6191847229515
90.5793006527242
90.4850033488356
90.344212145411
90.1649111126726
89.9550753466059
89.7226113443803
89.4753116593781
89.2208236454504
88.9666318233134
88.7200532305525
88.4882372569599
88.2762550065554
88.084640785862
87.9133180088384
87.762236129816
87.631370697196
87.5207234921006
87.4303227534958
87.360223491849
87.3105078939533
87.2812858221488
87.2726879086863
87.282997208443
87.3061823342242
87.3356034438501
87.3646083433353
87.3865280447939
87.3946824844605
87.3823964456311
87.3430256619351
87.2699929418254
87.1568339573975
86.997265178892
86.7904621214977
86.5489028717403
86.2869329290083
86.0186070862886
85.7576482950218
85.517451588641
85.3111303700504
85.1516027250555
85.0517163043021
85.024411681784
85.0829259476633
85.2376016683523
85.4793384316588
85.7920252315945
86.1594556587869
86.5650903727404
86.9918690710424
87.4220846763324
87.8373251222368
88.2184897764871
88.5458880204895
88.7994278533342
88.9651934717955
89.0504897908732
89.0674910297996
89.028746447826
88.9470057098351
88.8350781146831
88.7057279282102
88.5716066004822
88.445221610773
88.3389410921187
88.2650102435641
88.2299039502399
88.2268940878503
88.2474652249254
88.2831346260244
88.3254150118567
88.3657936481463
88.395727784163
88.4066565649155
88.3900295112069
88.3373514977613
88.2403317892942
88.0970135828802
87.9156343474278
87.7053398620639
87.4751778262882
87.2340490110982
86.9906772317762
86.7535973890495
86.5311606551981
86.3315558621808
86.1628462656001
86.0330150142523
85.9476011747725
85.9060776741407
85.9070986753723
85.9494472222446
86.0320233332141
86.1538332543593
86.313979712035
86.5116530263872
86.7461229640775
87.0167312230322
87.3228772872196
87.661120854492
88.0205966698053
88.3889542934222
88.7534322113837
89.1008465282003
89.417618018275
89.6898405981531
89.9033937133019
90.0440999895322
90.0979277473153
90.051848828684
89.9075541152966
89.6813487954739
89.3903370950542
89.0515358280675
88.6816671108723
88.2970167263259
87.9133557225074
87.5459211639727
87.2094512719487
86.9182703735066
86.6860883152463
86.5161129363134
86.3995368749193
86.3271625406165
86.2900075731067
86.2792224189673
86.286027201182
86.3016669639126
86.3173848427949
86.3244130179668
86.3139814601712
86.2774221142935
86.2115674535948
86.1222099384094
86.0159618163284
85.8993970804422
85.7790309440179
85.6613093694754
85.5526084184116
85.4592431552315
85.3874858639301
85.3435934228344
85.3338434091331
85.36254392959
85.4273426808151
85.5245632440301
85.6505746388891
85.8017648284919
85.9745173904934
86.1651912202616
86.3701032105232
86.5855139195626
86.8076162974866
87.0325275877409
87.256295461617
87.4749259896129
87.6843560340123
87.8804504524891
88.059012200198
88.2157965232945
88.3465293376141
88.4469298214337
88.5127371689375
88.5397413519235
88.5238312416361
88.4644192075981
88.3688886439571
88.2457628853261
88.1035358443592
87.9506276562273
87.7953567399516
87.6459279286464
87.5104361641745
87.3968852222164
87.3132210238135
87.2673626002583
87.2631074525007
87.2947115579854
87.3551519448535
87.4374341183856
87.5345512325699
87.6394544589386
87.7450345615671
87.8441148499929
87.9294557690814
87.9937713941619
88.0298092262991
88.034975645118
88.0150005088473
87.9765070848682
87.9261254665367
87.8704697243205
87.8161250469027
87.769644810463
87.7375574646827
87.726383136565
87.7426599267657
87.792909570058
87.8798197349574
88.0002398342087
88.1505709439979
88.3272287562917
88.5266199988271
88.7451217354193
88.9790634971247
89.2247122619053
89.4782603583452
89.7358164177516
89.9934806166498
90.2482476172779
90.4977013655521
90.7393867189905
90.9708010277827
91.1893987184481
91.3925973505193
91.5777851908146
91.7423303341515
91.8835913797564
91.9989402216291
92.0875548133112
92.1524480941985
92.1971744336561
92.225332232047
92.2405495559176
92.2464725208503
92.2467565016119
92.2450602156581
92.2450427016873
92.2503632000784
92.2640527470371
92.2846653339139
92.3088145099087
92.3331005352304
92.3541167792135
92.3684508730048
92.3726883825293
92.3634190053253
92.3372452795272
92.2907937702088
92.2207822154018
92.1259840782529
92.0077746336101
91.8677190712063
91.7073976367244
91.5283986811102
91.3323122242479
91.1207240587037
90.8952104105678
90.6573331664641
90.4086356686171
90.1507154375657
89.8857390367519
89.6161088275369
89.3441755159083
89.0722350578273
88.8025284760585
88.5372428293159
88.2785132621856
88.0284260682697
87.7890227050065
87.5623047064199
87.35036204318
87.1561215941608
86.982848039134
86.8337799440447
86.7121456761546
86.6211831924347
86.564162280489
86.5444094124854
86.5653354494739
86.630466522096
86.7434785168567
86.9073294714927
87.1172645063201
87.3644828297498
87.640052380318
87.9348735594724
88.2396273468242
88.5447420735122
88.840380080225
89.1164457128361
89.3626161507183
89.5683964704226
89.7259102700405
89.8372149582091
89.9067965595084
89.9392960584508
89.9394684257664
89.9121458312938
89.8622055352272
89.7945428001399
89.7140490343758
89.6255952666949
89.5340209646543
89.4441281461601
89.3606806950506
89.2884087770259
89.232018260913
89.1962050813632
89.1856745320139
89.2051655528425
89.259480172536
89.3535183878565
89.4923189101647
89.6811063890843
