Value(μV)
34.0407230424815
34.9272238018522
34.3601863776123
31.8443043822488
26.9420174851156
20.415514036999
14.0442442349969
9.13177598375344
5.46848920712907
1.94645216534144
-2.0721545994268
-6.37309836687606
-10.7721641439283
-15.7962907336631
-22.0281813079713
-28.916079508923
-34.7507744327144
-38.0977024161913
-39.0668738230492
-38.9362659281967
-38.6874760970093
-38.3145712726874
-37.6357790935278
-37.2842745213408
-38.3165192686436
-40.7960258578893
-43.2440792670794
-43.9006253612006
-42.4554815911851
-40.2421304432343
-38.7438266611198
-38.290308177037
-38.4352747855734
-39.2404753784352
-41.5218732018855
-45.5664360818998
-49.9907531309919
-52.4167535340001
-51.4127092656152
-47.5336190330268
-42.3759883625228
-36.9590519211086
-31.4067659426329
-26.0533751338971
-22.1956861464556
-21.2395861534745
-23.2068581983422
-26.5393310512803
-29.5679873334236
-31.9356800677877
-34.3565315688283
-37.2064881283686
-39.8194192461514
-41.2844847927709
-41.5131225642309
-41.061029814252
-39.9667992929448
-37.2758423196052
-32.0507189291691
-24.6796058260232
-16.8402630815628
-10.1692612508676
-5.28198852539651
-2.1916171347457
-1.23456084828495
-2.97104209120598
-7.0637479807217
-11.7446873956917
-14.9027289117165
-15.7304881571631
-15.0366792874769
-13.9433304264072
-12.6835171196725
-10.9639738296345
-9.17770434275105
-8.5567817673804
-9.79472918901369
-11.865766313095
-12.7421636805347
-11.358468501419
-8.51974392976306
-5.71829289630215
-3.43399160927418
-1.06135521549931
1.62040716362894
3.60717143698633
3.78988824399948
2.66129826186065
2.26817647989925
4.22085749048674
8.10265533840171
12.193042187997
15.5137160174281
18.5822941614251
22.0434046001155
25.1992757941515
26.5980702013865
26.0349133905425
25.2823576318929
26.3720405976176
29.4177777990947
32.6479458129161
34.540501677815
35.3080829075239
35.9307801402402
36.2357290754564
34.7959136811134
30.9334722231127
26.14921514626
22.8723134237138
21.9010235384763
21.7203701601537
20.5431886379251
18.4173540870276
16.707497290109
15.8059781749453
14.3587865801925
11.2729273199565
7.8846897169061
7.15530377884854
10.5362322843283
16.3439338796469
21.7442796594791
25.8314966953765
29.8319631540888
34.2603855714927
37.0353575746908
35.4821270509101
29.9545023779761
24.272686401375
21.9349614525497
22.5405674618781
22.8832831506066
21.3668625537769
20.0678423644565
21.6768642902148
25.2147379009312
26.2779245430452
21.9719600158656
14.6211930683336
9.64509264086943
10.1695301376829
14.8531186660843
21.0260526784144
28.3131016410325
37.5834298120602
46.7774763933616
49.8264029492434
40.915349496365
18.8475678860621
-14.3065404295624
-58.1993442786555
-114.889600913602
-182.481572053792
-249.681647097535
-300.71362485838
-327.703895519139
-335.595859112811
-330.034837751003
-298.964987196325
-210.874779007219
-38.9434379779564
208.231002820485
480.919482789704
718.135917417056
888.234116342675
1002.54252402389
1089.4221582241
1154.71910320191
1167.5583637513
1085.04075994684
892.021560004551
619.671821683923
328.571022895327
74.0106030491865
-117.62822002769
-248.187207180784
-332.000452044546
-382.259649361651
-407.612686126909
-415.147976120052
-412.724329840253
-408.151815768641
-407.008737918219
-411.037746328504
-417.687536054583
-421.236993976332
-415.928183743502
-399.784955617213
-375.96393704073
-349.901824873488
-324.755573682205
-299.825182366335
-273.526782791014
-247.222862695351
-225.129748429666
-210.190722206225
-200.733557605223
-191.927792924992
-180.449060566767
-167.108931429837
-154.805951482505
-144.653384414927
-134.88740391125
-123.385460439348
-110.288085976852
-97.5461426220593
-86.3364845674391
-75.7903871152465
-64.4471191633914
-52.2636433145558
-40.5399536653186
-30.0834450430402
-20.2400464721447
-10.1045597562331
-0.212595523088396
7.64241627266618
12.3331218584687
14.6441999438681
16.3215187978564
18.2287278405817
19.946841215041
21.1323940095781
22.6228693025736
25.6908678907012
30.3793829263489
35.1301426146847
38.2872220292148
39.6785872066761
40.4256001629309
41.4010721796855
42.371388979329
42.7982336679065
43.0377102121706
44.2054174519875
46.8136240751199
49.9570671273228
52.1489550343763
52.813798288114
52.6576735251851
52.6130735203864
52.8158044432426
52.8673481649612
52.8492527996681
53.5848862732138
55.7148311627579
58.7815995905539
61.5485115541624
63.2035592974391
64.0012813675741
64.6656311965426
65.4459571389072
66.0411824660385
66.3484991782474
66.8828267835269
68.2056232403651
70.0858071117158
71.526800702753
71.6972063795039
70.6564173005794
69.058089507112
67.320703047979
65.3552938587488
63.1011875341411
61.0104564611245
59.7165272686742
59.2606711162098
58.8955873427095
57.7816651800677
55.7695987405462
53.3805421933989
51.1248071406844
49.0798614202509
47.1976683374353
45.7880956962422
45.4034688592319
46.1963342246097
47.5836225904905
48.7070368685933
49.1843219857605
49.2974675564006
49.4930945666875
49.9064701115807
50.493685603838
51.4848957363508
53.4296858497408
56.663314845596
60.8240759211937
65.0403761021734
68.601815104159
71.3674027655329
73.5333528346857
75.1660232582668
76.1059362655777
76.279705990602
75.914544417268
75.3230485620107
74.5251941390813
73.1874565552812
70.9417685909078
67.6904066151549
63.5905665843601
58.8600788424173
53.7191527056049
48.4903663304759
43.5949470522794
39.338063351048
35.7371007155425
32.6599452163773
30.1373829557163
28.4437580258783
27.8130529283335
28.1425340557445
29.0723901219198
30.3302795434525
31.8456880974833
33.416110711275
34.3301518481366
33.5089424000316
30.1585780913652
24.3039912230714
16.6768733060842
8.1518838238128
-0.608262654186833
-8.98375365111285
-16.0956404831143
-20.9419083215163
-22.979586270883
-22.559220286944
-20.7182045453019
-18.5174950224693
-16.5580686292166
-15.0433473040691
-14.1316955299146
-14.0811750067247
-15.0430529266646
-16.8242264428052
-18.9661610320263
-21.1018491271203
-23.2366196711717
-25.6903826292977
-28.7859025437291
-32.5813263211515
-36.8488586272718
-41.2529776263458
-45.532969871681
-49.5417144068377
-53.1508829177007
-56.1580755335312
-58.3251268087584
-59.5396320488459
-59.9416886968807
-59.8578935952158
-59.5729430925019
-59.164576237026
-58.5908602795398
-57.9479294708052
-57.6054437137021
-58.0435255920133
-59.5498257844829
-62.0943119781796
-65.4788216941671
-69.5230306264362
-74.0220394510275
-78.5366173783422
-82.3415339628434
-84.7062738174465
-85.2853306393144
-84.2461988155274
-82.0534826509416
-79.1962900535579
-76.1397462466037
-73.4333461958073
-71.686085323808
-71.3083947019361
-72.2627639507443
-74.1025468793231
-76.2613252570535
-78.2930261251275
-79.8770151834293
-80.7140745321381
-80.5332473890079
-79.2146434762953
-76.8386200913174
-73.5707250877736
-69.5270891232912
-64.7892994421643
-59.5168667256185
-53.9653075361509
-48.3688155419777
-42.8665775152493
-37.5998513724031
-32.8331652591775
-28.8615549327802
-25.7394888586223
-23.1587354106457
-20.6779677010563
-18.07370722472
-15.4067250462453
-12.7530513338493
-9.99497882604586
-6.99686588177974
-3.95839912601483
-1.44432760142986
0.0359563660312041
0.438210942143868
0.101827217381936
-0.694562412632613
-1.95822447671649
-3.71731583602079
-5.66933399801854
-7.27555166318795
-8.2232743715109
-8.64609698397794
-8.78738818299721
-8.54974456838039
-7.56169374821034
-5.71181774902157
-3.44471850240372
-1.40050101498551
0.131808976378452
1.19601753156388
1.60559848813351
0.670249942267314
-2.25486779074491
-6.9747399630022
-12.4329993050676
-17.5644208929693
-21.9855070891246
-25.6766164203989
-28.1694895060202
-28.4930260608927
-26.1600051745624
-21.9903512739836
-17.5929439950837
-13.9983393519981
-11.1116080696431
-8.66449168805078
-7.33780083733075
-8.36904540593511
-11.9251721554719
-16.3436703171664
-19.4838747647269
-20.7365493825541
-21.1707059705523
-21.5007897231732
-20.4493093984817
-15.8623182109183
-7.54304173406041
1.67217909853081
8.27754991216123
11.465271824889
13.6552856241518
17.5659416413665
23.2422724467478
28.3694751929169
31.1001527257855
31.6285414907188
30.549181338071
26.2475106045039
14.7976408984601
-7.35955324259425
-41.0363276288971
-84.504856211395
-135.027695261397
-189.175383474722
-242.012937375138
-287.508635849409
-320.411048234918
-336.042221593641
-325.620556702327
-271.758838781078
-153.156060525487
39.2913817785726
286.648704926417
543.621024703785
762.127613540927
919.471775449901
1025.73966421299
1102.11327820837
1149.62980659925
1138.82783499399
1032.17458845531
820.176117653663
538.72836803492
252.263910270285
17.4594696485377
-143.040851916488
-239.850329090306
-296.597283064426
-330.853388819578
-349.502630788398
-355.551082137284
-354.915587536909
-356.130736624667
-365.050591939666
-380.744022912649
-396.137770305358
-402.439595947252
-394.219717715727
-372.361319915753
-343.369695304967
-315.3459642571
-293.163474321264
-276.406185853078
-261.630429675687
-246.605729881442
-232.299596030261
-220.874092937541
-212.345295085264
-203.890979336329
-192.549027135744
-178.084315842064
-162.777857810703
-148.658202837228
-135.584819744466
-122.228862084696
-108.329038990046
-95.2444704384112
-84.247771589376
-74.9055717723526
-65.6221249013139
-55.5485184227442
-45.399582892063
-36.2983520584764
-28.3485925570358
-20.8310411891343
-13.6166955077158
-7.74183735404517
-4.25847005551162
-2.83526339100538
-1.97084411759637
-0.592457404322445
0.976576648313355
1.84116376125513
1.96685136872756
2.29561117127011
3.42730252453714
4.69301543308202
4.95878029269851
4.21898350302172
3.95312951483137
5.74592905724575
9.83355743684666
15.2668074607654
21.2928537954215
28.0772294405582
35.8813361800218
43.9091586244921
50.4890264236321
54.5120054107928
56.4070499533433
57.5044185702028
58.6376607522479
59.6795998164265
60.3904344612266
61.2671999612195
63.1988199075097
66.3992867157936
70.0684262242867
73.2652047316118
75.8966005804824
78.6028724200565
81.7619219978923
84.9175875401693
87.2900249753937
88.5894593702452
89.0428560743069
88.6962549798975
87.0603738805131
83.6727045039815
78.8598980982204
73.6629134332421
68.9684492403353
64.9155079134342
61.2464312457475
58.0045120820271
55.5618487472677
53.9477522772163
52.4863845681823
50.4042238357268
47.7601152886383
45.5295979058368
44.6799630291031
45.3244575184638
46.9140159923706
49.0827036071332
51.963333657176
55.5676634728367
59.137718098373
61.4752109620665
61.9943382225768
61.2633538370923
60.3865563808629
59.9808288565305
59.9253220019481
60.0061264056027
60.450197957901
61.5953785872924
63.1845836221784
64.328632841885
64.3197934325893
63.346728429437
62.2523616383647
61.6618449745707
61.540425600871
61.6030415287782
61.8785674447591
62.6097946721201
63.6556446092324
64.2942003267266
63.8146699660275
62.2246919350889
60.2105730629673
58.4226026440235
56.9757952212279
55.6975681692888
54.6394206640918
54.07422021466
53.9941713873966
53.8891666542288
53.2461062441365
52.2059737831023
51.519138495609
51.795467336428
52.9415092333387
54.415093697992
55.8455991665208
57.1147587776734
57.7926532879125
56.8082452062894
53.0395176447844
46.3158148423366
37.6816798990024
28.5738885898617
19.8398007112923
11.6558940708198
4.22446535383446
-1.8429477647378
-6.05889119971085
-8.81893168568259
-11.2985420310997
-14.4434813408301
-18.1627850819523
-21.616920635986
-24.1840271153007
-25.9447025977708
-27.2461551212847
-28.0991346328849
-28.2811207735343
-27.975637732089
-27.9987833672387
-29.1855176292097
-31.6236593165134
-34.6512984302979
-37.5812673943947
-40.2434643341324
-42.7658060102284
-45.0610586544014
-46.8344570632674
-48.1317794192431
-49.6156082649267
-52.0456092042011
-55.4912543456504
-59.2192731620569
-62.3952646360909
-64.7497095354328
-66.4662127899263
-67.5934996276373
-67.874404511465
-67.2524277711256
-66.3248351874386
-66.0077899013539
-66.6942581963213
-67.8842157894727
-68.7158015929159
-68.7335502270711
-68.0102702497223
-66.6462431260898
-64.4745469213017
-61.4394594994428
-58.1023875665223
-55.4633280497713
-54.1593804696251
-53.9610881799789
-54.1649149493572
-54.3693828465253
-54.6775477859851
-55.1740568674901
-55.5038534218054
-55.216638555951
-54.4465124036436
-53.9485531133837
-54.2942680037411
-55.1463421459813
-55.5063725671999
-54.6472325302848
-52.6165795964807
-49.7947520673564
-46.2202988972556
-41.644777996822
-36.2309619113044
-30.8718194606348
-26.5508867346807
-23.4279189625485
-20.7500248287639
-17.6854886459302
-14.0499459964603
-10.1077199624793
-5.88431773961103
-1.04653456277518
4.42994988948503
9.74734350623078
13.7642208138316
16.0176371770407
17.0645961286496
17.7195462745478
18.1403905131472
17.8750397387768
16.7045407764222
15.0791138919135
13.5173207752383
11.7760212825941
8.98342597959355
4.70510170133626
-0.341801790301012
-4.8365348456676
-8.01985627272487
-10.0954193425102
-11.5143113928995
-12.2237318701255
-11.9218679263963
-10.9241884409262
-10.3453644587404
-11.1653294050617
-13.253626453514
-15.564531175315
-17.2630285853338
-18.3883945530578
-19.3250140230173
-19.9478822269166
-19.7105432828976
-18.6013642339569
-17.6121156919738
-17.9086733438401
-19.6081311649027
-21.676842861313
-23.0956006020686
-23.8389308696081
-24.4928842006875
-25.1463055064992
-25.1386563859356
-24.0500676125755
-22.5622694047118
-21.8950190735489
-22.4094376224894
-23.165911255687
-23.0521982274447
-22.0316825552742
-20.8738033958458
-19.7671636011009
-17.7922400913383
-14.1251669794092
-9.39657632657868
-5.16402314287106
-1.85764974801692
2.18022302211154
8.97911895920306
18.3204070800673
27.4318706936903
33.6172931949429
36.7846779004344
38.7624964505488
40.1877776997054
38.9205815141656
32.2848321908427
20.7090684555904
8.26894721080976
-1.05626830234808
-7.66638348051393
-16.6588061948647
-33.9579040239358
-62.2984326104806
-100.588410675395
-145.959985303856
-195.111417571336
-243.160756075647
-281.588275752871
-297.842699093268
-277.397671579579
-207.418392990069
-81.3176703862786
96.5174259432214
308.318337891336
526.502057074052
723.561405030324
882.03916328668
995.824202244841
1060.95787852377
1065.53775072524
991.694125735321
831.761917752319
604.881940372366
356.25916833255
135.563582965959
-29.3143585400579
-141.623456921221
-221.824587797927
-284.819656235637
-328.992863954157
-344.321082795164
-328.441500002979
-294.207994627335
-262.933111280621
-251.2832282638
-263.253846849667
-291.298239998194
-322.523725619422
-344.590737281908
-349.604004586665
-336.464033412429
-310.985799405327
-282.442252880316
-257.84404675873
-238.333251327604
-220.84182164753
-202.998618934945
-185.92113400894
-172.143733328721
-161.618085768153
-150.819455365618
-136.13525394594
-117.630630782139
-98.975108146349
-83.8573078308182
-73.009204494381
-64.7236371699224
-57.46652287075
-51.1899682840125
-46.239156010565
-41.9387421275189
-36.9926034919236
-31.0784815658304
-25.333492385054
-20.9630460968828
-17.7584027336882
-14.4412409963954
-10.3458872702844
-6.22057164293503
-3.12510544702142
-0.904211171062833
1.74919564405009
5.70396432761498
10.2912030533581
14.0479268329638
16.3095148587455
17.673362819495
18.9165350895039
19.9369030527646
20.1357565324568
19.6673831163243
19.8072649037706
21.8393461718409
25.785524812558
30.499159175348
34.9187724809129
38.8956791426633
42.6985170310245
46.0589165549442
48.1384824333279
48.4759577732532
47.6297101245464
46.6259389825261
45.8801937415009
44.9106100553314
43.0989357643646
40.4338076752398
37.3135292190557
33.8199458798281
29.5712747998347
24.410436996741
18.9802762912651
14.3306862495312
10.9803265467729
8.6007919421229
6.69350513707374
5.3398587091682
5.03581081232133
5.86648527801015
7.17924291023201
8.26511551507755
9.20254011883941
10.7477802480824
13.3540731119672
16.5237106703405
19.2884361611949
21.199512431009
22.6045074928657
23.9415673765575
25.0322855024518
25.2972757318964
24.5778089594654
23.4621818858422
22.6821589310273
22.3521351288437
21.9977646050042
21.2822384279781
20.478093205078
20.1429255131082
20.5268280666364
21.5289252875143
23.1933117778643
25.9592413142325
30.2187325812084
35.7141582369521
41.5818911375397
47.0271691406614
51.7981647089598
55.9166208492209
59.1327435162407
60.9383465913248
61.186447990537
60.4769113194153
59.6929280510879
59.1579088726604
58.4087999507501
56.8362758577983
54.3737948863014
51.4050914850299
48.1041576957501
44.1479426167947
39.2091177080335
33.5681546692539
28.0011318913604
23.0412610454726
18.530530835476
13.9979887416029
9.33729095879814
4.91450298101867
1.04475594511765
-2.3722240949358
-5.51878271693788
-8.0924012115528
-9.35054889357946
-8.82710190700998
-6.8622738972748
-4.28050746479152
-1.63008462819132
1.05545854765177
3.73452778837249
5.87225168611331
6.75653211589891
6.29106560726684
5.23717190671887
4.52023399196065
4.40164030324863
4.49724529057504
4.5441369915462
4.8728469435863
5.96173225833925
7.68328001593807
9.27863181305631
10.1495696047649
10.4732894442668
10.8503906834854
11.4351170107299
11.6600933180839
10.8945929436164
9.17563755102199
7.08185837088305
4.95318198722071
2.50267503195638
-0.673240690214357
-4.37568549165128
-7.84124767154234
-10.5093400540284
-12.5439958666023
-14.4694812934788
-16.433033956602
-18.0565131886949
-19.0160412733378
-19.515201533408
-19.9889460794689
-20.4415436917575
-20.3383259757281
-19.2395399153314
-17.365745178345
-15.3610982874332
-13.5778323393968
-11.8305790133147
-9.92295000614832
-8.19402789677932
-7.28961135253301
-7.40672371242777
-8.00156826218005
-8.38297959707518
-8.46486636640764
-8.73861976648929
-9.54141630714282
-10.6052323972042
-11.4753398308681
-12.2145701822168
-13.4208660095954
-15.5005649479487
-18.1418792358085
-20.6833795458625
-22.8957288989358
-25.1550555816178
-27.8038610901553
-30.5797834820164
-32.8912253290961
-34.5631123557311
-36.0201037924616
-37.6193371523681
-39.0107987493566
-39.4164132049035
-38.5224930054608
-36.8491842701467
-35.1219446885259
-33.4771266707223
-31.553458371417
-29.3352684637831
-27.5780176979136
-27.1566020209913
-28.097757836844
-29.5235239700669
-30.5987814242937
-31.2999320668773
-32.0726627484893
-32.9049105847766
-33.0975780373554
-32.0742826825339
-30.1700214984482
-28.3298895298501
-27.0580610642928
-25.9369872024052
-24.2966260562
-22.1250207470156
-20.0310764136839
-18.3561324025569
-16.6691753408244
-14.3572157599199
-11.5357728086401
-9.043104942051
-7.47827749957432
-6.51763443159827
-5.39440717313025
-3.90016495056982
-2.58692214809012
-1.92638029439956
-1.58887186128929
-0.855250858709607
0.351163117960761
1.19791340192583
0.856866100276077
-0.541559766598776
-2.12834244585702
-3.38019003424662
-4.64138604373878
-6.43048512930659
-8.51746768475424
-10.0690305452172
-10.7138968054496
-11.104467288857
-12.1742055685707
-14.0104698853397
-15.7857770721726
-16.7957593134239
-17.1916863567331
-17.4384231510861
-17.2960566397866
-15.8195217412121
-12.504081834234
-8.08813699257199
-3.88787248806904
-0.478443075746762
2.54590944237339
5.4290995014913
7.35245757369293
7.17485342220511
4.98721887754984
2.375869656046
0.834524985404739
0.269031535848013
-0.365489444821469
-0.963590304955289
0.499042698187331
6.00088299793785
14.8254251034117
23.4698137259282
28.5532787338585
29.6187799045065
28.7782145295344
27.8280994112418
26.3112612050212
22.597519752039
16.2448548874856
8.44059820205882
-0.0771945516366586
-10.9360528898197
-27.3505479652289
-51.4020767460191
-82.3984144201784
-117.894181227446
-155.772714715138
-194.714906555702
-232.326883349251
-262.537017672056
-274.270553075971
-252.502328980664
-182.220169353058
-55.1592138658725
123.178758553095
331.494044166489
539.753454889336
722.453039640161
867.875857275395
974.477287084765
1037.18222027357
1037.96826237129
953.424651366607
776.020255620718
530.407282514336
267.71605165201
39.6752518032518
-127.238574918888
-237.591963363064
-311.067254401758
-361.523247470483
-389.044371069559
-388.135447033039
-360.405222476998
-318.865116640461
-281.498270927253
-261.507199150424
-262.047021094105
-277.109473170384
-295.639095576269
-306.254375183177
-301.735699933473
-282.156304484118
-254.451760218912
-227.739423043484
-207.498496451117
-193.382182432475
-182.179542770608
-172.331393224189
-165.12163911882
-161.713023966462
-159.945886453579
-154.925838247788
-143.009489430484
-125.036425249592
-105.609519791161
-89.4117660377323
-78.1856888146601
-70.6572669146836
-64.5184528771911
-58.1634280867759
-51.0635637185864
-43.3648434769116
-35.5599894610208
-28.2888168188748
-21.9699564032165
-16.4510646316062
-11.1768798978858
-5.8422629922034
-0.817455092022277
3.17977618791135
5.80359630310531
7.38899789254501
8.6014865235057
9.9557765770269
11.7326508297863
14.1608368928734
17.3888425100509
21.1956082145178
24.9013355137954
27.7525977985809
29.4085098471328
29.9748099271693
29.61001520734
28.2797547009048
25.988665876216
23.1059540739892
20.224714447425
17.6387930859703
15.1161115404084
12.3393507068391
9.52562186219797
7.45911125221187
6.87629886225847
7.93481468860546
10.3472764642855
13.8782197871773
18.4590849633456
23.7548204989637
28.8313682828279
32.5198051862865
34.1968392692949
34.1447432100617
33.1443143546387
31.8511751916175
30.6575965861241
30.0028198200501
30.4849502537602
32.4541797580856
35.5598329121336
38.889816967285
41.6375412031359
43.5808173104487
44.9078432152305
45.7317935165091
45.9432612507321
45.5026107582477
44.6537610089636
43.6824941445056
42.5184967393985
40.7443704989927
38.0621567079201
34.6759754002314
31.1691501781341
28.098982721755
25.8209941594814
24.6329385715252
24.8377746745564
26.4792345809921
29.0773884626313
31.8298554753671
34.1820114385831
36.1501717182105
38.0520618041992
40.0426731498888
42.0699233616703
44.2341427269442
46.9099289968006
50.2684430127427
53.7101690394239
56.0032678528527
56.1465184741384
54.0758978333592
50.4848623640681
46.0814879577349
41.2279746748802
36.3050360704514
32.1180236506433
29.5799726446924
28.897452823835
29.2448562363056
29.4092762715497
28.7327709358297
27.3470497377555
25.6021262855636
23.5499147636866
21.1317885264429
18.6737071429096
16.8414344684712
15.9585528059053
15.5221599568842
14.5894166946953
12.6341718595159
9.89310662533249
6.89377492771017
3.88283379404373
0.898615704510558
-1.7392973901762
-3.37401109074647
-3.64676495459615
-3.0673032558771
-2.72238988583527
-3.36854317137472
-4.92576621289489
-6.86782667375301
-8.87922479736777
-10.9049744713451
-12.6514663332349
-13.4127886322195
-12.663845931037
-10.7521108030339
-8.75798166728569
-7.58925733711857
-7.33410206801914
-7.5400317614793
-7.88553732560597
-8.27806669340938
-8.32388445946886
-7.1050656298826
-3.85729184841355
1.13106661458194
6.54595075580166
11.078144357476
14.2717464659482
16.2426334029334
16.8046903248138
15.3212131820193
11.5892477885495
6.56726320883438
1.80859383584448
-1.89093010372161
-5.00287611227717
-8.25927369603354
-11.3523922745192
-12.9698347471494
-12.1262812435013
-9.11915985710688
-4.94475131886772
-0.0205343704150565
6.03840712316482
13.2414578653415
20.1968980226652
24.7087269205537
25.4615207405837
22.8901754580341
18.3439561124726
12.7283014357277
6.28717341108313
-0.468538785360565
-6.23817064409759
-9.77397931729345
-11.1316924629085
-11.7019761079179
-12.8832490302665
-14.9494517276306
-17.3508968259982
-19.8122653390513
-22.652875979904
-25.9586690376523
-28.9082415738065
-30.4016965142687
-30.3418074785946
-29.9068037724727
-30.3553101276888
-31.7800349754754
-33.2930519312272
-34.2698372474544
-34.9490777099503
-35.6437809282855
-35.774682179488
-34.240787768007
-30.8367279198333
-26.906745433507
-24.271531777977
-23.635241539705
-24.3362170442808
-25.5662299256986
-27.3307218926271
-29.8966874510525
-32.6221049271815
-33.9810826515005
-33.0142742350472
-30.4362261189913
-27.9270998077932
-26.41403525091
-25.4283972646449
-24.2013471193367
-22.9002402091784
-22.3091834160537
-22.4456930138115
-22.1318858282457
-20.3039272088082
-17.4525863439687
-15.2642635763407
-14.7993917375262
-15.4477777200416
-15.8946585430272
-15.7141984509472
-15.4529911885196
-15.194567282843
-13.7486674933
-9.83263139303984
-3.86715197633002
2.01423197327731
5.94908325434305
7.9371763660261
9.13007421005673
9.91320755093761
9.43784064806861
7.24320730904947
4.65437367834582
3.76775579223884
5.03460872137416
6.52017730128112
5.96253732388839
3.17706528543298
-0.151673985375382
-2.88995381847166
-5.80125413484908
-9.97682294594806
-14.4761881307805
-16.5427977128148
-14.4783539797843
-9.65920980558926
-5.06634165015229
-2.09156196565902
0.398275565403633
3.68737806406888
6.80015258069575
7.35691318570664
4.62328785767733
0.651264782095627
-2.17246438821094
-4.07294854518832
-7.4337377782731
-13.4458353547809
-20.2271799141855
-24.9165655314326
-26.9788393769191
-28.2794628161026
-29.7955068001283
-29.5040692219475
-24.6453571699645
-15.6827792166229
-6.6362188264213
-0.902555059590608
2.31676361440385
6.29882759250244
11.8504257025809
15.6158979755435
14.1936371101985
9.03897076792672
5.74489910954251
8.23899544317232
14.9599083048185
21.6124336738384
26.6132912431632
31.8722634576375
37.8648961701359
39.8913199490977
31.2586939197712
9.92319348567635
-20.0112602188309
-54.1975560436954
-93.5585353171221
-141.433602496148
-195.348423261169
-244.453471713276
-277.122976599876
-289.176431673276
-280.402095353726
-241.759016244713
-150.90959827647
11.6050784819462
237.156614508214
482.124374206704
692.574044277159
841.193752327042
941.00478765096
1020.92208460269
1086.39076774946
1104.38906257273
1028.59393062413
841.374116576749
574.073208650646
289.241452003586
43.3392162434358
-138.404092590366
-260.323405371801
-338.564987044027
-386.609226481059
-412.474722376694
-422.221534865379
-421.890405323751
-416.533487590936
-409.478832461811
-402.98039266028
-398.31338476747
-394.514093018865
-388.05985127374
-375.366963756842
-356.051594737165
-333.126989551959
-309.778504699909
-286.752470768225
-263.64585287645
-242.116225287927
-226.150293605318
-218.148994880671
-215.308387139995
-211.118199120798
-200.92797309199
-185.59175658303
-169.375026448604
-154.970322322388
-141.490002559009
-127.218207533733
-113.046085597742
-102.096197591659
-96.1750268864369
-93.647635094323
-91.2850964918763
-87.5607868470773
-83.3207600456099
-79.4165893488752
-74.769463308241
-67.4847601833674
-57.4427825844348
-46.8452769045478
-37.9158643127044
-30.6386954410747
-23.2967207079045
-14.9542116915185
-6.67897711272022
-0.122858218057044
4.48869451827886
8.32927565920709
12.1077887265239
14.9625856714425
15.5998550530875
14.1683432920073
12.4429096642524
12.1236237788205
13.4095063236267
15.4682274861763
17.8903877671717
21.0952814316348
25.2890254873375
29.6173278415364
32.8513333753012
34.7971698763963
36.5798893260612
39.4029510564163
43.3435248330634
47.6023188237016
51.6423370879173
55.5327093987919
59.041875011318
60.8840634294804
59.4473157357923
54.3679210326875
47.0757119809749
39.6102558249654
33.1110379212463
27.6960424811365
23.5840591249264
21.7305807932682
22.9876645076507
26.8565563895112
31.5607331132605
35.553585037179
38.7690025519896
42.2304302998471
46.627787685467
51.6122489405026
56.48783326547
61.1813254750472
66.1516796514732
71.4153259315648
76.0549686817924
78.9289614608296
79.7399746928569
79.1985339019509
78.1962984957396
77.0801751446471
75.8134628836813
74.5633897386186
73.7724054713065
73.6155181232832
73.674304551388
73.3859220780994
72.7541295216257
72.4193055784721
73.0024156413585
74.5520396521216
76.7203569325447
79.2894340861756
82.2431110637414
85.2905461296175
87.593358309057
88.2477387507212
87.0713154198326
84.7822467660198
82.3664254758596
80.3877352704021
78.9681473474632
78.2322417497977
78.4376163999191
79.5400996459003
80.8188376415099
81.2017445254719
80.0472169911287
77.526545280006
74.2246777286938
70.5129406815724
66.4341951537555
62.0826132090763
57.8028893878582
53.845110201843
49.9347357427252
45.4131489481164
39.8907499610104
33.675748699327
27.49759268492
21.8968537182247
16.9943589462641
12.7758107456533
9.34215294113008
6.69559385254481
4.36068329211555
1.46204469613892
-2.66404544398144
-7.9472190111303
-13.7028562024174
-19.19479776995
-23.9773231967942
-27.7436663995259
-30.0930279947945
-30.6927859589146
-29.7017931356446
-27.8788706247833
-26.130185141416
-24.9237917264512
-24.1517644398195
-23.480768524013
-22.7112084594434
-21.7900066387686
-20.6446707286681
-19.2028548711258
-17.6176445170564
-16.3638248629493
-16.0056374373126
-16.857313922094
-18.8778903910673
-21.8200343399706
-25.3612322013426
-29.0797235045416
-32.4599654403995
-35.1136858821058
-37.051952969597
-38.6553332040919
-40.2926561978996
-41.9756444452588
-43.4154567554169
-44.3602734180686
-44.7643012224834
-44.6020975466028
-43.6484271943255
-41.6112343762162
-38.5294305685064
-34.9514049456813
-31.6263323529879
-29.0071891931777
-27.0710597379387
-25.5710456689391
-24.3616098077365
-23.4560431391809
-22.8825706846932
-22.6320252513769
-22.7779491357312
-23.5545113599591
-25.2192044170329
-27.8135484302392
-31.0457696337741
-34.3339731614511
-36.8884750637701
-37.8173626301344
-36.3854989493842
-32.4130024874865
-26.4992713285154
-19.7851106105317
-13.4238438363465
-8.27282171819144
-5.02707943341122
-4.40302985221437
-6.87388201893306
-12.0994091053034
-18.7816521357522
-25.3490312342192
-30.9028362156179
-35.4566331836116
-39.2667918433445
-42.1149931588566
-43.426309762322
-43.0180576829736
-41.4399667376051
-39.3752825505356
-36.8035514250383
-32.9939851522658
-27.3941013670895
-20.361740987096
-12.8862546736008
-5.70066307371285
1.11233734171933
7.64307485796065
13.5840453968942
18.3973385827114
21.9725163883208
24.8059590249696
27.3670544370962
29.4488947015538
30.3693422820985
29.7606116549294
27.8828844560917
25.047013754582
20.9892821414252
15.1736813829691
7.74167036837077
-0.156975426068632
-7.23360018116831
-13.1560250494714
-18.5164621741633
-23.7037833006106
-28.1167275356613
-30.7291229012958
-31.2688675301975
-30.4679229502279
-29.0526792660698
-26.8017691610508
-22.9202871207287
-17.2540026136461
-10.7622682380516
-4.64169372635518
0.749066624518598
5.80213577347126
10.6440015903421
14.6577153302054
17.21436724868
18.5533505173257
19.4861173689605
20.2193935656309
19.8987671268721
17.6012125413165
13.5443682576603
8.90327172750265
4.45493397906906
-0.101613789768383
-5.1552786281064
-9.84149127002783
-12.3230072944933
-11.6168544748837
-8.7444287663668
-5.66741904169264
-3.26304459039453
-0.866257704626708
2.11485022636546
4.75750517757345
5.4229458386766
3.86758657565082
1.85171289193519
1.25961959654849
2.00954800346131
2.41250851732927
1.50207621720973
0.263918743347251
0.132138452514415
0.788186928958943
0.323291382501484
-2.28673111645892
-5.64698635424654
-7.53794946633977
-7.71856426994032
-8.27236650998553
-10.9298762311079
-14.8058239426614
-17.5591734390556
-18.5082815492836
-19.5628421675143
-22.6309990268811
-26.8724380918743
-29.5207038942387
-29.3452497855899
-28.2465327003393
-28.8285656612436
-31.0852600127976
-32.5055390548546
-31.2774028250806
-28.0720348366386
-23.9737642205586
-17.7990366428811
-7.33031251015206
6.45237339011675
18.0227592296776
21.7732844573406
17.3791275138606
8.96585095803867
-1.44712059998699
-17.6002304832045
-43.843970961459
-76.9027605532446
-106.00593957354
-123.621994596949
-134.888641949673
-153.170593385413
-185.120283005323
-222.504778616295
-251.204128602874
-266.320678059334
-272.688751016513
-267.038960606351
-223.639754440686
-107.05117036565
93.4854932265575
342.548673493552
577.472619018743
754.714426989042
879.100325896196
985.562952268833
1090.89361854106
1164.59361560305
1149.08259322278
1009.888203094
767.789504590279
485.130606813685
223.511521199974
12.727480604162
-147.704588542535
-267.424414697884
-350.704292400758
-398.717680431719
-417.568855008889
-418.55881613714
-411.095657441758
-398.517118819118
-381.663140577672
-364.043935123049
-351.045550677872
-344.526973335862
-340.588067870042
-333.87255846753
-323.049831500202
-310.820601393888
-299.185629232086
-286.652356446649
-270.889654132839
-252.766883535172
-235.960868005301
-222.477811937762
-210.066394529224
-195.089568788936
-177.254376866072
-160.147542545032
-146.929967138662
-136.685097206383
-125.907951224534
-112.993280779014
-99.9811259499455
-89.6530154905082
-82.0573856623222
-74.9280339575808
-67.0936911716941
-60.1227957390453
-56.0345894029539
-54.2453610541293
-51.8775113746709
-47.0227217471049
-40.6621660976681
-34.8136725053736
-29.493616956003
-22.5676049282602
-12.6444671420563
-1.1251682758469
9.31462207634506
17.7827519315583
25.7345287971585
34.3497934746995
42.2606083610111
46.7096358306596
46.7159793439787
44.2057238478453
41.7196424628525
39.7106012102992
36.8528037956902
32.7618954575664
29.3878562102001
29.1455897233735
32.1489064773177
36.0862509534497
38.8707988263917
40.7084510559245
43.1287578056626
46.4998830558376
49.3778351973658
50.4633532473108
50.4707599532442
51.3866098413315
54.0600120524637
57.2127326065944
59.0486274340668
59.2957381142552
59.1084094398675
59.1798981895996
58.7185126190192
56.6483517178769
53.3560358992091
50.5887604944992
49.5917417988856
49.8878664380051
50.2034475640917
50.2085837835241
50.7581075970213
52.4194105892555
54.3751540920774
55.2260108778775
54.6146001244185
53.4778434661703
52.5901991668583
51.3673090968794
48.5578457085236
43.9272157125838
38.7130657843518
34.2720146226049
30.7380863902762
27.465138416343
24.5961669574068
23.5444789663556
25.5865521902063
30.2998943156198
35.8713980176439
40.9357645214293
45.6647937172368
50.8433729966405
56.2905367627413
60.7807646812898
63.5792636085971
65.5324785168028
68.2005189363946
72.0519775233363
75.952679456883
78.5203545102353
79.579019009361
79.9424198107492
80.00087314816
79.0976761385701
76.5325086985634
72.8159604591623
69.4540428692117
67.4705482754821
66.503211437255
65.5277803137361
64.165097861063
62.8765814348818
61.9281476196607
60.6441344032499
58.0210474338507
53.900365812836
49.1379466174038
44.5423047635382
39.9699381536492
34.7209578606973
28.6459638364111
22.4826351903979
17.0343033749758
12.3608288630062
8.07933341954543
4.31022836463492
1.89462214170188
1.48579901390531
2.65620794536646
4.18433558424499
5.15910302977892
5.50664343243577
5.37382468501274
4.35855017979043
1.75770955761947
-2.42983145515286
-7.11465729580715
-10.9794091504406
-13.6076647552124
-15.5350512228425
-17.2644642584133
-18.5882835728702
-19.0711228927174
-18.9481014534169
-19.1306814037895
-20.2288005084363
-21.8546143410258
-23.1445305115097
-23.8489803299421
-24.5998691406801
-26.0516262330838
-28.055616537272
-29.9321311938992
-31.4011947910779
-32.8494245109326
-34.5327556370769
-35.8042278553867
-35.4994831407832
-33.1166533273696
-29.3590899218562
-25.3922835697092
-21.7863661779283
-18.4543478341195
-15.5265261194628
-13.8460977869104
-14.2904217492752
-16.7252899815354
-19.9624043202548
-22.8583162470289
-25.2656115412527
-27.7675822337367
-30.6783637137816
-33.6451513466491
-36.2844524999288
-38.8755703718519
-42.0888273951529
-46.0595688606675
-50.0267857575964
-53.0362485309957
-54.8367591865372
-55.8886269967198
-56.5946382266368
-56.8423530059042
-56.4303645218327
-55.6856866096643
-55.2995828011968
-55.4943545464139
-55.6072496062564
-54.703049789504
-52.5097244286019
-49.5556304249966
-46.4260442306776
-43.1759581926874
-39.6613891918601
-36.2672171122345
-33.9390045759344
-33.3377831903174
-34.1265711139629
-35.2878454797567
-36.0945021478531
-36.5708214511187
-36.9833850198739
-37.145354724059
-36.4838714317107
-34.7455190516022
-32.354797328464
-29.9173829010204
-27.5049796087628
-24.6467593536706
-21.0287321351915
-17.0066164946501
-13.32447198808
-10.4660369758061
-8.46646909285966
-7.30678829950854
-7.21254631917058
-8.36105451399282
-10.3734254793083
-12.3148462924164
-13.2848140417647
-12.9336457857889
-11.3864263770356
-8.84896158383886
-5.51028325243669
-1.81416175966893
1.44213089064381
3.51910355367952
4.25114677965597
4.03950936654591
3.33836919857673
2.29150019742683
0.925807269462954
-0.494327437807795
-1.57685380375862
-2.31067889146715
-3.24962435584633
-4.98399746591655
-7.45529923730026
-9.94986366683406
-11.7883056913253
-12.85321743212
-13.3315822518619
-13.0998214726833
-11.6531863534926
-8.73369381915922
-4.83193965643648
-0.847171255164689
2.73340216496076
6.14748915830801
9.82465176209105
13.7338706418739
17.4202200817153
20.5733186449297
23.2844826936461
25.6509228632519
27.3415927891764
27.8080102173874
26.9102967040444
25.1168265314809
22.9989132774654
20.7090929411451
18.1407146860571
15.4797580934552
13.265472437056
11.7658920154548
10.5309692532486
8.88307741691493
6.8566307357455
5.37312484281682
5.32576266254674
6.67074030487211
8.66290365437719
10.8786645505464
13.5911518743973
16.910681123891
19.8352048274482
20.6407525691646
18.3740968768878
13.712244062689
8.15021107635174
2.5529470202742
-3.13355820829953
-8.80174420955039
-13.3764884864516
-15.5633271906516
-15.2874732120962
-13.9030844942597
-12.7688625651747
-11.9220053533077
-10.475815487404
-8.10148831037048
-5.54192273482888
-3.47433847459169
-1.36789305161139
1.93011057247033
6.5214801935045
10.9756995256495
13.8602670907904
15.3751614894841
16.9059890892407
19.0454576247748
20.7836289296661
21.0867864657771
20.7605359728291
21.8390346503551
24.9397764063733
27.9863076489229
28.2689427268004
25.4936257427872
21.8883344311012
19.0204606060392
15.3701992248201
8.07724016421188
-2.95697972999296
-13.7078091738504
-19.4040016956239
-18.8409541872054
-14.6808415366807
-9.84431288925267
-4.902083259494
0.26633412043028
3.15091956435035
-1.47889551285919
-17.8822409046281
-46.4013103403205
-84.6291601492884
-130.251368679402
-180.947397996533
-231.624264948412
-274.257093689325
-302.515155744673
-315.098810038587
-310.41549707981
-275.961761389078
-186.807678082082
-22.4673674686441
208.960913755132
464.284933236343
688.887792866782
852.957266148498
966.202794407461
1055.19074967566
1124.67363409129
1142.10494094254
1062.68191227346
872.024632322015
606.100244712009
330.529407914666
99.7390716990227
-68.1482877568653
-184.599571439573
-266.978872749831
-323.24994364569
-354.729059060886
-366.108129463763
-368.359085077634
-372.466684520744
-382.798567908362
-396.995862753518
-410.361337029575
-418.972996168795
-419.909067988291
-411.375782602408
-394.189136564874
-372.267078004115
-350.073657369166
-329.250772372682
-308.551760981497
-287.31888116152
-267.980512401138
-253.999060014624
-245.568116810591
-238.585110958926
-228.591565153195
-215.177928640543
-201.68392810268
-190.781042615601
-181.432040224887
-170.694747886082
-157.668186655745
-144.457165943441
-133.176486079146
-123.119139188951
-111.743731330262
-98.0125213946333
-83.6676648038867
-70.952201594
-59.9816463056825
-49.2379975668001
-38.329271090685
-29.1158784702232
-23.5560819316914
-21.0717182534344
-18.9347171393241
-15.2310535637355
-10.6235650683242
-6.78469905415051
-3.75741500821476
0.182765790915454
6.02423256280287
12.3115707617174
16.6553534697917
18.6343074271512
20.3907288236698
24.1650374374656
29.9033554437612
35.8551622939178
41.1350100159915
46.759342131785
53.8389152812898
61.4471417800479
67.1222940497385
69.4851254874153
69.6807241986214
69.887457826498
70.8861528132962
71.7328949702965
71.6745496840945
71.5259478892575
72.6149202215664
74.7876632629923
76.2748720129037
75.7335448432823
73.8648430517844
72.5549048693271
72.731194697499
73.7330549222557
74.8617756480116
76.8125585261712
80.8870167701283
86.9649892149248
93.016904166459
96.9920532352942
98.7711368276326
99.7203433051265
100.483061742135
99.9285243947374
96.6245260550901
90.8498954405975
84.4355586955449
78.5939653339833
72.5872210930761
65.0320501822959
56.1947000904277
48.2947118243049
43.367132136757
41.3392309886563
40.6399310970086
40.368984967826
41.123544100337
43.483404609462
46.3255459425781
47.3917704554635
45.5629950124841
42.0201910614118
38.863857950909
36.9728061000364
35.7267337905
34.6722908620845
34.6876539115943
36.9933094188739
41.3376755873416
45.8647889734739
48.9923632153967
50.9877344033389
53.3060989597405
56.6303694474071
60.1417516150544
62.820677632942
64.8818110029768
67.3531069220467
70.381418384056
72.616964234742
72.6315827793436
70.6231160017309
68.2381497953285
66.7602764405066
65.9718976470013
65.0159540889547
63.9118002901075
63.5760215397732
64.2992434665411
64.7979636910992
63.2817564920733
59.3310224671248
54.268002776322
49.6026327090125
45.5550035177664
41.4417020281391
37.1995670796572
33.8542725476462
32.2357960495664
31.6695276632337
30.4826187803033
27.8038670889348
24.42562665795
21.6918169865262
19.8923303783812
18.1814972019033
15.9470450864996
13.6538166704301
11.9853533542128
10.4891427958212
7.67703890842077
2.62531094740918
-3.90401086731883
-10.2364263487835
-15.4537740847087
-19.8778512683398
-23.9407449336405
-27.1660102993635
-28.7602997933847
-29.0351337088165
-29.6294012434408
-32.0065030060682
-35.9922961784896
-40.1465014170712
-43.4458646711886
-46.1332014223676
-48.7809305685931
-51.0270290843652
-51.8504963483299
-51.1114715833984
-50.2533836024832
-51.0368778777767
-53.7276382516393
-56.9376266514992
-59.2581644336301
-60.5868716805752
-61.5484546586589
-61.9695636503237
-60.6122172045243
-56.6580441666594
-51.0293843755948
-45.7272554576436
-41.8797461840139
-38.8631703637187
-35.5057216710256
-31.7648723741944
-28.7672276715449
-27.3076887638181
-26.894867126043
-26.6186859665638
-26.6323613269359
-28.1889239503568
-32.0678262625558
-37.3594677282774
-42.1464547895322
-45.2165438414711
-46.7161564183809
-47.1524867446332
-46.324504797662
-43.7298078890626
-39.8636485077438
-36.4996125745953
-35.3188148184169
-36.4443276933422
-38.624847252793
-40.7391081088488
-42.6899858627911
-44.7051163430755
-46.2430926866486
-46.1917971034452
-44.2101007816949
-41.4014936480636
-39.2857007244159
-38.2494463087011
-37.3670054561641
-35.7279666448186
-33.5060540543922
-31.4535196444626
-29.6717835541252
-27.4687573137773
-24.5761327062298
-22.0463872663459
-21.4524026520839
-23.235313031828
-26.2430089135517
-29.0337168794374
-31.2778905778395
-33.5295457186444
-35.8435195351132
-37.2583524506924
-36.9710171358517
-35.6652384886289
-35.0918302141455
-36.2047084144554
-38.0801666548071
-38.9396891564939
-37.985923294408
-35.8157075558906
-33.0993816132545
-29.4710346785907
-24.2062791210076
-17.7855233799333
-12.1490142538789
-9.07883958603233
-8.57529366033679
-9.14753070831507
-9.54555954710526
-9.74383160721557
-10.1368507833569
-10.3261005623108
-9.33806361556054
-7.04847377857651
-4.81616071853847
-4.26981590553036
-5.62017886307765
-7.54797255244954
-8.71596974788189
-8.91363622815835
-8.46377959461243
-6.94619167032341
-3.23985230533773
2.95710031535219
10.1373447619706
16.0442158766436
19.6876362302099
21.9099233952644
23.8857554503083
25.5521639656085
25.9751679202975
25.0359190169094
24.0220036757001
24.1524017662461
24.8822368553515
24.28219885731
21.1872774668287
16.509753173317
12.1350504970291
8.87051674119783
6.03858202159466
3.05817994352774
0.721898890501645
0.333744251890625
1.80888459877746
3.33703719017856
3.23730749162856
1.75229524764266
0.552981985896853
0.657481635367307
1.46190085850305
2.01697223355325
2.65034689336841
4.587117120133
7.98257129189614
11.0626277866594
11.7499157114566
9.89171711965194
7.31598203327232
5.67807812337126
4.87076482937582
3.94025184095458
3.06435867495767
3.71837290654958
6.63632875716016
10.2844609365028
12.0759750864232
10.9923000289069
8.3449409343631
5.78134970912143
3.25338848050007
-0.317693716457177
-4.66172862111004
-7.53928021186161
-7.10767510517078
-4.32833562272022
-2.03266212790411
-1.49605805260934
-0.865008876671059
2.30835476721256
7.50977574081981
11.4440262993471
12.168938569967
12.1661868855808
16.2428005600035
26.4183937505761
39.7714072312991
51.6257946848669
59.883386845422
65.1176460695444
66.7688905541356
60.9514932617233
43.1698200783957
12.5427617596346
-28.0004492327042
-75.5291349063859
-129.074175349101
-186.229016507671
-238.969152644217
-275.971236654087
-290.768668238306
-285.703390518254
-264.225769623593
-218.334373626469
-127.319150589402
25.4199789124713
231.363314443076
454.156234904488
651.507298642092
802.115441344959
910.894721697065
987.413124557276
1021.17713364877
981.973823044906
847.691875105238
632.56742602348
386.89800183981
167.032990128764
2.83529013149035
-109.854116641093
-190.262779313881
-249.890192683236
-287.226437426963
-299.625979614742
-294.837181726668
-288.724191450371
-293.070192378957
-307.56715060494
-323.610064784911
-334.042801707077
-338.059674163366
-337.798026931935
-332.719013381693
-319.027363832915
-294.442359159773
-262.517204067853
-231.738914542519
-210.367106090663
-201.655333030003
-202.758318173348
-207.047774637398
-207.641760397427
-200.356579397787
-185.174683352799
-165.697122751069
-146.693157881171
-131.188192844991
-119.228726213586
-109.173663855257
-99.9965405038264
-92.1969653138533
-86.6153985290236
-82.8212488528275
-79.0715865723317
-73.8473312866699
-67.1328939552989
-60.0579092716774
-53.536476570606
-47.5828447280455
-41.9052586850234
-36.7127965845582
-32.5355420657796
-29.297396110475
-25.9460335123952
-21.2707802031861
-15.0343248363424
-8.13525069688781
-1.68399289006851
3.88429323162253
8.73099603049318
12.919613520723
16.1570540677888
18.3204000918032
20.0031768680973
22.2417418190139
25.6183281187879
29.7427662432536
33.6864366255777
36.8459942010571
39.3039446352127
41.4573840072917
43.5500145818567
45.706111410129
48.2792503950624
51.8685906775418
56.8013100664493
62.6166681402378
68.1567478988304
72.2000525916104
74.0189004910386
73.4478844603864
70.6710605586312
66.1510854171846
60.7270404703342
55.5197682268165
51.4733203436771
48.8778229695068
47.3457875709566
46.243897383724
45.1055717602133
43.6713468182012
41.7394256467067
39.2285957816566
36.4639043791382
34.2389544567585
33.358341761772
33.9981665943961
35.5364698623724
37.0427677281769
37.8981156510914
37.921008246633
37.0200312248526
34.9695409133074
31.6825034044566
27.6247373782685
23.7312616249439
20.7522610557427
18.6891679243478
16.950039374443
15.0575609419059
13.1347540795932
11.7011211247107
11.1373870723287
11.5010826424114
12.8329512726168
15.4137610104315
19.4940170819622
24.7409658539394
30.0951086205932
34.3126327546904
36.6921221044611
37.2976123298125
36.6012849229314
35.0964557893832
33.3134620825786
32.0205762940825
32.0909953072354
33.9658457269751
37.2510062448264
40.9420159171171
44.0954021840768
46.2839283737386
47.4714102570238
47.6296084359854
46.6431628130086
44.574275777041
41.8375381274115
38.9441241615964
36.0565886637347
32.8876529788423
29.0991184452846
24.7829240649131
20.5354583337216
17.1163358264093
15.0959743845125
14.7758920067325
16.2562085026942
19.3937234604469
23.6672110127057
28.2090166235199
32.1118745087045
34.7828690520642
36.0587961026859
36.0892306873546
35.2211068956035
33.9759825000282
32.9400623817109
32.4339396041774
32.1865527525941
31.4036795158125
29.2793705678073
25.509052861795
20.3469962391289
14.2690660682162
7.72276058969119
1.23784221452349
-4.39306630298383
-8.319078659365
-10.1867135847501
-10.4790435453846
-10.2058313571724
-10.2021815966159
-10.7100286855073
-11.5551465454133
-12.5509523055432
-13.5976183484392
-14.4565140038108
-14.6620652129791
-13.8495346392377
-12.1809425923291
-10.340535160619
-9.0413382086991
-8.54614383126352
-8.65659460561463
-9.05100708372263
-9.49748981179692
-9.75238157833034
-9.44498620968247
-8.27005343762769
-6.3416699890707
-4.25767491588756
-2.71823240343695
-2.06829805888473
-2.21091211886765
-2.87740450375941
-3.85254316237484
-4.92503605886823
-5.78738788762402
-6.19511691997183
-6.28858612286363
-6.65474958808315
-7.9479214222639
-10.4165280921705
-13.8043978324443
-17.639132023042
-21.4824418211808
-24.8700473399929
-27.1843949167283
-27.8527306625954
-26.8077533348906
-24.6924869716557
-22.4882595039547
-20.8982838870091
-20.1010782682459
-20.0217349034061
-20.6494074969244
-21.9570997031144
-23.6013310998948
-24.9445443772893
-25.5345272071853
-25.5188135296625
-25.4622494477642
-25.7381465749522
-26.1894214222177
-26.4141493410736
-26.2509311219145
-25.8341275333847
-25.2195908501556
-24.1990087877262
-22.6778128705619
-21.1831169083224
-20.7766273382369
-22.3171832417459
-25.8286231562933
-30.6313090480426
-35.986586058483
-41.433494073525
-46.4912532832133
-50.3046798684065
-51.9245734603267
-51.064656851024
-48.46048648958
-45.33588619134
-42.5204321674409
-40.1566721380372
-38.1890579904494
-36.8851207660495
-36.6841253431917
-37.6063269104107
-39.0578466215596
-40.3594454760389
-41.3802268936816
-42.4973467908272
-43.9330287268158
-45.2781425086283
-45.7527130209565
-44.8446302550957
-42.5691546315847
-39.1529101188301
-34.6784591980392
-29.1857584587153
-23.0362887666493
-16.9636498681793
-11.6532501731287
-7.31833602401647
-3.73412680894639
-0.60257119510381
2.23474982649726
4.89310672934366
7.51878953060345
10.0764584795679
12.1061449168534
12.8957934220494
12.0285539666711
9.73200047369374
6.64446451823204
3.33130881141463
0.177443764281183
-2.2795657916848
-3.19248624606422
-1.87753300645277
1.49676246258686
5.85311326919743
9.97279128680606
13.2941717628128
15.8997928380007
17.843197491004
18.7609524339363
18.288997619568
16.7005757846542
14.8416301528597
13.3261526141651
11.9358589828462
9.96435088211384
7.09362089203059
3.75449491088415
0.603243703329348
-2.14818982714743
-4.69671056744425
-7.03581836188179
-8.65634488434677
-9.00440893941896
-8.10822804590776
-6.54319097059625
-4.76029781955795
-2.61531492370984
0.346594398466589
4.2581916073958
8.72336204962581
13.1675608043867
17.1692497895806
20.3688413855142
22.2605521926001
22.3439997317331
20.5240673595462
17.2424976194904
13.271985621977
9.70156471760883
8.29730207420337
11.4365550044043
20.7719039298677
35.3029662085064
50.9166910111164
62.5282076994448
67.1783833108838
65.0157228414643
57.1829184568634
43.2183622589925
21.330255584689
-8.53663955926084
-42.6717124136961
-75.7016424402875
-105.064420158249
-132.817715816486
-162.389320957008
-193.692799577798
-221.958768780195
-240.945655713441
-245.502367898225
-229.337364706849
-181.099310864323
-86.5599125284508
60.5506528709115
247.483915752474
443.659967353824
616.744323082593
750.913949595801
850.125516633781
922.327899343329
959.626207217992
935.083613089414
822.149736535141
621.022196643815
368.471356682516
121.414850506679
-73.1701988535536
-199.02141216225
-268.822795899744
-305.938661347266
-326.794710887655
-336.101084086043
-333.55490125706
-321.880702598463
-308.321217192517
-300.09054785955
-299.760478780242
-304.971157281023
-311.615109981177
-316.628520406758
-318.064149271036
-313.645761495638
-300.559545374658
-277.519188262499
-247.267640137391
-216.682169538566
-193.527082456331
-181.884425087579
-179.657663530266
-180.072063534865
-176.064367542096
-164.397366721462
-146.821129285444
-128.006083303307
-112.215184943476
-101.11215026349
-93.7584940127146
-88.1138416306219
-82.570822710079
-76.5185715026085
-69.9448276314821
-62.7776539867222
-54.6421504771372
-45.1728399446773
-34.4882317688945
-23.3219613611795
-12.6656797670736
-3.25652196015622
4.63025441091426
10.9699371911717
15.6883259826447
18.6478684443886
19.899584264799
19.8315106491188
18.9795726719246
17.7176155624764
16.2221625903838
14.7558396852261
13.8679245883913
14.1692979883687
15.8718974952
18.621417499357
21.8327553773559
25.1321499565779
28.3889834990269
31.3616345985245
33.5037255191477
34.2910396357185
33.7449929044599
32.520493503618
31.4174006348929
30.8659887711527
30.9490984216786
31.8310397639066
33.9478697492754
37.6424072427359
42.6835572534955
48.3131102308204
53.8312648027629
59.0576058475187
64.1498191490442
69.0531850949887
73.2946069075181
76.3773481644724
78.2681349500187
79.363490758113
79.9892945877465
80.0635919994054
79.3185647758316
77.7614708987578
75.7765600108202
73.7546646934547
71.7321221751288
69.4744505125246
66.8587434379206
64.0646378926724
61.3857134514106
58.9711039806332
56.8401287041293
55.087119298558
53.9240095396319
53.454274814446
53.4658849393516
53.5163931162079
53.1912355660507
52.2069626188834
50.2969224889694
47.1667063870159
42.7174988422471
37.3073967706188
31.667048727563
26.4779194359136
22.0655637528519
18.5350949205574
16.1009184583754
15.0948751799757
15.5709363462036
17.0181914985757
18.6390417123847
19.955629855089
21.0507883982501
22.1579982365462
23.1153672412164
23.3778588372193
22.5841425904684
20.9641270150484
19.0558266861806
17.060689428787
14.6249254558538
11.3108105614808
7.17287231745061
2.73974841179767
-1.54889394571812
-5.73739222231627
-10.1031166658323
-14.5885568171074
-18.6109125618443
-21.4534900513502
-22.7557238427688
-22.5775651903865
-21.0959682195185
-18.4141729061807
-14.730634589252
-10.5991882760107
-6.8968097150212
-4.49393700236698
-3.95429783902385
-5.47477266940635
-8.94810770937054
-13.965003457109
-19.8017898777916
-25.5646757190842
-30.4685675128666
-34.0106661207962
-35.9113441873506
-36.0048339080591
-34.314619173956
-31.2332395139692
-27.485136805157
-23.7745515128192
-20.4545920701511
-17.5916986799655
-15.3225795607819
-14.0087844751556
-13.93859200239
-14.93190776854
-16.3750316250057
-17.6833609212725
-18.6307061714689
-19.1494333824872
-18.9147615934234
-17.3482390647474
-14.1458582210929
-9.7145810765949
-4.94597460602074
-0.554944380579244
3.25045786305727
6.43797252353689
8.69041637476904
9.50870607712879
8.80301766113198
7.1946827000484
5.55862797679874
4.28918727456516
3.14363202693047
1.8078179969235
0.435194940790449
-0.519602658968029
-0.914627059832497
-1.14078656519253
-1.6339117093007
-2.30642085327906
-2.64698703462408
-2.37584444989409
-1.82525282428439
-1.57263891308038
-1.81198126342971
-2.2564406980124
-2.64115470777452
-3.11372803198519
-3.98848268524951
-5.2236919484316
-6.36488786375241
-7.06899677733393
-7.5317539805546
-8.25237611775601
-9.43946717930275
-10.826406060439
-12.1024733932701
-13.337064374974
-14.7995884762678
-16.4264522871843
-17.7053127420371
-18.2096757845744
-18.1232954626949
-18.0534127352134
-18.3366445955799
-18.7089223931793
-18.7432083388771
-18.4551322236579
-18.2639927578702
-18.3686093235479
-18.403184060105
-17.8935441654571
-16.9707665391622
-16.4169825380154
-16.9403876421029
-18.5451993605811
-20.7203200365548
-23.1142600435786
-25.7810710372612
-28.7183062797078
-31.401539269822
-33.0330042804096
-33.2553544184418
-32.4361475272559
-31.1693600150449
-29.6419491335801
-27.6416319399279
-25.0863232401194
-22.2634774156012
-19.4163842485103
-16.2763474300709
-12.2730050455273
-7.24299453385826
-1.73288958565697
3.52416726846001
8.29703289184053
12.8269253748676
17.165586842171
20.8385840385986
23.36251194358
24.9552137897627
26.4381168204762
28.3586084967499
30.424785001751
31.9946919267496
32.9990894879738
34.0902502784736
35.8135530170776
37.8975307519457
39.616781359386
40.7490907095295
41.8180547145065
43.2322610107264
44.4286013094163
44.2042556967767
41.9141712794372
38.0690646382614
33.618382878233
28.8950402544556
23.6114937626038
17.8642544766576
12.7096011394683
9.39084573524778
8.08750550841379
7.76003746507244
7.30915126193783
6.59882833112592
6.10121621332472
5.74791722495858
4.60926269347708
1.89130039359243
-2.06240764745401
-6.13703804736486
-9.7583095384224
-13.4528824397432
-17.9280431712105
-22.8964772641986
-27.2148181043398
-30.1568231506472
-32.1248400084532
-33.8616387928514
-35.2638913206133
-35.4683131978744
-34.1654686403839
-32.3727743527702
-31.530547011871
-32.0039482389494
-32.9167604741245
-33.5105604053392
-34.1785011524831
-35.7414500814574
-37.9379949044289
-39.2732999445596
-38.6319695980401
-36.6312366696012
-34.8658779526863
-33.9033300869197
-32.6082692762971
-29.7341653135384
-25.7483613682848
-22.4713277957663
-20.9304010128259
-20.2117252857634
-18.8487212877262
-16.9533835447211
-16.2484479195358
-17.8399902098619
-20.501340037317
-21.5641958832693
-19.1566202366781
-13.0048847727109
-3.32885562534468
9.81173183500683
25.1602227557936
38.8193507572939
45.7346585266018
43.5919901872832
34.7832028438163
23.5338401865639
11.0376643370368
-5.65276723872903
-29.4827992036158
-59.0872425407839
-89.8243746491638
-118.850681126373
-147.483277297112
-177.547080432594
-206.7711744054
-230.193294439273
-246.116703714732
-256.873888216971
-259.129294818545
-233.123371738946
-147.312749026537
18.1386060478557
247.88473343338
493.119361620851
702.550975367292
856.879012230481
974.155537519218
1079.67641330233
1168.79963037376
1199.16509261106
1121.30953108041
920.646035533533
634.119203014072
329.079044428578
64.6417325277073
-133.469549638505
-270.677620262428
-364.3627547798
-427.309736003787
-463.925812618403
-475.477195103022
-465.599739906726
-441.638025952376
-412.809675678841
-387.49751277201
-370.774952233123
-362.894990908153
-359.833490960162
-356.051150685081
-347.66092765903
-333.712225528132
-315.29063237485
-294.198044155598
-272.572378676868
-252.792191320236
-236.451510366307
-222.956731375446
-209.718633841789
-194.510834398034
-177.779907601671
-162.262302965471
-150.187615660812
-141.202143810922
-133.299678050329
-125.422185848985
-118.464704706433
-113.56134358554
-109.984901494963
-105.399274204948
-98.1492131315458
-88.7290915325017
-78.7329642319018
-68.8251610776881
-58.3774228988809
-47.0824360550994
-36.2329378398559
-27.8509593426488
-22.7098071024527
-19.7264019993457
-17.4033385360654
-15.408455923669
-14.3650740388768
-14.3779079079391
-14.4268132933575
-13.460136635952
-11.6573861565522
-10.0966345075056
-9.22523787399683
-8.1540793888221
-5.70400687588815
-1.80818583422029
2.57211407582751
6.85072776043768
11.6093048308107
17.6915788662456
24.8220559719221
31.6528955714921
37.2660631423577
42.2057570192955
47.6860370616518
53.9778243610651
60.0325730654382
64.7743473716336
68.3351795225815
71.6417081272861
74.9708684277986
77.4457784368026
78.1717512735797
77.5222788172368
76.8709149766943
77.0910608322344
77.7303075823253
77.8444671259679
77.303687169885
76.8328358338473
76.8058893426638
76.5062174438903
74.9375224472464
72.172505906037
69.4594792449143
67.8999073869703
67.36328741785
66.9805197258024
66.4928935953508
66.6511947934371
68.1617962421987
70.6190595714435
72.8801331328217
74.4246535570259
75.9325470281121
78.3242075570844
81.495258171013
84.3422795072775
85.9800632768543
86.549637573186
86.6477608169581
86.2678599341273
84.7434935111577
81.7734530352259
78.1139206215682
74.9486363949807
72.7036703526202
70.8043535812893
68.6181665066788
66.2846668236253
64.3586108815805
62.8502553686629
61.0807361618753
58.6455581214971
56.2124588710321
55.0059385392859
55.5273628547313
57.0848159534965
58.6811211460722
60.0682333407404
61.6159758598645
63.268428596416
64.1059469588418
63.2277686578377
60.8730047957031
58.2976309913056
56.4837113089309
55.248682412869
53.7956270735116
51.8928316168945
50.1151686502179
48.8854847175647
47.6725796545604
45.4930527019539
42.1157123953344
38.3997074258786
35.2931990871321
32.7406987157216
29.8452469889619
26.0020659303069
21.5110696163997
16.9401455813973
12.1881098558576
6.55761580160341
-0.24681438009691
-7.54244409426407
-14.3118482441808
-20.256772214933
-25.9291090895334
-31.8360228162069
-37.7350869392792
-42.999131741454
-47.4422935790532
-51.3954178349188
-54.9083633466535
-57.233068790796
-57.4334842529398
-55.4548892791204
-52.3069010243178
-49.1234337760765
-46.3061264599733
-43.8005992601889
-41.990806576601
-41.8278271212666
-43.8417882229715
-47.2735205028712
-50.5573393956267
-52.711521287556
-54.010233308426
-55.1953900256227
-56.3225793707652
-56.7409497283825
-56.1593964013803
-55.2888157069481
-55.1035497516035
-55.6129119066134
-55.7398901735437
-54.5199866543106
-52.1515913747271
-49.636266798232
-47.5582708365069
-45.5992495631227
-43.3310424617842
-41.1099262646136
-39.7911907662968
-39.6064995642391
-39.7154084443105
-39.0903398698366
-37.6483335467253
-36.2174614214293
-35.4464501644037
-35.1124271603359
-34.6816293289172
-34.2613103205698
-34.5607089272273
-35.8536967248434
-37.3507431399926
-37.914619673884
-37.2869256580444
-36.2815978313437
-35.721392747855
-35.5158264583543
-35.0511303952671
-34.2817735747354
-33.9589294989559
-34.6039285607488
-35.5898428339779
-35.6612757024728
-34.3708179999795
-32.6529846449126
-31.789431536622
-32.0480677080585
-32.6665933969626
-33.0767123245102
-33.6422668684806
-34.8518384351859
-36.0096806346716
-35.2465748021945
-31.0601470628211
-23.641746974075
-14.4732495909473
-4.80072842503078
5.10420657198858
15.1327376931966
24.2724125008001
30.8742482477631
34.0362974013475
34.3774454734701
33.2245471041663
31.2369525805118
28.1393240843467
23.7387402039704
18.7676531413401
14.4296567519564
11.299556171818
9.05400997010036
7.33257748564489
6.48440572618751
7.12555768118795
9.06583224030752
11.0523921533728
11.7317910384423
10.6604750730801
8.18884397503892
4.57550588579084
-0.329076038376126
-6.3714727117765
-12.4178823407675
-16.8309784402243
-18.7021986746894
-18.3839611802697
-16.7235520897217
-14.0524967306857
-10.2242805845966
-5.50047928374767
-0.887973810513188
2.72059534602342
5.54032438878091
8.62898077240264
12.5578194408782
16.6496021522354
19.7485142127481
21.5253759609205
22.637567130196
23.5900282602254
23.8839540938933
22.6686745342381
20.0812969428622
17.4549274784092
15.9811432974535
15.4283885432874
14.4948124270625
12.3106731111595
9.18673075129604
5.77630323883324
1.94110912173954
-3.03958195198723
-9.15628301676282
-15.0683487777037
-19.1554036823301
-20.971200428124
-21.2789686040818
-20.701867341665
-18.847131910295
-15.0924705201632
-9.92235295855909
-4.87758000578655
-1.02236027120438
2.08066732787089
5.43443458851802
8.83976682589148
10.648398588253
9.50811738159624
5.94651274919871
1.75192123513717
-2.06632731280507
-6.07543492688568
-10.9193648837261
-15.5502913720546
-17.709036487703
-16.2901453872297
-12.6630402324985
-9.20090570885625
-6.79314353680841
-4.43071669453729
-1.26529128554559
1.70893216919271
2.72621634190799
1.7611624462135
1.08153359958793
2.83245957740635
6.55027064323512
9.80367622168546
11.254322721582
12.2460110040222
14.7859198873067
18.4130337786636
20.0550620683935
17.3382683164367
11.4084569466189
5.75584645645258
2.39188018048314
-0.0366940362933121
-4.05597432678314
-10.0160191831721
-15.8600362627698
-20.3280842626963
-25.6744544539424
-36.6542119923628
-56.9948124973964
-87.127163595783
-124.810784659232
-166.820302806441
-209.611178018562
-249.338607394746
-282.350438620309
-304.925035749596
-309.921481380051
-282.02431855322
-198.675075521933
-42.069504380566
183.287511499921
442.894767404777
685.824622367588
872.904656257242
997.17841623287
1078.20371320982
1134.23492880015
1157.00085578195
1112.44379077223
967.986225518421
723.662414590852
421.591219274574
126.843214671817
-105.04518162225
-251.246986626991
-323.22176548778
-350.871239687259
-362.801158590385
-374.441502164895
-387.726796580846
-398.476353976867
-404.302097668376
-407.373922474749
-411.232057346904
-415.840752296095
-416.346538929241
-407.168599789764
-387.502605902218
-362.657651988412
-339.815270208976
-322.505683366283
-309.195014955654
-296.745587050544
-284.396117282809
-273.930595194064
-266.463154827307
-260.050397854612
-250.964792266292
-236.98003703286
-218.889241804565
-198.923288698986
-178.417045414694
-157.521946563073
-136.819158693442
-118.286391823199
-104.115388479312
-94.7726216895993
-88.6767248291516
-83.8196790147287
-79.3207898096819
-75.1943656579459
-70.9897500956566
-65.3179642265981
-56.9823740672857
-46.2762445171184
-34.768873343972
-23.7975027533589
-13.4516531753018
-3.14986440645263
7.06521839936721
16.156982394917
23.0162913761739
27.4426838351522
30.0151018135123
31.1769840333427
30.8133130496939
28.8642986613169
26.1417004168058
24.2527303937103
24.6409500541168
27.7742370116984
33.2289939242748
40.3211583448012
48.4368957664089
56.828252171991
64.4343137524966
70.2221321997396
73.7836300693222
75.5236471949803
76.2358790000302
76.5486196490404
76.7621473874008
77.025751940098
77.4213943035965
77.7982273786595
77.6813935169377
76.5577169210315
74.3357372289384
71.4807418057804
68.6594349581906
66.2799876115061
64.3850350244866
62.8814774125673
61.702422898091
60.6804080927
59.3852207098358
57.2887248270504
54.2042857084334
50.5489193129811
47.1191780902643
44.5917761021712
43.2222785431823
42.9273953023081
43.4951105652856
44.6202722881343
45.8137249938636
46.4734048794776
46.2054769465254
45.1138501757194
43.737794759131
42.6795526679476
42.2799146431318
42.5892870038982
43.5127218090065
44.8598944106391
46.2678330597814
47.2314298480446
47.3847019125426
46.8236266089926
46.1178496736181
45.949620494471
46.7151722130789
48.4437173044014
51.0068845048894
54.2798658797306
58.0544217923657
61.8981993999502
65.2786843291526
67.9383161620032
70.1281410845601
72.3831295826518
75.0088500858785
77.7810975734775
80.1321438945585
81.5702932149903
81.8752612388817
80.9574708287801
78.7171976254969
75.2193325858584
71.030223043567
67.2419243221468
64.976191272419
64.7368736274182
66.1840057054715
68.4769573049295
70.7665535328974
72.36102570074
72.5788372799478
70.7110685833387
66.3402472759634
59.7317961172356
51.8084031855149
43.6224958020877
35.7912388282276
28.3998601253423
21.3658635415202
14.7943061227143
8.9598094758061
4.0450235240888
0.0287794931155276
-3.13756572368243
-5.33462306794749
-6.36540664534123
-6.27348921922911
-5.53622984779831
-4.9089296701878
-5.0648838575559
-6.34046184236851
-8.71189772762501
-11.8889135746956
-15.4011532004124
-18.7038062335593
-21.364073905881
-23.2516156902813
-24.5724892662386
-25.7162838941971
-27.0673832503716
-28.9092449326112
-31.3639579039698
-34.2552040134455
-36.9779200757004
-38.6220658946414
-38.4198929159848
-36.2063863070458
-32.4857508599985
-28.0764400150359
-23.7399245834098
-20.1378878283726
-17.9696672108783
-17.8642495327673
-19.9455437690859
-23.5378368786581
-27.4741116402045
-30.8202151747193
-33.3068721272194
-35.0637340555808
-36.0592591199776
-35.9719154839306
-34.6296154316723
-32.3901262521024
-29.8892955939664
-27.4208679485376
-24.7593242161504
-21.7400666568641
-18.9417245118332
-17.6014317997181
-18.759757327947
-22.5385981886055
-28.279844040254
-35.2334930817019
-42.8835814633877
-50.579426825785
-57.1321294767329
-61.1462282825119
-61.9214480174212
-59.9675352878598
-56.5484223655364
-52.759184573968
-49.0944460890738
-45.7643908053708
-43.0937788537363
-41.3671684370088
-40.3558327256885
-39.2810986686733
-37.4352399588368
-34.8028817142655
-31.970455617894
-29.4639736037373
-27.3152242433122
-25.2897632409819
-23.3346818195505
-21.5821427009455
-19.9377690520003
-17.9228390823007
-15.1380492616396
-11.8617676169651
-9.03507864190556
-7.59322332604107
-7.87285554276563
-9.6708140980464
-12.6873768973052
-16.6798610927669
-21.1852861140423
-25.3675980196164
-28.4212022788209
-30.1741092802173
-31.1703099115012
-32.1051986388062
-33.2687474001837
-34.5751507626943
-35.9368129093245
-37.3089430672013
-38.2940603400188
-37.9663914817906
-35.4240290553082
-30.6117584038066
-24.4666565336293
-18.1696458260654
-12.3626488057826
-7.19902326983363
-2.97939631234982
-0.343513974901306
0.386240303774287
-0.126834720300139
-0.566929847079241
-0.0924276713976773
1.02521682973163
2.00751885054978
2.65242931067147
3.5511018717673
5.23558744718137
7.44747246760068
9.53148062834799
11.4193188541288
13.8133246584528
17.1893799401473
20.8357468916019
23.2132890771997
23.3013519456981
21.3526381602802
18.2438651137452
14.3987560862177
9.73730641597737
4.64202647414688
0.472456214746943
-1.32071309651603
-0.562768649394417
1.46952932013025
3.32196935606245
4.55529128562081
5.49117988447878
6.05816695213878
5.42858743671846
3.00425320808092
-0.59255313304338
-3.97412778552903
-6.45538846586388
-8.70554722247053
-11.7408789296367
-15.5408780321649
-19.0407418528712
-21.4296117025147
-22.973704986747
-24.2708263089118
-25.0198430854101
-24.1156888769214
-21.1149383183366
-17.1826140103442
-14.170476741026
-12.8743585923151
-12.6141796498977
-12.5597449015116
-12.9252277640646
-14.3665337061979
-16.4219102788828
-17.2816413805105
-15.5040976132023
-11.6237539793154
-7.52613903175364
-4.26412657930277
-1.05437711226497
3.27954938533475
8.34568818180384
12.3533307772815
14.2648896603263
15.0908375241905
16.5188738886957
18.5739544526481
19.3876006975188
17.5088941553807
13.9234153221599
11.343390607711
11.8379622074112
15.7898255113694
22.9848547665203
33.5121283476932
46.5923497672116
58.9590754823265
65.8637288518021
64.5366016553038
56.0985966863074
43.1876576344791
26.0929756576725
2.7184467355539
-27.0075069560508
-58.1697593322823
-84.5353646805467
-105.656995138935
-128.471594355568
-159.918479181569
-198.38731626737
-234.518143119822
-260.747323768144
-276.729865693917
-281.090206088798
-257.761178783134
-176.538409850284
-15.4112831270555
213.452252340723
462.303481590487
678.146881447693
838.803396395678
959.484171307285
1062.45956811617
1140.23620039741
1150.6564168112
1050.9183175041
838.603184261514
561.089675821319
285.840975186531
59.9964342428599
-106.787636453916
-228.671369847582
-319.707374034437
-383.096405664959
-417.485367076751
-426.68340462903
-420.600482154106
-408.816815943485
-396.057009683137
-383.869332297512
-374.138906389729
-368.978846774525
-367.738587931701
-366.090069482662
-359.193171497542
-345.50887884138
-327.174212752076
-307.25445215782
-287.514615463027
-268.687931203831
-251.559300619248
-236.638019796609
-222.997676101033
-208.581945504054
-192.318699927377
-175.558016127934
-160.802873321675
-149.077546680125
-139.112860880042
-129.281254561529
-119.743156991494
-112.071267838915
-106.921962650156
-102.811332083158
-97.5575548176241
-90.5180612195716
-82.8472163059886
-75.6706898619395
-68.7149219351084
-61.1370480368767
-53.2676200053723
-46.7703542434044
-42.8707771534775
-40.8942591325365
-38.9752414375627
-36.0171093097185
-32.4700481652906
-29.1495471375586
-25.8587823715236
-21.6723900022426
-16.3902314989582
-11.0804565387856
-6.88311506313921
-3.59811741804303
0.114860030446719
5.20330919416052
11.3230448240093
17.611142942633
23.9335042317624
30.8666214412295
38.4876533540292
45.72390521382
51.2825350506839
55.0315545055618
58.0305061524237
61.1368892297861
63.9641066304214
65.4931565982831
65.4729473195527
64.7424154729772
64.0764655705266
63.1390676217455
60.9999501350279
57.6029906188736
54.281508505026
52.5917534491889
52.8541084685458
54.1277114152192
55.5152856013423
57.0922098538101
59.3880538415913
62.2882895624664
64.9140494049213
66.6581301157695
67.9967165947984
69.9908994216034
73.0783094578863
76.598833864243
79.47886459022
81.061597257392
81.0952384480603
79.1995556948663
74.8530484463419
68.1146640657319
60.1284309769061
52.6181550484794
46.8706183233687
43.3577061052199
42.2569117246345
43.9176569204617
48.4696023398035
55.0947751677789
62.1437427179524
68.2697762643611
73.357630608417
78.1369881766945
82.9559128834198
87.2283113362416
90.186745779563
91.8822710408492
93.0676944579109
94.086478691369
94.233285528278
92.4897372740875
88.7798392054136
84.2012915421452
79.9559141844709
76.2938113687352
72.687260480575
68.8536480694051
65.240528201742
62.4113222300674
60.2589261064566
58.1573851337689
55.8596598616945
53.9378490565522
53.1716015811022
53.6697691635294
54.8190207771742
56.0254744596178
57.2007288196408
58.3876637358425
59.1694033062849
58.824911129139
57.140672006991
54.8046943545263
52.7700826411681
51.3060824469873
49.8809997970097
47.9526625074716
45.5849278065077
43.1017797198874
40.3391167041302
36.6390917943315
31.738073823641
26.4315508712209
22.0706021313818
19.3887031542378
18.0100970561555
17.1305747723767
16.3988008500855
15.859945342249
15.1499427668049
13.1834232212713
8.95503335816749
2.57748894259517
-4.72303941322915
-11.6894275287381
-17.9249815832631
-23.6228312265411
-28.6520680369642
-32.2761424503815
-33.8704672099562
-33.6644615863426
-32.5067864174286
-30.9360443711812
-28.7350522845939
-25.5100415285661
-21.5314932426356
-17.7861111896026
-15.2265146231316
-14.1706992537089
-14.486425550231
-16.1180545510393
-19.139780203011
-23.2824934569527
-27.6754750862578
-31.2821702365898
-33.5810143190925
-34.7250849199108
-35.1109313450449
-35.0112842610998
-34.6988988548053
-34.6850817434718
-35.4940794132852
-37.104260314909
-38.7970815867019
-39.7407941693731
-39.6927379483307
-39.020996510043
-38.1274285129765
-37.133520855284
-36.2807348586224
-36.4143174376798
-38.6612288667332
-43.432318766554
-49.877924737247
-56.5162209847908
-62.3514572813551
-67.1885206621724
-70.8742640338912
-72.5845040500666
-71.2266789092026
-66.5599522228015
-59.62588570796
-51.8735477248722
-43.9902085463988
-35.8387591189934
-27.5276637723611
-20.2185387499735
-15.5991258868488
-14.5997652913891
-16.8326843020689
-21.2931511370782
-27.3221124317974
-34.6328232370236
-42.5206605169798
-49.4639314012063
-53.8128062168766
-54.8693228048594
-53.1780851769345
-49.8231429002501
-45.6485508664876
-41.1990607032173
-37.1119903759567
-34.149661407108
-32.6935731503752
-32.3737994117258
-32.3951678181562
-32.2248649659176
-31.8599757972619
-31.4801816679062
-31.0788162371683
-30.5879112903082
-30.2269012418715
-30.4410182395596
-31.3773944607988
-32.5645079378868
-33.2896857352798
-33.2929866636411
-32.9762893429113
-32.93272833725
-33.4328639237378
-34.4680769290513
-36.1350448815319
-38.6799573529201
-42.0377510576668
-45.4753316742825
-47.8976033382922
-48.5470879097262
-47.3346808455912
-44.539289077046
-40.4134031687656
-35.2413669783361
-29.6371461962618
-24.440367552276
-20.1184985225307
-16.3666472304004
-12.4803869682404
-8.12865194563569
-3.62291409719696
0.57970662269938
4.40457080953816
7.97266308469131
10.973355227623
12.5542898396957
12.0605447825989
9.79895647583338
6.86168745045194
4.16711469252481
1.83539055008868
-0.439603376454102
-2.63557312841334
-4.3030877973073
-5.20297579972785
-5.72819731421061
-6.44819322927563
-7.32787550680922
-7.65842948010641
-6.82076152771936
-4.91366310898803
-2.48734294208657
0.162791480455326
3.13194915753195
6.32455927005429
9.08346179279732
10.7140689107698
11.3114747156316
11.7572925577092
12.7753787694998
14.196225588436
15.3427430740531
15.9707376949017
16.4641156002493
17.0345437297379
17.1062661966925
15.880850656535
13.4466810567572
10.9416398478938
9.45667555731568
9.05665534521229
9.15635324563922
9.62201839645275
10.9287894890043
13.044121426441
14.6719891303833
14.2422752011771
11.6354935233449
8.31680605634422
5.43041333265232
2.28345613125363
-2.44856006719441
-7.91227387088072
-10.3158952486859
-5.85507868315559
5.55153848902186
19.9596680840916
32.9037663469504
42.5390241968466
48.7746316133788
49.8583846687671
41.1676202863582
18.2157901001375
-19.4019848786291
-67.4310013198128
-119.664218558425
-170.109818429988
-212.758746497307
-241.622634196553
-253.549276370454
-250.702204869679
-236.741578294938
-207.198879341087
-144.385798160143
-26.9321935558755
150.18956523573
363.536655631118
571.577230398789
740.645628696066
862.127844892556
943.935985114394
986.122757266477
968.386769320368
865.552195756683
676.990598193386
439.574067433717
209.243629790056
27.4183099730044
-97.60668451042
-180.985679953976
-238.173734092596
-272.668057414807
-282.711419051386
-273.662714927468
-259.672077670012
-253.739535195408
-258.993567092021
-270.762202570833
-285.005801818056
-301.867384008963
-320.751793275391
-334.712619159225
-332.831455669802
-309.304045959152
-269.672702479057
-227.614780714067
-195.631386933262
-178.26373434988
-172.305608488258
-171.210188961613
-168.781246545772
-160.721959660653
-145.616594566434
-125.822123681528
-106.539485857301
-92.3452400931105
-83.8116692765296
-77.674713814835
-70.4664212692758
-61.6802743484123
-53.2183719524174
-46.3208307342774
-39.9320785017701
-32.2880330421475
-23.391720930337
-15.169820730385
-9.27557285372855
-5.43180097266761
-2.24489067041271
0.880610768258562
3.33527569201007
4.76654734636282
6.2161976740035
9.25587027815179
14.1944512787769
19.69008419847
24.2575078798057
27.7361580799695
30.9498232825944
34.206299199005
36.70879447192
37.5929406851985
37.0954159023579
36.2465822507564
35.5123082615447
34.2129353518293
31.4894235107991
27.551358555081
23.6344830550507
20.8331575434966
19.3735359870181
19.141350461597
20.5031306468383
24.1042355147319
29.8261051855131
36.3430858819283
42.0032689745569
46.0362405388222
48.6852186768542
50.2969080113228
50.7250758606477
49.8465927067418
48.3534420936192
47.5297000952559
48.0898566150039
49.4945066021766
50.6317390756521
51.0225224797965
51.0684920910924
51.1574683886103
50.9377315685503
49.7726367855023
47.7172794708701
45.5916628537528
43.9238260423404
42.108495766242
38.9394595878087
33.9213372940525
27.7472925477637
21.4035861284296
15.1281689644726
8.58306376008064
1.92927222349694
-3.75791423525969
-7.44535110931115
-9.32919786085255
-10.7032133361092
-12.5722537640872
-14.6443806508092
-15.8417789221998
-15.5690849985043
-14.1211728122219
-11.8531686032988
-8.39325668012335
-3.08215434564371
3.85841490612767
10.9564746657085
16.4834707282932
19.6903753637897
20.9340470053596
20.7920601884936
19.4573468750414
17.1328363553245
14.6772945433601
13.3897958382543
14.0157901649791
16.1668842397395
18.8717008267518
21.5584452560076
24.2911359218198
27.1332295724162
29.6474592379415
31.2548989476343
31.917988010725
32.1300939871737
32.1480386355327
31.4821306992794
29.3735982528139
25.7037094545028
21.2147995972558
16.8328258750455
13.0305319960691
10.0154825173812
8.30772656535147
8.68413644116288
11.3484602321245
15.3516335103038
19.1134824656743
21.543815352228
22.5046520719293
22.2193940300275
20.586682129641
17.3945441050976
13.1034172180148
8.97561929149036
6.12434565759617
4.5252996453233
3.20743820835209
1.41606002864417
-0.656199202473491
-2.38122245848843
-3.64827809507962
-4.93893899797807
-6.45070910839052
-7.53258311493185
-7.3227150141912
-5.86612177707318
-4.27746832055522
-3.67698042468857
-4.16876804598952
-5.04087639632126
-5.77707650534228
-6.48109726123298
-7.21051700707167
-7.2696714231956
-5.61539908616225
-2.02213785110612
2.4549184896148
6.37442235639375
9.1176223383195
11.000496698729
12.3267792549083
12.768429547532
11.930206721774
10.271301383648
8.99443743677764
8.8617402201127
9.38116219459456
9.42499635255499
8.54196686922946
7.35214772945282
6.62116053495098
6.31285105402128
5.87563111772721
5.2980782305491
5.38084512481076
6.69950870498897
8.54132689184146
9.26858770377365
7.80002747204906
4.47818374653404
0.372807167822316
-3.94792832764875
-8.5508085039848
-13.1067954183184
-16.2671196301406
-16.5418746534856
-13.7745633312372
-9.40625065636588
-5.14980457721586
-1.63869870923579
1.42365714572448
4.04028014697447
5.37245137827387
4.61972140031888
2.11701774067778
-0.89266116062874
-3.61871649162557
-6.51645094910911
-10.5137519700924
-15.6641397091419
-20.9110991431416
-25.1746998284599
-28.2975346527107
-30.68742987087
-32.3012949386487
-32.48836011064
-31.0001764976201
-28.8248887120077
-27.6395695910233
-28.4332320377804
-30.9108048652883
-34.2597417656616
-38.1302595560439
-42.5371684326747
-46.9765789233374
-50.1900425658995
-51.144236197549
-50.0840424603387
-48.2855308859654
-46.7464734150358
-45.393836994066
-43.6802834250191
-41.6229406021855
-39.8250907685746
-38.4837102929141
-36.8387073592286
-33.9772557912041
-30.0602356912166
-26.3643514724752
-23.9885060991975
-22.7780469450483
-21.7305572534644
-20.2385607729678
-18.5138988514128
-16.741814674168
-14.2909828192918
-10.2521646821216
-4.74663709234372
0.702079656118357
4.32480131508166
5.4487334831228
4.48912359884724
1.85341341591416
-2.60242219273681
-8.81430668611301
-15.6238368046761
-21.243456777732
-24.7430120153601
-26.732793431915
-28.3330252055826
-29.7222201014737
-30.112971320856
-29.1016867474314
-27.4778405332503
-26.2926891859611
-25.394680263485
-23.5019242030607
-19.9216364078495
-15.7580355841997
-12.948197693424
-12.2209560474239
-12.5122269272588
-12.5253330680245
-12.3435060726097
-12.9580416898532
-14.393423818279
-15.0763317309752
-13.5167222703475
-10.2393308530145
-7.39612517958446
-6.41781759735261
-6.64312831341948
-6.62509136558867
-6.28220100056069
-6.91538743778784
-8.99432926202884
-10.7761225488284
-9.92937226189808
-6.34524770498525
-2.46994705039256
-0.481685055552674
0.215290862860535
1.89722150384489
5.12387598017065
7.48660657072916
6.39789062154359
2.59668198287937
-0.120738000472898
1.17958640781584
5.73129596491378
10.655586737782
14.6194707407238
18.6001667773846
22.7757992020549
23.9334217615745
17.2802178267904
0.599063312821666
-24.7135470630423
-57.0306427914089
-97.0967069861653
-144.996604341051
-194.509673551609
-233.15334939212
-250.532766332631
-246.378444534402
-227.28997736416
-193.250139205741
-128.936065134433
-13.0895644298409
159.469155895324
364.718139160534
560.821259455114
715.434768285593
822.964352030725
894.969894729534
934.368416137367
921.301574318793
827.090674105282
644.149609408351
403.251809018094
161.256558038364
-30.4944392296955
-151.226155893366
-212.1760771486
-239.059880331976
-253.208377601846
-264.245616954253
-273.707418626427
-281.191781085349
-287.107548847729
-292.340026326308
-297.632052314633
-303.570384177313
-310.157598714492
-315.660174964724
-316.058209045279
-306.362361599036
-283.361072634597
-248.071681887582
-206.393741929812
-167.458460397647
-140.058407095761
-128.451093168877
-129.799925520668
-135.410711749655
-135.697817463555
-125.70191476758
-107.067444409348
-85.2196215655903
-64.6879791571182
-46.8913277616538
-31.7813257073857
-20.647995498864
-16.4448147218453
-21.0051735625729
-32.0671066193419
-43.3624350755084
-48.0652156363053
-42.8577046768234
-29.5832188274879
-13.6634855371355
-0.78370408256351
5.9627885983186
7.08118671132018
5.67280491170003
5.24453564719601
7.68985663736198
12.652312021265
18.49947398036
23.895329677284
28.5759557021369
32.8594797017535
36.724999070049
39.5851041293368
40.9149474304092
40.8868467639546
40.2625042983126
39.7580643129457
39.6578627051971
39.9842860450044
40.7687058213527
41.9440462904582
43.0487842273089
43.3065812886982
42.1809109306197
39.8348171970481
36.9783471138033
34.307294922151
32.1730783976622
30.7215065655913
30.085377861667
30.2184172840199
30.5904184000088
30.3054973123227
28.7218034610615
25.9601589171852
22.7464572827241
19.8159957743439
17.6019371803752
16.4751651606329
17.0067797401094
19.6776144073317
24.2620198431762
29.6940952448909
34.7437758339339
38.8360433250605
42.1179985216786
44.7616854484669
46.4019607631571
46.3980156469761
44.5417030806092
41.2750894137472
37.1364263332252
32.1770883827975
26.1579279684028
19.3426338598054
12.9099544119369
8.41312012195534
6.81771566288912
8.09203563713375
11.6108593518008
16.7058627507131
22.6915430869077
28.5269598864876
32.816057823548
34.4179791030368
33.1246021889088
29.7128335428068
25.3560394288271
21.0176818097186
17.3101010665571
14.664547870414
13.3687049555984
13.3749038024301
14.2075336826395
15.2146100495901
15.9673397529195
16.4261213035496
16.7813654308007
17.2198657047863
17.8301398767841
18.5827196829007
19.2514639240908
19.3584583857068
18.3382640790729
15.8779738941439
12.1042419991124
7.40561789025676
2.11081159463357
-3.58075699879091
-9.37834350872655
-14.7872083425765
-19.3931108872215
-23.2623287783586
-26.8964414673431
-30.6418090459021
-34.1417561167222
-36.4554127617914
-36.7421157384425
-34.7837553449564
-30.8585074229698
-25.2812615065615
-18.2794994258829
-10.3479186199939
-2.51784864586772
3.98411051504535
8.46416701567277
11.1398944232757
12.8032914429079
14.1837464819612
15.6574414812268
17.4079030298096
19.5828560357692
22.1265296254805
24.5462605484874
26.0676391855026
26.160585349708
24.9123538748602
22.8687530634873
20.5802571137226
18.3754640179384
16.4941318237303
15.2042242663475
14.5984811941173
14.3055216475063
13.5922979412881
11.9019005719199
9.30513273491269
6.39825413072262
3.80833193221692
1.8746024694107
0.756939920933824
0.63249788552731
1.57417920818432
3.2331937210677
4.82870336003346
5.62600931284055
5.45700403939964
4.73559559470283
4.00273678703814
3.55685595980182
3.5216761593698
4.07295956516583
5.35039287918334
7.08625049370945
8.48964455927493
8.70382590526415
7.44303083747431
5.13951121333826
2.48160280436065
-0.0841816477834572
-2.35999130959632
-4.08758944857565
-4.91470847938713
-4.80129096526784
-4.3377006976635
-4.44418000530958
-5.66254620564419
-7.78931831862877
-10.2176258135834
-12.523700627736
-14.6114951334658
-16.3798580576986
-17.5218742004681
-17.844628115407
-17.7124971367169
-17.9413577736528
-19.1191442067827
-21.0792659497914
-23.1137629214113
-24.6341795912335
-25.492103631957
-25.6875755083882
-25.025476089603
-23.3165252791441
-20.9091444475973
-18.7752099264568
-17.8540519351923
-18.3039046593184
-19.4868633454719
-20.6549616230119
-21.4899718152273
-21.9179722149115
-21.6114999799542
-20.0022810505571
-16.9099127966596
-12.989389940042
-9.32582241504336
-6.54425325779758
-4.4334592101827
-2.47782880193332
-0.602537096500206
0.762588702524781
1.27811011596939
1.09430203811366
0.517778985390066
-0.571096920233771
-2.70057829052375
-6.11465820333612
-10.2307048739214
-13.9233517200488
-16.3079779694549
-17.1399934514974
-16.5211005025553
-14.504573811812
-11.2176682978049
-7.27863527929333
-3.76565565512067
-1.54426022087659
-0.657995137673424
-0.49973320577385
-0.538046572261692
-0.704867502176853
-1.05607349364584
-1.32887795005576
-1.16183679748315
-0.783074742709232
-1.19389864792101
-3.39567951793262
-7.43607264446069
-12.3823702523434
-17.2539593638189
-21.791071174195
-26.1941953014343
-30.3247000032334
-33.5489253456334
-35.5113673655908
-36.8030298001316
-38.5162766613846
-41.0805661141201
-43.7478876867735
-45.3370448254366
-45.2967652539345
-43.8146528295503
-41.0151702361225
-36.5064279758293
-30.0134023694016
-22.2555767210651
-14.7431832112799
-8.52448945224248
-3.36277339828025
1.63306493909627
6.76354546550647
11.5326242484283
15.7196425811328
20.1390385618241
25.7863280264492
32.2794707814451
37.7287326702882
40.5440967991449
41.0964106087818
41.0444249901899
41.0057240571526
39.5837202013972
35.3469996627267
29.600229559494
26.3587447690427
28.9676312378177
36.864655473347
46.0546161894966
52.6322404567437
55.2247732139194
53.7871799445492
46.8191230415059
30.954767163466
3.68082466262917
-34.1236978162326
-78.7488082930053
-126.033768466145
-172.11448863253
-212.10682948068
-240.21172173621
-253.229717633559
-253.433750617626
-244.611198038485
-222.181958288814
-167.974302048016
-59.6469288612117
109.27360986594
316.743207033941
521.783914468221
690.54171527435
815.141434343632
906.807703996845
970.144616931055
985.662256746257
920.601905781917
759.709059828937
526.653969465027
274.988107567457
56.4197725695684
-105.622484876769
-216.953804844791
-293.533941141016
-344.145883508946
-369.364441698115
-371.59014247875
-360.994938249186
-350.447056992607
-346.563135042206
-347.457677325954
-348.520001178869
-348.223026445349
-347.389658565026
-344.396256356502
-333.769421368371
-310.923838292707
-277.842035175191
-243.043346984161
-215.535999155857
-198.780075630006
-190.010396208294
-184.236555530402
-178.124044104965
-170.650095654027
-161.687898953243
-151.199925676231
-139.650903481479
-128.188391930593
-117.783273408953
-108.407374100961
-99.4649921628906
-90.9001551440102
-83.3462486439751
-76.9869651021787
-70.7038489976072
-62.8961277650749
-53.1843999665989
-42.9143928503453
-33.7613172458628
-26.0843744778527
-18.9656565104497
-11.7106454956206
-4.77123243562794
1.09792846618524
6.26443470917683
12.2412433232779
20.1320404439606
29.3824706394959
38.3695147241647
46.0616910678741
52.6889261564386
58.6958939013394
63.4587346971025
65.4988642368589
63.9624146728947
59.5108783215212
53.5383417575854
46.7444009185973
38.8359976120088
29.6267270931193
20.041817468814
11.7395020050099
5.85459977942316
2.40435224503801
0.927004575523499
1.3304753820061
3.79213948316571
7.93829351541853
12.5298022027974
16.1933062472447
18.3494506686241
19.2625955001168
19.3154646258761
18.569452689949
17.1454983423252
15.7328717491374
15.3174026048119
16.3166595356619
18.2045452278066
20.1451598794475
21.8603467728268
23.6704366740974
25.7728998370603
27.8465719175728
29.5904995379926
31.4532909158598
34.4339323329998
39.0213346359082
44.5497978513801
49.8235359699535
54.272213462903
58.2023250118967
61.8687361453891
64.6424034055069
65.4575253322296
64.051678823136
61.4161635136293
58.8156811529119
56.5531237971035
54.0082211676724
50.8763386617082
48.0054703788281
46.7368903881455
47.5576544102195
49.7369817083649
52.3440164464334
55.2818807469017
58.9918176444778
63.2444272709627
66.655925550312
67.6680220426692
65.8707507049703
62.115139762821
57.3908772368972
51.9503362285725
45.7277862187975
39.3431579887372
34.2015049179675
31.3985683486318
30.7357096944555
31.0567839597185
31.4707741937951
31.9536276317378
32.6889940095604
33.1515373201084
32.2253921058089
29.2502660741764
24.6558822366795
19.3793217280981
13.8328907846973
7.74241771424704
1.01283054385004
-5.55885868350125
-10.6840564392413
-13.609897592713
-14.5150830522372
-13.8882116167028
-11.8219901458943
-8.18734053278494
-3.40206195631033
1.32850515228528
4.74044416888825
6.37763109775553
6.58878299571651
5.78134004289199
3.97656209526733
1.21127250156526
-1.87703882354592
-4.22063320218675
-5.16003497960467
-4.92520804971111
-4.1588537832015
-3.11421092686959
-1.55795337829919
0.557411977910816
2.62286003267293
3.79370846521552
3.77527309258331
2.93644671245843
1.6081252115253
-0.473454524463338
-3.79943222331042
-8.26215181430474
-12.9796648244896
-17.0427195649037
-20.2377849655714
-22.8355371191207
-24.7953835960328
-25.5364790070114
-24.6640150709846
-22.7065170838901
-20.8149054572314
-19.6967120016154
-19.0864144303917
-18.3958078893908
-17.665786097711
-17.5517136180168
-18.3620524919775
-19.4582993345742
-19.8931372275408
-19.536588049227
-19.2459594896173
-19.8240962954583
-21.0669623389725
-22.0940607825549
-22.5014944568436
-22.8226382471647
-23.7051290032429
-24.9104850138675
-25.4866010420259
-24.924198336686
-23.8013224584894
-23.0682690137424
-22.8894799418077
-22.5279306969547
-21.3846637427969
-19.7980309041245
-18.5488766151055
-17.7524307410222
-16.6436064331807
-14.5767210802619
-11.9305199252016
-9.70762166926347
-8.33456693327742
-7.23388289148268
-5.72344254455761
-4.03097838126849
-3.04548076646041
-3.10936107182429
-3.46174837212334
-3.11095524656941
-2.01159857758467
-0.979443009222839
-0.430027874361899
0.383047516853958
2.5625777190498
6.18733499541013
10.1517478925372
13.45770835216
16.2777923817552
19.3850353463133
22.7026951859664
24.9457822329404
24.9498150726441
23.0561411580928
20.7716212396314
19.10597713874
17.6974558663348
15.8152935922137
13.8682227729498
13.3592804682783
15.2461169316419
18.7853242273854
22.3733294038334
25.3401203441085
28.4224392556969
32.3618396120935
36.5172344688414
39.3573341517065
40.2234767933392
40.0642483101538
40.1689269141017
40.5453342449052
40.0577177687836
38.1231042220741
35.6968193167132
34.1988623668398
33.7566875437999
33.0759261068808
31.1296924692098
28.4499558522774
26.3067186081569
24.8546818721264
22.734232255522
18.7290271428384
13.3452708692317
8.21694655087103
4.07214868717858
-0.0820734661633935
-5.46365169063338
-11.6677797169887
-16.9418850189107
-20.2898346847522
-22.6659249896185
-25.6590968551604
-29.3656230953039
-32.2670830177355
-33.3231250560948
-33.5317079430927
-34.8365396252913
-37.7368247263466
-40.7237833955784
-42.3216093572824
-43.0592657571455
-44.7216603659351
-47.804875976815
-50.5605096740437
-51.0201566341442
-49.4452057025987
-47.9590848656854
-47.7428572984066
-47.4419118789135
-44.9631031168861
-40.4044328095164
-36.2488439432429
-34.4283661249372
-34.0015710328372
-32.512667376364
-29.331960906479
-26.5974158024641
-26.4120138520876
-27.862755109206
-27.763890906004
-24.2270554561895
-18.4844975314421
-12.759649569368
-7.31507782689299
-0.909645494973269
5.91859942326946
9.62150190243796
6.95266225896529
-1.03017732493926
-9.82887831246535
-16.8332943111419
-24.475799542016
-36.7542542384741
-53.3341826796817
-69.3844032816679
-82.3432334245401
-97.0424155001215
-121.252902792021
-155.666870601884
-190.998872599595
-217.582117550215
-236.359320385688
-255.157938227729
-270.086027985977
-252.568380650132
-162.246174291661
19.6875339627902
267.258130479222
522.263692083116
734.631442988048
893.848689653922
1021.99079830519
1136.23135584773
1218.4413394269
1221.68560994278
1107.15203479812
877.363502444461
578.035488521152
271.249685679003
5.0518265561476
-199.406917815301
-342.215499003249
-433.13238037694
-484.037595867392
-505.87579926289
-506.931721889454
-492.351605722467
-466.510525789964
-436.446225610405
-411.670776687712
-399.006047097429
-397.517890007685
-399.678745909516
-398.273094108711
-391.917888155799
-383.639375720966
-375.028649275824
-363.354994500444
-344.920034260073
-320.156333996075
-294.048877870254
-271.402048527793
-252.66041107229
-234.936214571545
-216.376729994607
-198.310312302966
-182.970032728462
-170.274643200947
-157.942093745806
-144.555712895346
-131.397791830656
-120.688053834787
-112.635518606381
-105.14797116695
-96.4652522762332
-87.2211094871513
-79.3306613848809
-73.2927420266122
-67.4582219318705
-60.1210516595891
-51.6037461437195
-43.6271092180002
-36.8786172698219
-30.0109107030536
-21.3548023109677
-11.0762434445828
-0.994505743609089
7.6220434173026
15.3777723068282
23.542228648473
32.0219041442493
39.2509150157895
44.1598646040974
47.6333560295417
51.5380631660483
56.5633627673043
61.6184258713222
65.4608350965495
68.3490176791984
71.5662718068295
75.5160369308262
78.9637921919436
80.4699944361957
80.169007040344
79.5895715071307
79.7569885133514
80.0252268683066
79.0988325781211
76.8466004280366
74.5140311416786
73.0728652917056
71.8942197910163
69.5121750484055
65.5272302401167
61.2220103066195
58.1192546781186
56.3352966660556
54.7956843360201
52.9598728459661
51.7985525686653
52.7900907779235
56.2579038236139
61.1523171389938
66.4578463294553
72.3370103510648
79.5546237039397
88.0047127762556
96.2886290525052
102.872936489089
107.329039444629
110.158913161152
111.6339761938
111.316410135952
108.894383624453
105.112022127554
101.415956036877
98.6654179830716
96.5275627211138
94.2903498759877
91.96491150436
90.2088580111779
89.2348469073557
88.2796175545463
86.4828019187868
84.1004097969086
82.4275868421594
82.4186151965918
83.6873203249236
85.1096213333608
86.1996673502992
87.4579554511594
89.2735522691786
90.8989475171927
90.9585871731251
88.9493001860717
85.8476602918373
83.0284378358177
80.8347082836333
78.5646560072023
75.8020113840778
73.2941708934159
72.1972770783696
72.6500011498221
73.5244550877394
73.6901934385524
73.1815947654844
72.7934230631393
72.6562913198873
71.6434298921172
68.3814008340704
62.6019100879786
55.1913841906954
46.9981146930863
37.9992950325878
27.8528883289442
16.99448065797
6.74505261194311
-1.77332000746319
-8.55951537628548
-14.3821113878186
-19.6991889617577
-24.2511428500517
-27.7148879851274
-30.357280135641
-32.6973687057169
-34.6360451453379
-35.3249326367147
-34.0891271523948
-31.2769581260063
-27.9551022494349
-24.8754075387965
-22.0900310437649
-19.6782832102766
-18.4774355570518
-19.6248296999652
-23.3108299128451
-28.3160463631875
-33.0312171155611
-36.7914017450487
-39.9325884212841
-42.6105586986321
-44.0224388718945
-43.1375954605632
-40.0340602681274
-36.0681821056774
-32.5548321693862
-29.5592572207786
-26.2941538804338
-22.5772714909609
-19.4509905528586
-18.1501411371
-18.7337015592898
-20.1207027825637
-21.4497996137494
-22.9846895372639
-25.4128589765012
-28.5057297517287
-30.9559238729868
-31.6807249044985
-30.9718166721987
-30.0595928699969
-29.6861225954913
-29.5042512105927
-28.9757918525718
-28.4628977668188
-28.9902882334528
-30.9580375706054
-33.5105890955286
-35.4372937842462
-36.4916042559834
-37.4830291179018
-39.1026402482243
-41.0621451602458
-42.6405256419103
-43.8199859550143
-45.4089290150174
-47.9297006171917
-50.7422697768361
-52.6106646409542
-53.0303321032179
-52.6259660334822
-52.1500624917813
-51.4514663079112
-49.7960529989944
-47.0840332873315
-44.2698067405271
-42.3274413581059
-41.0678463272258
-39.3837693324749
-36.6666466865469
-33.5931291868911
-31.2756026047027
-29.8970422602124
-28.6186684960364
-26.8644291455366
-25.2548149372541
-24.9070331510468
-25.976386969767
-27.3484101160571
-27.9196111027877
-27.8387024673348
-28.1317792501434
-29.2437590356715
-30.4261456339452
-30.7522895656944
-30.3699676291024
-30.2860526229646
-30.9433012968011
-31.4878567573462
-30.744651701589
-28.6601905459937
-26.330325807885
-24.5805788574503
-22.9760023866909
-20.5656497678194
-17.3487486915297
-14.4610473984776
-12.7665096917963
-11.6933341469128
-9.89809897135956
-6.960097298969
-3.92400379583978
-1.9818494626951
-1.01356652429308
0.10950022504403
1.88177187689089
3.38749389871685
3.46217922053966
2.28173436151322
1.25924552260827
1.33234582433036
1.85503895811888
1.53654599746383
0.184378272024873
-1.04753570182953
-1.215300202034
-0.843681601084967
-1.16922912970097
-2.35504272021518
-3.09420264109369
-2.21964395444584
-0.250694437884022
1.17938660982955
1.302603448913
1.00906026875461
1.40860424556558
2.09964981560272
1.5287273382251
-0.941694240531106
-3.99200533729835
-5.81964134670889
-6.31468909562616
-7.11504724205157
-9.43073737515093
-12.461023536471
-14.4882180407092
-15.2080991784697
-16.1716364421143
-18.6617721080081
-21.7574946243576
-23.1982024600495
-22.0370544660352
-19.6868119941917
-18.0103329603119
-16.9671272473203
-14.9126953627024
-11.1286364165309
-7.16109034919892
-5.08405399099981
-4.9104919412375
-4.58763175407193
-2.63365905682143
0.0533036354501899
1.59691056744686
1.79919880334836
2.33657915291199
4.11129032675355
5.40682497511956
3.6422685275358
-1.34812703220483
-6.93209528500396
-10.9213010411815
-14.0731436008897
-18.0591202164371
-21.2143720391688
-18.1214657924405
-4.85008382463231
15.8361217343812
35.9914075748847
49.651544522115
57.2562054927773
61.6957281812798
60.6927475432753
45.5928078913192
9.67767675597927
-42.5292063917949
-95.8157868296958
-135.234264762645
-156.859443549553
-168.545739987907
-181.88643945656
-204.240233360067
-235.828304750396
-268.693574794437
-284.074974133328
-252.801141140247
-146.686435109521
41.1814224719208
283.529373084721
529.245080808799
733.317288766455
882.30553329874
992.736869250894
1084.17880084039
1152.27189327224
1166.15338547582
1091.17019974718
915.827228493691
661.740940326998
373.132574079353
97.9182561388079
-127.164936777075
-283.93673042717
-374.483441099756
-417.293596133202
-436.83901759693
-450.471779354634
-461.574820710783
-464.403989722071
-455.349332280346
-439.061089844076
-423.885151810197
-412.976849047878
-401.724358288716
-384.104709430339
-360.131139517534
-335.873675695529
-316.747892013664
-302.371496351812
-288.544580037996
-273.009149558025
-257.696878154465
-245.337962003465
-235.401761414279
-224.572790366767
-210.77184557164
-195.398342534464
-181.194616868121
-168.846956340071
-156.691385460977
-143.49977806565
-130.357558591034
-119.162420266481
-109.919329393557
-100.535758805202
-89.3952134954711
-77.3119807768063
-66.3595140216577
-57.1884430238332
-48.3317423780227
-38.2887013980045
-27.5734073163542
-18.0970180057006
-10.8120212307003
-4.72793247300824
1.53643388890186
7.84719331415037
12.8187057915364
15.8017361126793
17.9010179981772
20.7047776779251
24.4623305895962
28.1029082332103
30.9744630025439
33.9151005168123
38.229367045987
43.9604310773295
49.7515606465751
54.4386619072075
58.2368426174315
61.9962094143092
65.6230893139433
67.867209196256
67.8193967048017
66.1599387516443
64.5148508214311
63.7663681929419
63.5028429077783
63.2270362942782
63.5860558413376
65.8778502300811
70.4207118539009
75.9317985128826
80.7766257305337
84.5233793958597
87.8636092840319
91.1172274812428
93.373752699989
93.4368984620116
91.3322039979182
88.3837673692592
85.7360341032833
83.2141407336204
79.9471034817421
75.8719630497815
72.1237985153584
69.8138366693923
68.7995859663699
68.0155970598397
66.8688533606321
65.8517518378748
65.6232780834025
65.8487067756785
65.3769509418913
63.5428907394125
60.9091760655914
58.5239163484828
56.7071603259273
54.9269000936684
52.8193713572623
50.8973460693462
49.9647046047524
50.0288253885921
50.1870738185711
49.6695830952126
48.6978835767389
48.0851125210816
48.1680422322319
48.4949253353206
48.6202489778547
48.8556697754395
49.9101430869619
51.880888769575
53.9584653312967
55.2752204241813
55.8157007565545
56.2384889779857
56.9072813414052
57.4486774556121
57.3967447187921
56.9933424816058
57.0030297025113
57.7491402379344
58.6597981939867
58.961565831394
58.6356294390395
58.3945913752569
58.7298383260171
59.2981106482014
59.4366176870922
59.0661713612371
58.7173820741746
58.6087704609739
58.0238614789815
55.8970529565506
51.9425889354346
46.9256853740238
41.7640342556063
36.6369199830084
31.2135479208189
25.5931012743746
20.5969638208566
16.9308418424966
14.2754418159444
11.5210568946429
7.91316751690627
3.71748720656954
-0.348831365688365
-4.093276818036
-7.95202190748439
-12.1693900327315
-16.2461643445683
-19.4680077388038
-21.8524919099828
-24.2641196551276
-27.5171656776161
-31.5853171346586
-35.8559382702998
-39.9829223284646
-44.1619460339139
-48.5149530004353
-52.5194260268002
-55.3548830634297
-56.7648561195102
-57.2912672264186
-57.5477652041876
-57.4734573368309
-56.5273699139421
-54.5194194121478
-51.9338574991254
-49.3212381263981
-46.633179977519
-43.4711033575917
-39.9568950626816
-37.0171682900122
-35.5834752431415
-35.6434515820757
-36.316806750473
-36.821600723566
-37.0628823169609
-37.1346726379941
-36.5383653018422
-34.34462470682
-30.2515154601842
-25.2013505947729
-20.6741855400268
-17.4411280243095
-15.2573196314329
-13.7580753305501
-13.2714516666184
-14.422883965196
-17.0768848465675
-20.1168568375399
-22.5016555967115
-24.3274145810786
-26.5366138687151
-29.6184056928513
-32.9341472850829
-35.4874025713971
-37.0929068217821
-38.4193973784566
-39.9044628605677
-41.0477579262281
-41.0849167199723
-40.1894319470903
-39.5972541449559
-40.4086453487865
-42.5225498849152
-44.9787110666111
-47.1726266308441
-49.3480214135638
-51.8231038831468
-54.1325900656321
-55.3607174775598
-55.2936714722628
-54.8526990847288
-55.1585517751901
-56.3525989844414
-57.6052939513216
-58.1832707776901
-58.1086138785382
-57.5991751824139
-56.2107211087558
-53.042244887316
-47.893662497333
-41.8675130528159
-36.5168903840665
-32.5081762238066
-29.4095719992736
-26.7455917467444
-24.810762714003
-24.1199278672066
-24.2904609913955
-24.0164658430513
-22.3833378817651
-19.9192526652551
-17.991199896029
-17.2371401638272
-16.9719748680738
-16.243985258618
-15.0778901799792
-14.2425242729445
-13.8999354952486
-13.0460744448791
-10.6375127614394
-7.01817180567116
-3.7519204215011
-1.97189646964267
-1.27760088296139
-0.505606806164479
0.729813300172367
1.78553722080844
2.29928221680507
3.17731401013901
5.75716961339448
10.1022844550348
14.6593386664288
17.8377378885285
19.5933729656235
21.0820118367704
22.9511193502992
24.5786545093065
25.2363464548535
25.5130253603132
26.9186553712237
30.0114056939275
33.4547709741151
35.3231676861682
35.0902194806569
33.8428830599079
32.5776368469392
30.9221424442303
27.9876809204743
24.1285538856678
21.0831565436237
20.0971924607215
20.3973182649714
20.0638070715654
18.2669062968055
16.0324228001318
14.6194172801351
13.7366609920242
12.0095975965537
9.04241645619253
6.1889303727298
4.81606034913829
4.27523841545792
2.37258115180527
-2.07260819233663
-7.8019893091934
-12.654716941527
-16.0208992764842
-18.9471219259525
-21.8039570954993
-22.834444274365
-19.8812264741556
-13.2936541433079
-6.14493207928057
-1.17324457528837
1.82364337657627
4.83955857898931
8.32549478384446
10.2211401737203
8.85494950079524
5.9099197573026
5.17247938176229
8.15283052307803
12.0598782067178
13.0103146430364
10.6804466522305
8.45731374320272
8.69487849680468
9.12597294656753
5.38880095145852
-3.0553639069461
-10.9872067957085
-12.2779428408341
-5.98001882910091
3.47203065960814
11.7524400873212
18.6090869887361
25.3591150117561
29.6287908944814
24.8311456168814
5.72943961675367
-26.6804907681328
-67.0419934828447
-111.520554966175
-159.694892420041
-210.097619870437
-256.268191014899
-290.000320831475
-307.930474957634
-310.714945835126
-292.167877189852
-231.036780914661
-100.557876203858
106.816042416425
362.385026509043
612.659688426764
813.456614291477
956.139391749208
1060.62767173428
1141.93559091531
1183.76255132585
1146.05118453614
1000.00232505502
757.805772823005
470.671373854262
198.967172232868
-18.7000193222952
-174.926417740271
-281.541207303745
-352.796319427046
-397.671663649969
-421.818594238927
-431.354277907571
-433.195738234723
-432.919604099677
-433.23943783435
-433.99317936905
-432.818083564189
-426.336381987548
-412.180718547679
-390.873649747443
-365.602913418813
-339.719677446753
-314.613473795659
-290.460055780836
-268.712853848563
-252.606042913859
-244.158669905137
-240.880201990861
-236.550035645019
-226.069256496419
-209.489475656033
-190.979078141636
-174.139452431285
-159.028549023205
-143.839072005325
-128.516495893768
-115.597147809335
-107.365160108102
-103.052913610051
-99.5448905915643
-94.5487194365246
-88.3005486748956
-82.0384646033748
-75.6389904698214
-67.6105893189694
-57.3028785480607
-46.2384120327569
-36.6814873668207
-29.1890075486626
-22.1812651311061
-13.9634508668297
-4.60141274351595
4.54924111174055
12.7505160058279
20.6056861476687
28.7551904527989
36.456561173546
42.0629413070822
44.8496438702517
45.8572653396054
46.7139158459722
47.9769807990113
49.0194713882256
49.3628440098071
49.5177934808259
50.2202668383312
51.2219795739397
51.4265880162399
50.3334046977537
48.9361177345506
48.8555507755702
50.7338226491242
53.8295707217163
57.1642800981516
60.5986990010069
64.4393722615714
68.2381108632562
70.5868780601137
70.411275467527
68.2374834489251
65.8195912046418
64.5043286762777
64.2278640863987
64.1727974367314
64.0315002743541
64.1997648319065
64.777916827991
64.8896183603845
63.4163233635826
60.3649341576012
57.1951730950333
55.6634969409824
56.4955639712672
59.2815257927665
63.4019104338484
68.622446229016
74.6592359803896
80.50868021312
84.6690310507861
86.1806078014218
85.3086635230988
83.1100232832186
80.4634505869423
77.6702061179784
74.8651364879261
72.4513051411928
70.9051798112674
70.2901954125321
70.2545788046652
70.6020685617795
71.6961264255764
74.1359744568214
78.0799679288418
83.0221251061158
88.1991959742715
93.0034916480118
96.8865673971036
99.0667349915883
98.7116901945571
95.6189385740966
90.6290676982069
85.1870138946492
80.4451907515082
76.8246551605892
74.3358362117509
73.0175528141225
72.8165056541528
73.1216187526415
72.7663524676153
70.7757989936901
67.1359524149536
62.7190821668506
58.4439451307923
54.6069186755468
51.0232823623606
47.5812796406582
44.3743156505868
41.2604964559069
37.5567044997622
32.4554605414617
25.8068065226194
18.3725631464931
11.240596879944
5.04906289701573
-0.186793097480544
-4.65544726687596
-8.42928936447873
-11.6528734017249
-14.8492657538866
-18.7384405786366
-23.6144233376261
-28.9716249264245
-33.843051914935
-37.4962273386589
-39.7645164365867
-40.8066341494708
-40.7808614985466
-39.9037405930641
-38.7180387934273
-38.0255904086838
-38.3568629905315
-39.5019665758822
-40.6479417843897
-41.0055307270485
-40.2888864624724
-38.6577405880468
-36.3873596810795
-33.7607284740117
-31.2465553644659
-29.5607964203586
-29.3358562205257
-30.6600795560449
-32.9840012956845
-35.512714611437
-37.691891100602
-39.3642735364903
-40.6036678042864
-41.5520346331561
-42.4353526414542
-43.5941704524365
-45.3197201238918
-47.5774965266185
-49.9130176934813
-51.679614887505
-52.4066223100673
-52.0275219595359
-50.8792363207142
-49.5789573810401
-48.8688834253829
-49.4112049188078
-51.5343328535248
-55.0519438615674
-59.2851655519247
-63.2596651084611
-65.9300883419325
-66.3658343553923
-63.9705579835697
-58.752577650755
-51.4546070833433
-43.3182313269453
-35.5582788965807
-28.945792970196
-23.8158854524699
-20.3640349386694
-18.7998765743289
-19.1666701592443
-21.1177357887806
-24.0419098631188
-27.4878057375358
-31.4012104267365
-35.8470303044095
-40.4937736448794
-44.4613368628163
-46.7536057397625
-46.8517659185181
-44.8974855781059
-41.3997944393258
-36.9176936199215
-32.0800747833225
-27.7667182528061
-25.0034285832766
-24.4726306290844
-26.063430249896
-28.9194931562828
-31.941846916889
-34.2730567378794
-35.4164912307697
-35.1137727967248
-33.3142876368046
-30.3074126529728
-26.7543209291457
-23.4147004336721
-20.7396481963325
-18.7040833255512
-17.0164644799091
-15.458432357006
-14.0278763762762
-12.840841994136
-12.0118751917671
-11.669119533119
-12.0022646041761
-13.1551514487193
-14.9790182300009
-16.8910844368166
-18.0377330090024
-17.6806670586415
-15.5224714768679
-11.7726768879084
-7.00402209874582
-1.98229881210435
2.43805052648396
5.42343317882129
6.37054253692909
5.16672606778525
2.31145468221864
-1.25170875508945
-4.53057642767194
-6.85215128343458
-7.96978538420759
-7.9094230063636
-6.77449619148308
-4.7081919549925
-1.97408850455803
1.05841784299415
4.1196720540587
7.24199026958934
10.6735211194312
14.5029913442918
18.36074626514
21.5486550328414
23.5096613872361
24.1690133788164
23.8338990522118
22.863877120103
21.5721478734694
20.4553397489983
20.3292087884592
21.9760280169033
25.5229016475207
30.2133312063568
34.8871678104174
38.7027377106923
41.3746991780959
42.813737997682
42.786323430719
41.125111186347
38.2112121184106
34.9801817043096
32.2423298176832
30.0119941715024
27.6282966026504
24.5396237095194
20.8356027863716
16.9584221635347
13.0794115606299
9.02230978677295
4.82546001618489
1.10361039572484
-1.42999597661437
-2.79332547280219
-3.85900579714384
-5.52519549218706
-7.88826700342977
-10.3830307324049
-12.6091754350309
-14.6747771695581
-16.5709928123766
-17.4866964286192
-16.189900718897
-12.2372967778762
-6.56408340714991
-0.632554929920321
4.89287922267768
10.3262859749048
15.8196794181618
20.4779040712209
23.0461341073504
23.4204345698398
23.0008235410831
23.2377374678088
24.0577926845606
24.1785117706578
23.0426447381931
21.9929262212855
23.0986275596281
26.8898961700567
31.6531368538534
35.1047829147749
36.4292420327083
36.3327429221091
35.2882209466629
32.331207340091
25.9385751220501
15.862197887059
3.68203447701848
-8.50532090157789
-19.763801543621
-30.9121107413764
-44.2083987125231
-62.9326354589986
-90.6398773932162
-129.330827457775
-177.289218058647
-228.83957837978
-276.718173652016
-314.100318246429
-332.702354269953
-318.418621291403
-251.606179704451
-117.124124601499
81.1763410277364
315.145770193956
544.742468895131
740.218051812708
894.621493737699
1014.52377662682
1098.02659909217
1122.95919251146
1059.29295657232
895.943497548095
657.188266381566
393.123402127435
152.445414138772
-39.4962659328904
-182.151316109359
-285.551488756861
-356.874890947399
-398.245062930195
-412.417536820453
-406.796402297551
-391.570016570351
-375.556351090963
-364.366754480646
-360.78693926212
-364.538883832026
-371.18384633245
-373.146443320834
-364.24587550065
-344.328323666776
-319.160124729249
-295.284585173236
-274.968369441881
-256.124425905155
-236.436090969169
-216.544556546284
-199.001026598468
-185.014372804817
-173.261160301453
-161.901957681076
-150.864271203856
-141.5037132077
-134.414045757446
-128.449231090858
-122.155017038122
-115.531080938046
-109.719154220954
-105.091638319678
-100.357748092629
-93.9139057953694
-85.6844304680734
-77.0856444916711
-69.2363728226375
-61.7904043255105
-53.8510130579099
-45.632369332409
-38.5659512775172
-33.6396168779203
-30.1097807266891
-26.2621894999722
-21.2619519047893
-15.7808372537332
-10.7333534281015
-5.8906844175885
-0.205394352408518
6.63817641330231
13.5541609838691
19.2011918462938
23.4958536683442
27.5697700485495
32.2614177321726
37.0891174959362
40.9669095052219
43.6522335683711
46.0197465514722
48.8423794317581
51.7063511188066
53.476029469612
53.6973221623654
53.1466761406051
52.8792121513224
53.0480539459705
52.9792311122296
52.3080219621756
51.6543432824817
52.0102388354311
53.7147854697782
56.3456950534413
59.5541567666583
63.6191410337442
68.9447986386786
75.1951812951054
81.2495868005361
86.0478505370384
89.2234762416178
90.7739844468596
90.3777153332701
87.4532332595238
81.9918943911393
75.0297880779293
67.9866809039729
61.5652331569528
55.5276433271665
49.5719706637195
44.1186177571239
39.9514053205936
37.190779479321
35.0067040563869
32.5597401018156
30.05472760797
28.5854944416782
28.9352694623917
30.785989064251
33.2435039717514
35.9243383222776
39.2004800429411
43.3511123055916
47.7954729618692
51.4476585226982
53.7630577162678
55.1664538308371
56.3708313521125
57.5030025024986
58.1250033858239
58.0179396270749
57.6212118448409
57.5432130016287
57.8254328068946
57.9537649492073
57.5884121105543
57.0236045025224
56.7686635985647
56.8297040634486
56.6659401699702
55.8777853068255
54.6977084169925
53.6243404588559
52.6992236367906
51.4121984694535
49.3744799066758
46.8493972766069
44.397007153641
42.0722842075982
39.2465555360341
35.3366663045346
30.5371419072973
25.6266927946029
21.1146504524798
16.8488527691458
12.5923466545501
8.78264215735962
6.4098635003789
6.07321362842784
7.35433250072734
9.27809770601653
11.279333294539
13.490775632559
16.0745605723261
18.5513026786937
20.0530012559094
20.1999004998609
19.4796974137325
18.6433259847728
17.8816755168823
16.7956648185638
15.1266370249074
13.2525649718347
11.8073892535383
10.9459651562787
10.2211668212702
9.21014889267009
8.043152841824
7.14106004803281
6.53051944096833
5.66410768819767
4.00157696747931
1.60716938973678
-0.994584191700824
-3.48581006289083
-6.05783194452817
-8.97344195826821
-12.0109538976968
-14.5706739790786
-16.3383959731979
-17.646824344651
-19.0536276024783
-20.6700104060721
-22.094275179861
-23.0129168750994
-23.666797515912
