Value(bpm)
62.8220858895706
62.821796870435
62.8215128673673
62.8212388935963
62.8209799621831
62.820741086041
62.8205272779638
62.8203435506615
62.8201949168044
62.8200863890753
62.8200229802293
62.8200097031616
62.820051570984
62.8201535971088
62.8203207953403
62.8205581799754
62.8208707659117
62.821263568763
62.8217416049837
62.8223297466693
62.8239522455854
62.8287817475916
62.8390848925111
62.8571335286147
62.8852094922674
62.9256110576942
62.9806610969484
63.0527170127553
63.1441825353174
63.2575215090145
63.3952738371311
63.5600738035157
63.7546710511166
63.9819545708686
64.2448755624558
64.5426234901688
64.8693440748795
65.2186724647697
65.5840012795353
65.9584365020365
66.3347662949768
66.705444345713
67.0625895960648
67.398004333335
67.7032125698823
67.9695203859255
68.1880994214834
68.350093955705
68.446868628329
68.4753745802553
68.4403432345882
68.3474010830198
68.2024279398806
68.0114646168057
67.780629053465
67.5160423829419
67.2237658502386
66.9097490018107
66.5797891409113
66.2395017070192
65.8943009894613
65.5493904216302
65.2097616151447
64.8801393230061
64.5642268842867
64.2649949207141
63.985303061752
63.7279316645788
63.4956020977237
63.2909990432413
63.1167948346021
62.9756759333344
62.8703717408945
62.8036860456725
62.7785315217844
62.7979678309233
62.8652440370191
62.9838462337074
63.157407679462
63.3844802390747
63.6568365126254
63.9656996779602
64.302070162868
64.6566286135789
65.0196630470314
65.3810225441951
65.7301006407242
66.0558520455685
66.3468463874673
66.5913622616746
66.7775238375431
66.8934806300071
66.9276295524438
66.8729351911134
66.7365047590972
66.5287317579557
66.2602694512712
65.9418280844994
65.5840051308258
65.1971506051949
64.7912674887478
64.3759457839942
63.9603276874237
63.5531007872407
63.1625160092584
62.7964271724761
62.4623494073763
62.1675342742678
61.9186794800954
61.7166223982245
61.5578472000343
61.4389666775093
61.3568011448286
61.308339922403
61.2907074521639
61.301133357435
61.3369259068078
61.3954484623828
61.4740985940059
61.5702896268381
61.6814344627958
61.8049315792849
61.9381531627571
62.078436416357
62.2238292314416
62.3744387930641
62.5307363324064
62.6932043999507
62.8623377901562
63.0386445593811
63.2226471435811
63.4148835831006
63.6159088627675
63.8262963765088
64.0466395268375
64.2775534708457
64.5196770257919
64.7736747490074
65.0402036154798
65.3179490433204
65.6025141949879
65.8890949454752
66.1727172224678
66.4482359306693
66.7103417613032
66.9535765493044
67.1723577764641
67.3610126908453
67.5138223151903
67.6250753466787
67.6891316084833
67.7004943069311
67.6538969605141
67.5472096804944
67.3857489939764
67.1761178069419
66.9249934792608
66.6390428395328
66.3248503788847
65.9888600470955
65.6373305473122
65.2763036146698
64.9115844699014
64.5487334545724
64.1930677680947
63.8496722238511
63.5234180077238
63.218988543181
62.940158526165
62.6873262361443
62.4600294990396
62.2578685995601
62.0805042212239
61.9276557279482
61.7990997953333
61.6946693781778
61.6142530044604
61.5577943895659
61.525292367985
61.5168011431287
61.5324308593456
61.5723485037508
61.6367791491552
61.7259807771209
61.8392654389061
61.9746978665079
62.1302716334634
62.3039781038318
62.4937933089026
62.6976660561103
62.9135072561486
63.1391804860299
63.3724938346823
63.6111931036778
63.8529564586621
64.0953906466669
64.3360289102092
64.5723307402524
64.8016795187156
65.0213184645817
65.2283654013218
65.4198797135448
65.5928761447982
65.7443395147623
65.8712422943737
65.9705650022634
66.0393193140584
66.0745736946193
66.0734812741579
66.0333095951311
65.9514717613945
65.8255584285683
65.6533699897424
65.4340940691979
65.1726389083441
64.8755905202152
64.5494525681364
64.2005858243822
63.8351615315929
63.4591278169893
63.0781883386108
62.6977921427017
62.3231336117668
61.9591613688587
61.6105950597589
61.2819490460672
60.977562195981
60.7016331455225
60.4582603003708
60.2499580944804
60.074224810015
59.927674452862
59.8070700174039
59.7092942752435
59.6313247041735
59.5702121114697
59.5230626120601
59.4870227087435
59.4592672916653
59.4369904300194
59.417398872058
59.3977082010064
59.3751416150665
59.3469313097367
59.3103224404037
59.2631811957218
59.206903391228
59.1441502744184
59.0775682201607
59.0097824337978
58.9433947794222
58.8809839273547
58.8251077679229
58.7783080435526
58.7431171642366
58.7220671923886
58.7177010118248
58.7325857322929
58.769328426043
58.8305943472559
58.9191278500665
59.0375223815815
59.1845817934519
59.3560861885161
59.5476966800171
59.7550022816501
59.9734918731202
60.1985324551841
60.4253540638331
60.6490418378992
60.8645358176808
61.0666390877989
61.2500348578871
61.4093129920735
61.539006345563
61.6336370391538
61.6877725446636
61.6977311029054
61.6659742125864
61.5964844809913
61.4933578041202
61.3607567985959
61.2028691869774
61.0238716320214
60.8278993004941
60.6190212502875
60.4012215801484
60.1783861610582
59.9542946819584
59.7326176883401
59.5169182674386
59.3106580351323
59.1172071037441
58.9396107954997
58.77893036291
58.6353205218567
58.5089529183316
58.4000230047088
58.3087515692541
58.2353863864265
58.1802040029898
58.1435116765523
58.1256494849922
58.1269926273431
58.1479539391583
58.1889866481782
58.2505873993774
58.3332995822086
58.4377169972025
58.5644671358745
58.7132904751705
58.8826490146292
59.0709115120271
59.276437374649
59.4975656643293
59.7326049193037
59.9798237879606
60.2374424936373
60.5036251722398
60.7764731457161
61.0540192141702
61.3342230674311
61.6149679328127
61.8940585891125
62.1692208869934
62.4380208018046
62.697547089905
62.9446821157028
63.1762288156828
63.3889237339385
63.5794535686421
63.7444753313196
63.8806401184212
63.9846204001399
64.0531406219864
64.0830107927645
64.0711626020825
64.0146874763993
63.9108758510645
63.7572568140744
63.5528897877367
63.3043658798432
63.0208969542037
62.7115322015881
62.3850724260018
62.0500146526994
61.7145217469935
61.3864149439094
61.073187015676
60.7820338775274
60.519902706942
60.2935550877641
60.1096442594519
59.9748062372293
59.8957653712559
59.879455850393
59.9314405855975
60.04664631837
60.2159147910036
60.4301887740544
60.6803685809546
60.957184637201
61.2510964996997
61.5522192964982
61.8502797272906
62.1346045974492
62.3941452958456
62.6175415884325
62.7932274955125
62.9095807717089
62.9551155704079
62.919468884868
62.8044175380883
62.6212826922169
62.381865163264
62.09797733798
61.7812605998307
61.4430482253574
61.0942729054408
60.7454163068295
60.4064970636146
60.0870932012271
59.7963951459898
59.5432860579701
59.3364471562131
59.1844869237731
59.0960945625268
59.0800917613781
59.1386169196004
59.2635504679921
59.4462167966186
59.6780885568894
59.9506265664514
60.2551440809607
60.5826944072743
60.9239823711997
61.2693014321662
61.6084992518153
61.930975230365
62.2257138501687
62.4813575164962
62.686321862103
62.828955782663
62.9011002664553
62.9061098149772
62.8500910811186
62.739486664311
62.5809584614174
62.381281705703
62.1472519522574
61.8856064219361
61.602960359735
61.3057584296116
61.0002406723221
60.6924221988008
60.3880855719763
60.0927847312322
59.8118593191885
59.5504583626685
59.3127304752563
59.0986944338386
58.9072045749244
58.7371877316467
58.587636130153
58.4576007352376
58.3461852115536
58.2525404267301
58.1758594325257
58.1153728685582
58.0703447404014
58.0400685301055
58.0238636026486
58.0210718765721
58.0310547312189
58.0531901266597
58.0868808997339
58.1319536211683
58.1887750273623
58.2577629089757
58.3393535121666
58.4340033118759
58.5421909176945
58.6644191268071
58.8012171402662
58.9531429608456
59.1207859929906
59.3047698679702
59.5057555202933
59.7244445448349
59.9615828680065
60.2179647707779
60.4943412783061
60.7892869481892
61.0990888679353
61.4197946023244
61.747288067753
62.0772751398461
62.4052747284652
62.726615981622
63.03644232868
63.329723083127
63.6012732877678
63.845782392113
64.0578521956601
64.2320442664448
64.3629367498525
64.4454750939662
64.4791376157298
64.4670462521507
64.4126134048754
64.3194045325818
64.1910940385474
64.0314242146286
63.8441678677383
63.6330950775198
63.4019443678837
63.1543984260818
62.8940643748308
62.6244584977104
62.3489952362129
62.0709802177777
61.7936069741124
61.5196542336668
61.2508060321272
60.9884828956582
60.7340572610173
60.4888573804197
60.2541717338782
60.0312539081199
59.8213279103741
59.6255938949783
59.4452342908159
59.2814203281001
59.1353189740014
59.0081002981828
58.9009453016065
58.8150542552106
58.7516556094853
58.7117557218859
58.6938972797473
58.695269353083
58.71308665053
58.7445881596346
58.7870229268326
58.8376384649069
58.8936717379354
58.9523427144657
59.0108505102199
59.0663721621314
59.1160640857778
59.1570662679746
59.1865092350405
59.2015238147229
59.1992536758311
59.1770160976304
59.1355153568801
59.0788259692273
59.011164419122
58.9367250325564
58.8596675111143
58.7841104329733
58.7141305931337
58.6537680345714
58.607036635355
58.5779401625207
58.5704937806039
58.588751111065
58.6368370796948
58.7189869656127
58.8395922833483
59.003234897222
59.2114506369014
59.4589190175425
59.7393815610285
60.0464437891324
60.3735060850638
60.7137072845003
61.0598820423317
61.404533518108
61.7398233025863
62.057580740353
62.3493338509748
62.6063638703511
62.8197849826839
62.9806500580835
63.0800821355236
63.1122783367964
63.0832030801943
63.0020179738722
62.8780818848104
62.7208120203043
62.539572212322
62.3435895218382
62.1418990710051
61.9433161584332
61.7564342157393
61.5896469989078
61.4511935426542
61.3492248065235
61.2918915830305
61.2874541115868
61.3443180006481
61.4658627558831
61.6476864522904
61.8849590215617
62.1729987990469
62.5071848827311
62.882877029465
63.2953419905626
63.7396856965648
64.2107911672046
64.70326246241
65.2113754111743
65.729036257768
66.2497497422508
66.7665984702036
67.2729925732495
67.7653393661298
68.2408179071506
68.6965037237298
69.1293815646186
69.536361041343
69.9142952234797
70.2600022175372
70.5702896877784
70.8419821951101
71.0719511387111
71.2571469866753
71.3946333797525
71.4817595926196
71.5187957006923
71.5087466859734
71.454902399621
71.3607020705236
71.2296944779638
71.0655005907948
70.871779219163
70.6521960846673
70.4103965817183
70.1499823812548
69.8744919210463
69.5873847364957
69.292029512986
68.9917583066534
68.6905462677707
68.3927269721876
68.1024940250542
67.8239003235575
67.5608711384147
67.3172215394491
67.0966778504399
66.9029029166648
66.739525081954
66.6101709002559
66.5185017507371
66.4682546880176
66.4632880448408
66.507614360741
66.6023991193561
66.7425042388824
66.9220633756075
67.1352311234268
67.3761165439659
67.6387266415822
67.9169197199376
68.2043689480139
68.4945367873443
68.7806611851371
69.055754610289
69.3126170868802
69.5438643455314
69.7420953325051
69.9037299112833
70.0298442664078
70.1219119878342
70.1815280978277
70.2103933830985
70.2102987591187
70.183109906476
70.1307523940588
70.0551974762549
69.9584487223238
69.8425296067161
69.7094721603001
69.5613067549887
69.4000334546073
69.227369228113
69.0448219539165
68.8538755292449
68.6559904815303
68.4526009905084
68.2451125560607
68.0349002860294
67.8233077750078
67.6116465430198
67.4011960019472
67.1932039174542
66.9888873348797
66.7894339390416
66.5960026964887
66.4095384012553
66.2305694798008
66.0595655965756
65.8969903859296
65.7433027579361
65.5989582573378
65.4644104768471
65.3401125268757
65.2265185646357
65.1240853864714
65.0332740882383
64.9545517995634
64.8883934989129
64.8352839175585
64.7957142812786
64.7699927056115
64.7581920339122
64.760386430812
64.7766681619863
64.8071479914237
64.8519556422713
64.9112403243951
64.9851713322466
65.0739387171284
65.1777540384874
65.2968511994598
65.4314873725369
65.5819440219419
65.7485280300955
65.93098810126
66.1249091807465
66.3239650648795
66.5216722171672
66.7113921272426
66.8863395510039
67.0396045451981
67.1641889407272
67.2530576520611
67.2992048412245
67.2957344444311
67.2359539382566
67.1134794937066
66.9223498785943
66.6573514891857
66.32033597327
65.9210571942929
65.4696809138375
64.9761828983911
64.4502201468869
63.9010339576425
63.3373831092155
62.767504494799
62.1990980050603
61.6393322423085
61.0948677022498
60.5718943109872
60.0761805936748
59.6131322272588
59.1878582553145
58.8052411522243
58.4681254339172
58.1741916242093
57.9204838754936
57.7042888458235
57.523102033573
57.3745983670425
57.2566063720855
57.167085362694
57.1041051984951
57.0658282341664
57.0504931526507
57.0564004296711
57.0818992237245
57.1253755252459
57.185241432413
57.2599254501897
57.3478690031593
57.4477528528511
57.5585878782706
57.6794063548658
57.809233923508
57.9470861848213
58.0919656007654
58.2428587070051
58.3987336439541
58.5585380183481
58.7211971107783
58.8856124477684
59.0506607596703
59.2151933478304
59.3780358860802
59.5379886825549
59.693828584054
59.8444142972402
59.988773514929
60.1259395264983
60.2549340366827
60.3747695111617
60.4844518599952
60.5829834592851
60.669366507588
60.7426067092789
60.8017172723257
60.8457232028131
60.8736658731365
60.8846078351442
60.8776378437499
60.8518760507903
60.8065440371742
60.7423901767989
60.6616741524645
60.5667263549501
60.4598714874718
60.3434187807664
60.2196540213279
60.090833377502
59.959178985855
59.8268762438654
59.6960727443229
59.5688787815318
59.4473693591375
59.3335876337123
59.2295497367746
59.1372509303519
59.0586692579789
58.9953182020012
58.9478276871502
58.9167455783135
58.9026439206075
58.9061222613518
58.9278112076009
58.9683762516638
59.028521901458
59.1089961576342
59.2105953852767
59.3341696347938
59.4806284745245
59.6509474068298
59.8461749502532
60.0674404830391
60.3159374180452
60.5911510273593
60.8896127143347
61.2074766700197
61.5407593860029
61.8853137911668
62.2368081520902
62.5907103027899
62.9422778908189
63.2865554200281
63.61837892747
63.932389143507
64.2230539397957
64.4847007591636
64.7115595353533
64.8979546946168
65.0414294916465
65.1428648701536
65.2034643809124
65.2246001788434
65.2077954889838
65.154706340306
65.0671029144648
64.9468508378015
64.7958927190653
64.6162302039309
64.4099067821186
64.1789915453567
63.9255640560219
63.6517004483803
63.3594743230267
63.051535981126
62.731303686551
62.4021487445158
62.0673229584354
61.729952782464
61.3930368973936
61.0594468867317
60.731930692465
60.4131185447397
60.1055310840951
59.8115894268685
59.5336269621785
59.2739027111084
59.0346161243443
58.817923242999
58.6259541984733
58.4603896090144
58.3211701413975
58.2078632589919
58.120108076973
58.0576128298082
58.0201528193448
58.0075688172932
58.0197659017582
58.0567127129148
58.1184411180705
58.2050462813026
58.3166871376992
58.4535872770732
58.6160362469315
58.8043912895866
59.0190795336725
59.2602905725187
59.5255551892454
59.8109469479173
60.1124067171689
60.4257266291873
60.7465277445551
61.0702433399299
61.3921084739327
61.7071565857919
62.0102239417302
62.2959627563046
62.558863769549
62.7932889455366
62.9935147649078
63.1537863068448
63.2686570552043
63.337596823971
63.3643595427726
63.3530219107462
63.3078025668649
63.2330143534014
63.1330215427422
63.0122026236284
62.8749190198872
62.7254899193876
62.5681732286417
62.4071525418804
62.2465299230746
62.0903242441286
61.9424748001482
61.8068499053883
61.686360071088
61.5806200866829
61.4885280314021
61.4090128743982
61.341029988806
61.2835571096823
61.2355907022488
61.1961427126264
61.1642376782571
61.1389101795691
61.119202618209
61.1041633104178
61.0928448868925
61.0843029928045
61.0775952835492
61.0717939880083
61.0669024374606
61.0644485287505
61.0661014060201
61.073531874456
61.0884151052032
61.1124342638894
61.1472850780839
61.1946813685491
61.2563615810146
61.3340963696135
61.4296973003388
61.5450267632819
61.6820092065207
61.8426438329824
62.0290189352994
62.2425091399065
62.4792770887979
62.7332957187435
62.9983612488292
63.268067885727
63.5357895173957
63.794674655677
64.0376558424621
64.2574747326626
64.4467239246606
64.5979063062872
64.7035122079997
64.7561140007386
64.748476954186
64.6736842105263
64.5275758105453
64.3156752755364
64.046070078531
63.7269452834317
63.3664549849756
62.9726145335344
62.5532142419102
62.115754270965
61.6673996268934
61.214953674079
60.7648482552258
60.3231483855639
59.8955695163146
59.4875055099918
59.1040657053934
58.7501197474108
58.4301148299533
58.1452258759151
57.894420942066
57.6767489394231
57.4913822644774
57.3376094789372
57.2148290954995
57.1225443685971
57.06035900688
57.0279737398456
57.0251836849683
57.0518764742877
57.1080311109931
57.1937175374059
57.3090969061564
57.4544225565251
57.6300417081188
57.8357413636047
58.0684787537032
58.3243756647209
58.5994635745323
58.8896520778743
59.1907022313051
59.4982052314787
59.807566972114
60.1139991511754
60.4125176920308
60.6979492923568
60.9649469124881
61.2080149502772
61.421544712248
61.5998605725473
61.7373621742222
61.8317127498752
61.8848306962267
61.8990882793707
61.8770153373022
61.8212684481923
61.7346011474595
61.619835706963
61.4798368964336
61.3174880529813
61.1356696931464
60.9372408166983
60.7250229746519
60.5017871073802
60.2702431031735
60.0330319834161
59.7927238860164
59.5519599056635
59.3135023715621
59.0800408449064
58.8541809178321
58.6384506646451
58.4353091726272
58.2471570036693
58.0763484740158
57.925205680759
57.7960342500637
57.6911408335069
57.6128524358719
57.5635377212217
57.5456305156027
57.561655806464
57.6142586337351
57.7058105299521
57.8347253151402
57.9972003067117
58.1894404970076
58.4076403266902
58.6479448970537
58.9064158660249
59.1790020448723
59.461514895783
59.7496092913766
60.0387700344337
60.324304745854
60.6013438053448
60.8648480651452
61.1096250436486
61.3303544763504
61.522819375391
61.6867704021168
61.8228719194977
61.9318835387111
62.0146526750872
62.0721067190338
62.1052449431808
62.1151302635151
62.1028809666746
62.0696625081528
62.0166794772878
61.945167814947
61.8563873591114
61.7516147824701
61.6321369749562
61.4992724452201
61.3550710207756
61.2023522683338
61.0439302767636
60.8825672583357
60.7209700117749
60.5617888742748
60.4076190340394
60.261004076649
60.1244416485783
60.0003911386957
59.8912833028641
59.7995317873646
59.7275465435365
59.6777491688519
59.6525902590385
59.6545309951566
59.6843834734702
59.7406498050129
59.8217168722223
59.9260176688387
60.052018239102
60.1982056086431
60.363076596423
60.5451274236815
60.742844059797
60.9546932667913
61.1791143243647
61.4145114361044
61.6592468350898
61.9116346235959
62.1699353969852
62.4322201623614
62.6958534382368
62.9579148605357
63.2153864201089
63.4651544584383
63.7040147121
63.9286806718093
64.1357954581311
64.3219473750321
64.4836892444996
64.6175615497412
64.7201193211038
64.7879625888605
64.8177701026594
64.8063383076186
64.7523731223558
64.6595887761473
64.5326319193256
64.3761981513664
64.1949870461107
63.9936639406568
63.7768286889618
63.5489913725272
63.3145547951236
63.0778034668965
62.842898703689
62.6138794267729
62.3946682422851
62.1890824041294
62.0008493147392
61.8334043014488
61.6871409304422
61.5603303198994
61.4512597808644
61.3582708972835
61.279750549746
61.21412298592
61.1598428511927
61.1153891102169
61.0792598046327
61.0499676045447
61.0260361216374
61.0059969603123
60.9883874900737
60.9717493276775
60.9546275213528
60.9360029576289
60.9173833412575
60.9011859491816
60.8898245592556
60.8857110692416
60.8912602885205
60.9088966499933
60.9410628706346
60.9902306149815
61.0589132486678
61.1496808096066
61.2651773735862
61.408141050285
61.5814269170063
61.7880332834355
62.0310567569514
62.3103697239043
62.621140631529
62.9580666278233
63.3156643451286
63.6882241485233
64.0697731899497
64.4540483035748
64.8344800547341
65.2041894616025
65.5559990247341
65.8824596999251
66.1758953075655
66.4284655608898
66.6322483955337
66.7810043324725
66.8759759361057
66.9207060869956
66.9189970449699
66.874854908076
66.7924365383992
66.6760000086393
66.5298594440573
66.3583449013702
66.1657677062791
65.9563914731992
65.7344088602907
65.5039239734362
65.2689402255377
65.0333478755181
64.8000040109032
64.5697426984284
64.3431286755813
64.1207107691418
63.9030227393136
63.6905841993045
63.4839016046255
63.2834693071309
63.0897706695899
62.9032792373727
62.7244599646373
62.5537704932149
62.3916624832291
62.2385829953245
62.0949759252448
61.9613698728909
61.8390407906994
61.7296385285029
61.6348061470375
61.5561842923472
61.4954196466585
61.4541742788241
61.4341359509768
61.4370294610608
61.4646291270209
61.518772548299
61.6013758147832
61.714450373577
61.8601218113369
62.0406508662466
62.2584073372258
62.5124318035322
62.7960351391144
63.1018179945069
63.4221307245933
63.7490243683722
64.0742198997051
64.3890977542121
64.6847098988946
64.9518167427691
65.1809509412382
65.3625095787985
65.4868752905696
65.5445655929022
65.5264080621612
65.4245548781638
65.2416764811624
64.9874696670683
64.6719815711072
64.3052979766324
63.8973795402087
63.4579299728039
62.9962962586314
62.5213995549548
62.0416944101514
61.5651533359058
61.0992735195081
60.6511024988715
60.2272798798103
59.8340925924291
59.4775417123282
59.1632599247661
58.8925320012649
58.6621901089565
58.4690838672598
58.3102756997694
58.1830065472664
58.0846658784248
58.0127653546234
57.9649156317769
57.9388058857732
57.9321857337953
57.9428492952325
57.9686211958624
58.0073443696391
58.0568695553456
58.1150464217129
58.1797162851671
58.2492374313546
58.3242941540042
58.4062244150911
58.4963851781519
58.5961559155414
58.7069428220042
58.8301837568916
58.9673539646897
59.1199726349666
59.2896103764454
59.4778976960337
59.6865345927328
59.9173013989799
60.1720710288703
60.4528228247519
60.7616528696887
61.0986213806057
61.4582842823771
61.8340964138884
62.219200047466
62.6063909663528
62.9880997743134
63.3563905843743
63.7029793839218
64.0192743331395
64.296439978833
64.5254868152394
64.69738676797
64.8032140080211
64.834309041619
64.7825759047068
64.6468671667374
64.4361426698106
64.1604845730776
63.8300969730106
63.4551265396499
63.0455155748652
62.6108883074695
62.1604695689655
61.7030337786284
61.2468813929933
60.7998395951463
60.3692839484492
59.962177947466
59.5851278004406
59.2444503178981
58.9462520004737
58.6944765127222
58.486370854269
58.3180489630998
58.1858698616157
58.086391843209
58.0163327853676
57.9725356879271
57.95193873645
57.9515493546093
57.9684218439826
57.9996383207519
58.0422927507404
58.093477960025
58.1502755600382
58.2097487748532
58.2689381948177
58.325033235057
58.3778566678966
58.4293119909839
58.4813723349878
58.5360250187996
58.595272670063
58.661135717486
58.7356562874338
58.8209035467001
58.9189805470737
59.0320326456796
59.1622575985337
59.3119174539187
59.483352407921
59.6789968278868
59.901397702161
60.1529494292296
60.4317591879163
60.7324181565764
61.0492433953556
61.3763293322433
61.7075184406904
62.0363832124703
62.3562207783689
62.6600616584262
62.9406941366485
63.1907056273631
63.4025421075612
63.5685862123386
63.6812539191869
63.7331088865657
63.717342084897
63.6345152562152
63.4919907959186
63.2976059921358
63.059299455747
62.7849959546461
62.4825110342441
62.1594760073496
61.8232830234526
61.481049273985
61.1395989535718
60.8054613603329
60.4848834551844
60.1838552817805
59.9081468471397
59.6633553539599
59.4548499800552
59.2837767194159
59.1460675829938
59.0374975261736
58.9539928033202
58.8915939541773
58.8464249942043
58.8146682724412
58.7925446221739
58.7762985559203
58.7621883515145
58.7464809431085
58.7254515713488
58.695388161648
58.6526003888193
58.5934333507778
58.5142857142857
58.4128034143649
58.2913796631523
58.1535756460302
58.0029204383225
57.8428939078007
57.6769139903574
57.5083282082961
57.3404092493091
57.1763543944925
57.0192885739523
56.8722708367551
56.7383040462292
56.620347650227
56.5213334276073
56.4441841761124
56.3918353829112
56.3672600080535
56.3724955567453
56.4052680696834
56.4621670988438
56.5398224386375
56.6348769928079
56.7439636968908
56.8636863995578
56.9906046790457
57.1212226577084
57.2519819454202
57.3792588905807
57.4993663445271
57.608560149424
57.7030505391265
57.7790185951337
57.8326378240759
57.8601544558897
57.8602948446534
57.8352288563445
57.7874363095218
57.7194385048503
57.6337797482315
57.533010964745
57.4196755221228
57.2962973268575
57.1653712082273
57.0293555661461
56.8906672280641
56.7516784380284
56.6147158871189
56.482061688272
56.3559561993799
56.2386026058762
56.1321677025098
56.0383004052998
55.9577616218609
55.8912298785082
55.8393966982213
55.8029703063517
55.7826795764318
55.7792782459655
55.7935494372104
55.8263105237525
55.8784183902805
55.9507751405353
56.0443343171481
56.1601077072263
56.2991728193778
56.4626811317496
56.6518672270051
56.8680120824908
57.1103585455782
57.3751845322448
57.6584492992087
57.9559769649417
58.2634299067784
58.5762878325695
58.8898331536749
59.1991434150664
59.4990916288012
59.7843553992991
60.0494357114158
60.2886861634363
60.4963532558032
60.6666280840269
60.7937094265271
60.8722021491067
60.9018582071137
60.8865603797598
60.8304983867479
60.7380066293879
60.613510047931
60.4614754315126
60.2863688595622
60.0926196831892
59.8845912173536
59.6665581161344
59.4426902472276
59.217042768204
58.9935520341622
58.7760369308965
58.568205225465
58.3736622833242
58.195023680126
58.0325866194407
57.8863119200249
57.7561839549257
57.6422109340265
57.5444252773789
57.4628840832103
57.3976696952396
57.3488903747311
57.3166810835946
57.3012043858011
57.3026514754462
57.3212433409739
57.3572320763866
57.4109023517446
57.4825730569054
57.5725682069574
57.6804186366069
57.8047749859191
57.9442466395114
58.0974385621639
58.2629439022844
58.4393372251324
58.6251683719795
58.8189569549307
59.0191875095996
59.2243053392218
59.4327130940515
59.6427681389087
59.8527807693517
60.0610133429212
60.2656803959739
60.4649484359532
60.6569153375423
60.8396167921233
61.0110507577197
61.1691843946149
61.311961769816
61.4373129970032
61.5431648091764
61.627452533856
61.6881334094999
61.7232011472495
61.7307016049632
61.7087494016967
61.6555452615618
61.569393837661
61.4487217311537
61.2929060478247
61.1053497347267
60.8906507188693
60.6533702064327
60.3979973151364
60.1289210132701
59.8504089568328
59.5665929111303
59.2814603414258
58.9988516968617
58.7224628882626
58.4558524684359
58.2024530580465
57.9655866163112
57.7484832296213
57.5543031796806
57.3861516620368
57.2453539333131
57.1295578241565
57.0360415040529
56.9621720858163
56.9053865048932
56.863175128315
56.8330678663338
56.8126226186899
56.799415935513
56.7910358114391
56.7850765615979
56.7791357502994
56.7708131578949
56.7577117786031
56.737440842162
56.7076208450526
56.6659108473661
56.6118300089115
56.5481786346983
56.4780804424104
56.4046347839638
56.3309113747472
56.2599484167519
56.1947540310878
56.1383109147365
56.0935841504485
56.0635321268346
56.0511205675361
56.0593397239263
56.0912248556766
56.1498802090608
56.2385068063357
56.3604344843738
56.5191247437575
56.7151437596651
56.9436310784616
57.1990948247584
57.4759151626808
57.7682929104173
58.0702085343202
58.3753924029952
58.6773075092512
58.9691461043643
59.2438418136424
59.494098788707
59.7124392721437
59.8912705780904
60.0229719087433
60.1000006253476
60.1150832853076
60.0659551502193
59.9583883933091
59.799141502575
59.5951287940752
59.3533131739819
59.0806142531748
58.7838328420181
58.4695920567558
58.1442946320521
57.8140955650277
57.484888909273
57.1623073777865
56.851733381322
56.5583202011713
56.2870221518831
56.0426328117696
55.8298280043607
55.6512984127981
55.5044858093928
55.3860879456803
55.2929461750562
55.222015391388
55.1703382182366
55.1350229895691
55.1132251783679
55.1021320236244
55.0989501824019
55.1008962944134
55.1051903935484
55.1090521350013
55.1096998286677
55.1043522795297
55.0902334338934
55.0645798166086
55.0249751910781
54.9725298647026
54.9104918329711
54.8421231624582
54.7706601339332
54.6993077879119
54.6312382776167
54.5695929337897
54.5174879472213
54.4780235939917
54.4542969645553
54.4494182105532
54.466530392811
54.5088331013192
54.5796101250612
54.6822615795862
54.8203410580668
54.9975831090717
55.2153360498556
55.4695262522448
55.7553386060964
56.0678515321164
56.4019800127908
56.752426350599
57.1136392611445
57.4797822832925
57.8447128119556
58.2019733171808
58.5447964842393
58.866126066484
59.1586551552327
59.4148833078321
59.6271935091972
59.7879564397936
59.8925323442721
59.9438440106002
59.9462709892489
59.9044489563298
59.8231978166698
59.7074551829977
59.5622165899026
59.3924833966884
59.2032189580158
58.9993133116335
58.7855563588424
58.5666193005032
58.3470439398499
58.1312393702634
57.923485526513
57.7279430857165
57.5485534763415
57.3865304934202
57.2404507462343
57.1088294056926
56.9902289624313
56.8832524046527
56.7865372343682
56.6987502552915
56.618583077714
56.544748295849
56.4759763016065
56.4110127057434
56.3486163429744
56.2875578420352
56.2266187449645
56.1645911620629
56.1002779501692
56.0325240905668
55.9615733932821
55.8895874690305
55.8188472926569
55.75161093867
55.6901155724489
55.6365812327527
55.5932163708342
55.5622251272457
55.5458163489328
55.5462143765007
55.5656716648495
55.6064833402596
55.6710038443049
55.7616658709604
55.8810018697133
56.0316684668005
56.2164501242523
56.4361124518663
56.6875973987344
56.9674196904397
57.2720259937958
57.5977578041397
57.9408181370599
58.2972422493161
58.6628727958132
59.0333399968861
59.404047539172
59.770165057816
60.1266281390991
60.4681468301811
60.7892236342977
61.084181892556
61.347410346506
61.5763840600555
61.7711284551892
61.9318672568308
62.0589532967745
62.152863341688
62.214191932574
62.2436443534819
62.2420288568772
62.2102482793909
62.1492911847228
62.0602226703954
61.9441749720811
61.8023379936531
61.6359498833053
61.4462877664394
61.2348860856551
61.0042850229527
60.7572672934129
60.4965653617305
60.224849136189
59.9447162590113
59.6586848693546
59.3691886940095
59.0785743016504
58.7891003459745
58.5029386202138
58.2221767491711
57.9488223540415
57.6848085388394
57.4320005643463
57.1922035954017
56.9671708103545
56.7581681023782
56.5652194596003
56.388160077663
56.2268499645062
56.0811736016418
55.9510397000452
55.8363810496472
55.7371544620875
55.6533408070682
55.5849451433363
55.5319969460246
55.4945504328174
55.4726849921687
55.4665057176173
55.4761440531053
55.5017585551458
55.5435357786974
55.6016437914508
55.6759738534919
55.7663221422922
55.8725086725411
55.9943763281427
56.1317896959495
56.2846339921444
56.452814072066
56.6362535150808
56.8348937768136
57.048693401663
57.2776272890628
57.5216860074083
57.7808751499629
58.0552147273932
58.344738591862
58.6494397912243
58.9676006553294
59.2953863614348
59.6286723709757
59.9631449333966
60.2942935536942
60.617409937391
60.9275941855477
61.2197690111441
61.4887026937623
61.7290413728754
61.9353510934371
62.1021697558693
62.2240687851191
62.2957239250954
62.3119941510656
62.269931352374
62.173906790601
62.0301182428041
61.844894291555
61.6246063825818
61.3755933165323
61.1040989439906
60.8162232527869
60.51788656977
60.2148062514536
59.9124850061117
59.6162098645324
59.3310607845922
59.061927921592
58.8135367078518
58.5904800492117
58.3969632766477
58.2331820764628
58.0965615387838
57.9845858292608
57.8948402150074
57.8249919188935
57.772773386353
57.7359677172049
57.7123960706166
57.6999068977142
57.6963668949385
57.699653603156
57.7076496035332
57.7182382817875
57.7293011479799
57.7387167096867
57.7443609022556
57.7447269420476
57.7407814192669
57.7341102820608
57.7262991720135
57.718932363061
57.7135925708928
57.7118616309702
57.7153220438529
57.725559389086
57.7441656134632
57.7727432060748
57.81291028123
57.8663066012149
57.9346005840848
58.0194973575268
58.1227479386078
58.2460596226149
58.3888939510393
58.5484140619652
58.721647292105
58.9055685262616
59.0970868367909
59.2930351280941
59.4901629593009
59.6851327599165
59.8745196810895
60.0548153374007
60.2224356884978
60.37373328425
60.5050140492752
60.6125587110734
60.6926488797146
60.7419230455753
60.7605989381047
60.7511305502042
60.7160822947355
60.6580759059451
60.5797696931282
60.4838398739697
60.3729641542879
60.2498076577346
60.1170112532961
59.9771822812267
59.8328876398325
59.6866491664288
59.540941225605
59.3981904061916
59.2607772244531
59.1310031486172
59.0101580664853
58.8984628758098
58.7960895661037
58.7032153517302
58.6200233340214
58.5467031872359
58.4834518713688
58.4304743750962
58.3879844924255
58.3562056369449
58.3353716979262
58.3257279429269
58.3275319719814
58.3410547289635
58.3665815762494
58.4044134377593
58.4548079476527
58.5178210210241
58.5934749501003
58.6818080672966
58.7828748029202
58.8967457939861
59.0235080446008
59.1632651386737
59.3161375060333
59.4822627433426
59.6617959915437
59.8549103719143
60.0617974831821
60.282667962541
60.5177521138263
60.7672934596985
61.0303385105777
61.3033092121665
61.5821690973754
61.8627339959064
62.1406651463055
62.4114681462754
62.6704983085037
62.9129729855405
63.1339913810008
63.3285622694671
63.4916398989035
63.6181681441728
63.7031327183651
63.7416209341846
63.7288943967066
63.6629557989539
63.5483771389619
63.3908776928928
63.1962598576341
62.9703385714721
62.7188811607792
62.4475580506511
62.1619043655299
61.8672921186174
61.5689124483898
61.2717672032268
60.9806690936878
60.7002496168047
60.4349739976905
60.1891624810292
59.9670137135264
59.7711595616721
59.6004969992327
59.4534291541218
59.3284424840495
59.2240956520174
59.1390095258672
59.0718581656207
59.0213606843181
58.9862738867896
58.9653856068467
58.9575086772081
58.9614754784638
58.9761330238063
59.0003385453712
59.0329555560102
59.0728503673111
59.1191538435392
59.1724035294362
59.2336114707422
59.3038040824748
59.3840247790653
59.475337297381
59.5788294452415
59.695617306262
59.8268499382785
59.9737146100444
60.1374426295151
60.3193158270426
60.5206737684614
60.7429217866587
60.987539936179
61.2560817631433
61.5482807008553
61.8598013449863
62.1856292320409
62.5205472666493
62.8591127564977
63.1956430970845
63.524211156793
63.8386515057902
64.1325786482221
64.3994183392231
64.6324528798806
64.8248809704941
64.9698922566894
65.0607561241407
65.091141160249
65.0608262530371
64.9762237565565
64.8442884317035
64.6720943121592
64.4667417022992
64.2352792966471
63.9846420584679
63.7216048632126
63.4527514269808
63.1844577030314
62.9228887330338
62.6740078704685
62.4435973348579
62.2372891907852
62.0606060606061
61.9174160329695
61.8052504809254
61.7201842202226
61.6584107165669
61.6162112627005
61.5899292511512
61.5759491643693
61.5706800245999
61.5705431404804
61.5719640587833
61.5713686795869
61.5651835223322
61.5498401390548
61.5217836596876
61.4774854228328
61.4135300530876
61.3297473045096
61.2304095884373
61.1200870121463
61.0033010676038
60.8845120657399
60.7681132610633
60.6584314327267
60.5597336735515
60.4762401622293
60.4121427533126
60.3716293127348
60.3589138526921
60.3782726796898
60.4340869665293
60.5308923988943
60.6731456353688
60.8597302705395
61.0842635222876
61.3401133451183
61.6205180427458
61.9185204471169
62.2269162623358
62.5382176362503
62.8446334728582
63.1380683093516
63.410141722799
63.6522301666612
63.8555328282335
64.0111625110361
64.1102616602768
64.1445389744631
64.1129376401394
64.0206543841656
63.8733765462557
63.6769957366155
63.4375155721342
63.1609690365384
62.8533467366657
62.5205367428373
62.1682761934746
61.8021144276451
61.4273870897981
61.0492004267126
60.6724248603235
60.301696860939
59.9414281510629
59.5957724735167
59.2675864792601
58.958512879258
58.670095921145
58.4038434041299
58.1612398108137
57.9437600100508
57.7528835924092
57.5901099315049
57.4569740983229
57.3550637925732
57.286037496383
57.2516441026921
57.2537443254809
57.2943342637316
57.375571568761
57.4998047589901
57.6688525029974
57.8793798158399
58.1257752753321
58.4023547945455
58.7033013875615
59.0226060177228
59.3540191855443
59.6910141806865
60.0267633222085
60.3541288189624
60.6656700739694
60.9536693026579
61.2101772008536
61.4270800506459
61.5961890629932
61.7093870282267
61.7629823614629
61.7618600521611
61.7121621490792
61.6202406265607
61.4925650275766
61.3356421338575
61.1559488876977
60.9598791543281
60.7537043880798
60.5435478629678
60.3353718512408
60.1349769765208
59.948012921208
59.7799997185436
59.6363589960059
59.522452149902
59.4417541179687
59.3926195429612
59.3726294171198
59.3794614637101
59.4108683458103
59.4646581490344
59.5386768738278
59.6307927355398
59.7388821242487
59.8608171229481
59.9944545234326
60.1376263149009
60.2881316514691
60.4437303317434
60.6021378463831
60.7610416499343
60.9194599946173
61.0786635571077
61.2401615907049
61.4054954746013
61.5762404613188
61.7540082490549
61.9404504288232
62.1372628634104
62.3461910645791
62.5690366468976
62.807664951464
63.0640139510434
63.3401045703496
63.6380525820823
63.9600534307203
64.3057857409805
64.6701847034763
65.0474736531174
65.431607832112
65.8162516336331
66.1947671840891
66.5602157645399
66.9053736464913
67.2227638739125
67.5047053367528
67.7433801285258
67.9309196448604
68.0595091553315
68.1215230336194
68.1129869394748
68.0380509946958
67.9023131136046
67.7116319294574
67.4720305919807
67.1896088119879
66.8704647417561
66.5206276952561
66.1460021840998
65.7523232931589
65.3451230549253
64.9297072065773
64.5111415249573
64.0942468244346
63.6836005573599
63.2827576722834
62.8929390075927
62.5149397132375
62.1495166555123
61.7973925992416
61.4592604362752
61.1357874511235
60.8276196192242
60.5353859377979
60.2597027935395
60.001178375569
59.7604171461756
59.5380243859964
59.3346108344497
59.1507974505686
58.987220323952
58.8442946784578
58.7209204591476
58.6154429355718
58.5262616131515
58.4518226092921
58.3906105318336
58.3411413069878
58.3019558832894
58.2716147533178
58.2486932478747
58.231777568217
58.2194615310618
58.2103440085627
58.2030270514179
58.1961146877798
58.1882123937584
58.1779475245934
58.1650802133893
58.151074985333
58.1375348613762
58.1260599375783
58.1182480828973
58.1156965156095
58.1200042577255
58.1327754714246
58.155623688236
58.1901769504939
58.2380838955955
58.3010208269467
58.3806998314377
58.4788780221729
58.5973680074465
58.7380497131931
58.9024004333625
59.0900351237189
59.3001180681899
59.5318335855486
59.7843787572464
60.0569564091549
60.3487682981731
60.6590084633986
60.9868567098582
61.3314722008021
61.6919871424795
62.0675005532473
62.4570721169662
62.8597161289838
63.2743955516902
63.699696565324
64.1320403088616
64.5668097997624
64.9991298589146
65.4238649162716
65.8356227254235
66.22876703467
66.5974402266963
66.9355968343355
67.2370486511867
67.4955218735772
67.7047263295574
67.8584363729792
67.9505824564936
67.9761160555845
67.9377334548259
67.8426188393461
67.698231781683
67.5121472351734
67.2919565541846
67.0451852131178
66.7792278245849
66.5013003765059
66.2184090924516
65.9373349698812
65.6646328570392
65.4066438749521
65.1695200573417
64.9592602499783
64.7805065550472
64.6318661463227
64.5102474737296
64.4126732162484
64.3362574483228
64.2781856091663
64.2356973490456
64.20607202686
64.1866166930556
64.1746564405764
64.1675270455096
64.1625698492192
64.1571288556755
64.1485500316934
64.1341828040716
64.1119041658263
64.0818861630074
64.0449323263252
64.0018474334289
63.953435866876
63.9005001920599
63.8438399389217
63.7842505873621
63.7225227551065
63.659441585823
63.5957863345602
63.5323301470531
63.4698400291277
63.4090770023234
63.3507964419277
63.2955603997211
63.2425935476774
63.1905499132093
63.1380902473711
63.0838842148958
63.0266108303944
62.96495944722
62.8976312874473
62.8233414992586
62.7408217249827
62.6488231591438
62.5461200712306
62.4315137625667
62.3038369207784
62.1619583290342
62.004819586506
61.8331652579047
61.6503816698987
61.4600106987707
61.2655179986908
61.0702870727402
60.8776172406227
60.6907252669441
60.5127504157388
60.3467627146016
60.1957742434254
60.0627533067979
59.9506414044422
59.862372980129
59.800898006353
59.7692075506172
59.770341082989
59.8054923152487
59.8724925678112
59.9688987911928
60.0923265575496
60.2404268037735
60.410864675327
60.6013002718843
60.8093711647957
61.0326766180442
61.268763500078
61.5151139245325
61.7691347037939
62.0281487405838
62.2893885188514
62.5499918854835
62.8074115268654
63.0610187795918
63.3107760386702
63.5566486701019
63.7986049295203
64.0366159977144
64.2706560121543
64.5007020944824
64.7267343739493
64.9487360067801
65.1666931914725
65.3805951800373
65.5904342852025
65.7962058836154
65.997888408926
66.1945512473917
66.3839729815848
66.5637928508734
66.7316083629394
66.884982642891
67.0214536266667
67.1385451247419
67.2337797514377
67.3046936785637
67.3488531300793
67.3638724876767
67.3474338267218
67.2973076492567
67.2113753904344
67.089012542698
66.9338250297412
66.7502292429505
66.542631678202
66.3153958325796
66.0728150509763
65.8190912787297
65.5583195470083
65.2944779220428
65.0314225859314
64.7728876830073
64.5224895583662
64.2837350306451
64.0600333761364
63.8547116043769
63.6703086037642
63.5069435014102
63.3642751885444
63.2420049367004
63.1398749076207
63.0576668751346
62.9952011472382
62.9523356785399
62.928965365025
62.925021514766
62.9404714897856
62.9753185157926
63.0296016579732
63.1033959624616
63.1968127645404
63.3097561783117
63.4407329058669
63.587734947784
63.7487399795701
63.9217020160233
64.1045425864696
64.2951431499376
64.4913387934035
64.6909132761088
64.8915954996482
65.0910574967252
65.2869140407461
65.4767239832445
65.6579934259114
65.8281876347245
65.9853507170074
66.1286152592447
66.2572333892631
66.3704667384589
66.4675895493621
66.5478918964717
66.6106830009322
66.655294617166
66.6810844672211
66.6874396964078
66.6737803218183
66.6395626436194
66.5842825876206
66.5074789466044
66.4091211514508
66.2916882033309
66.1586344656064
66.0133891515407
65.8593399031343
65.6998224382283
65.5381137196147
65.3774285142407
65.2209191901428
65.0716785925446
64.9327458474072
64.8071149594298
64.6977461010351
64.6075795284473
64.5395521101716
64.4960428965025
64.4769511160551
64.4815400023587
64.5091256256073
64.5590719373909
64.6307861879995
64.7237146855612
64.8373388527621
64.9711715418666
65.1247535730488
65.2976504647655
65.4894493281415
65.6997559001598
65.9281916929344
66.1743222276073
66.4355319813679
66.70653900083
66.9817434673975
67.2553596149153
67.5214116123916
67.7737398427309
68.0060184283512
68.2117847756294
68.3844817366341
68.5175127097677
68.6043096165032
68.6384132020666
68.613564525457
68.5240021327174
68.3705191812642
68.1614548118091
67.905666498178
67.6119841801687
67.2891056301481
66.9455153229889
66.5894263526888
66.2287442163478
65.8710508198283
65.5236068266005
65.1933704401613
64.8870308464375
64.6110548132868
64.3717453228112
64.17511521185
64.0226730891104
63.9115846794587
63.8390207312212
63.8023203403437
63.7989605794227
63.826529401187
63.8827013292643
63.9652155457896
64.0718560666587
64.2004337643466
64.3487700578082
64.5146821410182
64.6959696676923
64.8904028507354
65.0956245632169
65.3083752338592
65.5248330180025
65.7410694080162
65.9530515155717
66.1566439928801
66.3476161252187
66.5216544030265
66.6743808326351
66.8013771634827
66.8982150946845
66.9604923747941
66.9838745270286
66.9641417221267
66.8973286639235
66.7836878242818
66.6291895398416
66.4402690128853
66.223344963913
65.9847616036803
65.7307432540681
65.4673614233187
65.2005138356716
64.9359147127761
64.6790954971807
64.4354151863912
64.2100794980243
64.0081682015467
63.8346701208036
63.6944818180132
63.5894480652361
63.5165032035857
63.4722482167967
63.45338605798
63.4566937344281
63.4789981967173
63.5171557230277
63.5680345872787
63.6285008804908
63.6954074208409
63.7655857404876
63.8358411770263
63.9029511245402
63.963666513394
64.0147448066723
64.0549102118924
64.0861396040323
64.1107277773407
64.1309818834766
64.1492174852708
64.1677562676042
64.1889254215254
64.2150587133431
64.2484992511468
64.2916039670841
64.3467498448824
64.4163419386964
64.5028232516862
64.6086865712228
64.7364074568321
64.8863636809503
65.0566086540981
65.2450714721711
65.4496612230433
65.6682551757554
65.898688203154
66.1387434653826
66.3861444099606
66.6385481696622
66.8935404618165
67.1486321115808
67.4012573366377
67.6487739409126
67.8884757717756
68.1183071599466
68.3373556423253
68.5448099862915
68.739854685567
68.9216725210465
69.0894473132006
69.2423668581457
69.3796260368392
69.500430084118
69.6039980014739
69.6895660946106
69.7563916139902
69.8037564738079
69.8309914237232
69.8378151914216
69.824283862096
69.7904986632546
69.7365958193124
69.6627458494617
69.5691527233329
69.456052881611
69.3237141297481
69.1724344137799
69.0025404880091
68.8143864849543
68.6083523984707
68.3848424913351
68.1443513821416
67.8889389570937
67.6221669809589
67.3475733271404
67.0685948884112
66.7885624740828
66.5106992085698
66.2381221584176
65.9738469190965
65.7207949094458
65.4818031486032
65.2596363259127
65.0570010173115
64.8765619511157
64.7209602814645
64.5926599692664
64.4920525060492
64.4182059177458
64.3702380134009
64.3473346178691
64.3487433405056
64.3737678954477
64.4217629038411
64.4921291169033
64.5843090060066
64.69778267222
64.8320640331212
64.9866972493215
65.1612533571408
65.3553270773394
65.5678526749198
65.794749743971
66.0310078957223
66.2714785846439
66.5108631713932
66.7437090904268
66.9644147779201
67.1672439973751
67.3463501405872
67.4958109500246
67.6096738991043
67.6820121764475
67.7069908508988
67.6789423541042
67.5933221214753
67.4527303267098
67.2632073856661
67.0309175385981
66.7620493176321
66.4627461688534
66.1390486378905
65.7968482456697
65.4418527928341
65.079562536788
64.715256481992
64.3539879047107
64.0005881876752
63.6596780565247
63.3356853768977
63.0327037791917
62.7521836660613
62.493606657068
62.2564517780259
62.0402461371877
61.8445625285174
61.6690172986504
61.5132684572222
61.3770140128763
61.2599905196279
61.1619718203878
61.0827679763888
61.0222243730267
60.9802209942695
60.9566718593055
60.9515246165451
60.9645242702725
60.9939279958872
61.0374118409505
61.0926587688531
61.157350257653
61.2291581590548
61.3057383040586
61.3847258668954
61.4637325166806
61.5403453984738
61.6121279919246
61.6766228961693
61.7313565837985
61.773846154292
61.8016080980976
61.8121901518181
61.8046410210793
61.7804618367672
61.7414016805518
61.689224178024
61.6256995812717
61.5525978393634
61.4716826832862
61.3847067365478
61.2934076497296
61.1995052468589
61.1046996635519
61.0106704514262
60.9190766202002
60.8315575880682
60.7497350122454
60.6751574652108
60.6080311684432
60.5472369017294
60.4916109357156
60.4400009669041
60.3912643580649
60.3442668237845
60.2978815510045
60.2509887461753
60.2024756017245
60.1512366749432
60.0961746721505
60.0362016301234
59.9702404853025
59.8972270192314
59.8161121660913
59.725927994984
59.6277130299939
59.5248306319106
59.4207353489073
59.3188346955665
59.2224899069019
59.1350205233939
59.059712682327
58.9998310218369
58.9586341518795
58.9393937104451
58.9454171040453
58.9800741300048
59.0468277966703
59.1492698000174
59.2911612867236
59.4764423025252
59.7059058991589
59.9744006430673
60.2760911114543
60.6050028082039
60.9549564866817
61.3195132837005
61.6919316141661
62.0651372349724
62.4317082568814
62.7838771397152
63.1135518160672
63.412358013149
63.6717045410465
63.8828727526893
64.037178493848
64.1304173088904
64.1664539669967
64.1502974587233
64.0872184384721
63.9826682787232
63.8422050483777
63.6714278480664
63.4759204580472
63.261204821486
63.0327045147889
62.7957180571475
62.5554016871604
62.3167610838996
62.0846514281917
61.8637851801977
61.6583085358498
61.4684790609976
61.2926240696702
61.129108877728
60.9763461418055
60.8327898360032
60.6969301376048
60.5672891587708
60.4424174716405
60.3208913827288
60.2013109191514
60.0822984942347
59.9624982236074
59.8405758650511
59.7152193563171
59.5851399248826
59.4492792293383
59.3093785496087
59.169141219559
59.0322455968585
58.9023027293179
58.7828630452372
58.6774272841445
58.5894615190991
58.5224161881022
58.4797491378072
58.4649527879215
58.4815856509531
58.5333085923425
58.6239263954527
58.7574354117026
58.9380783386705
59.1702935782819
59.4536883407361
59.7807823791494
60.1433949751316
60.5330496307652
60.9408759838991
61.3575340546731
61.773163801741
62.1773638553752
62.5592038741743
62.9072751412475
63.2097836566806
63.4546889783947
63.6298903201456
63.7234588948365
63.7240198757325
63.6284719336102
63.4468539183453
63.1908667882225
62.8724432792499
62.5035028034328
62.0957507617824
61.6605241078089
61.2086822765138
60.7505406231741
60.2958422802194
59.8537637604126
59.4329495981572
59.0415717075833
58.6874098355153
58.3779504105887
58.1205021760015
57.9212042354265
57.7775367607134
57.6832045901813
57.6322356858093
57.6189113361543
57.6376862841212
57.6831216241977
57.749829109979
57.8324260222378
57.9255001532264
58.0235847800776
58.1211437371422
58.212566856151
58.2921761224079
58.3542428905106
58.3930164092505
58.4028332872198
58.3819731245752
58.3346445867421
58.265591204707
58.1795686486534
58.0813135306395
57.9755200008663
57.8668241058918
57.75979574519
57.6589379837829
57.568693451076
57.4934575764226
57.437598477148
57.4054834224067
57.4015119453832
57.4301558682116
57.4960067427037
57.6034429192275
57.7523577502214
57.9396670016004
58.1623006091609
58.417216074126
58.7013596214443
59.0116303723581
59.3448473157175
59.6977190210108
60.0668161847046
60.4485472423269
60.8391374121869
61.2346116614447
61.6307821984949
62.0232411926965
62.4073652298466
62.7790173351276
63.1352687046559
63.4732558365273
63.7900407892205
64.0826272433704
64.3479795508104
64.5830447721269
64.7847776260434
64.9501681850669
65.0762720539123
65.1602426631205
65.1993652037274
65.1910916243946
65.1330760153327
65.0233519951282
64.863479694429
64.6584690646164
64.4135579023002
64.1340038216862
63.8250272705771
63.4917632204391
63.1392216704168
62.772256816513
62.3955445109087
62.0135674718977
61.6306075981073
61.2507446853029
60.8778608326567
60.5156498500791
60.1676310315575
59.8370872330098
59.525358986672
59.2319556164415
58.9563462327417
58.6980376790398
58.456572313717
58.2315259903045
58.0225062187814
57.8291504925348
57.6511247672653
57.4881220796213
57.3398612946818
57.2060859726031
57.086563345814
56.9810833991114
56.8894580458766
56.8115203944221
56.747134123521
56.6963363120854
56.6593026518763
56.636230647936
56.6273374359357
56.6328609051839
56.6530609178659
56.6882206342019
56.7386479542834
56.8046770885629
56.8866702703465
56.9850196252066
57.1001492140082
57.2325172682724
57.3826186389133
57.5509874820303
57.7382002084695
57.9444555984795
58.1681148753306
58.4069948401914
58.6588577723516
58.9213993492696
59.1922380840702
59.4689064159614
59.7488436104714
60.0293906574825
60.3077873806467
60.5811719906389
60.8465833253021
61.1009660203525
61.3411788431434
61.5640063972302
61.7662224659643
61.9463750575302
62.1053603379602
62.2442965704245
62.3643671720499
62.4668130542695
62.5529251639567
62.6240373196124
62.6815194262505
62.726771141661
62.7612160557731
62.7862964342014
62.8034685670042
62.8141987544408
62.8199599532631
62.8222284058366
62.821979107433
62.8187976118135
62.8120323827984
62.8010335372593
62.7851536543391
62.7637487160751
62.7361791767484
62.701811157421
62.6600177611711
62.6101805034865
62.5516908511584
62.4839518618289
62.406379915112
62.3184065249443
62.2194802215436
62.1093297858531
61.9905088341366
61.8672485734165
61.7437419555468
61.6241161845803
61.5124354497203
61.4127090356666
61.3289046204201
61.2649666306463
61.2248396117575
61.2124966835972
61.2319732940961
61.287406655424
61.3830814551947
61.5234826873245
61.7133533104811
61.9552514681298
62.245032587214
62.5773876896271
62.9469328064423
63.3481323734195
63.7752306264007
64.2221913220748
64.6826466229376
65.1498564578929
65.6166800920303
66.0755619911789
66.5185343200471
66.9372385301837
67.3229684327907
67.6676784387309
67.9687137223376
68.2255489316416
68.4378468378413
68.6054569370989
68.7284148380484
68.8069397506374
68.841430144773
68.8324576803947
68.7807595403634
68.6872293231569
68.5529066732055
68.378965842383
68.1667033865157
67.9177687715746
67.635795933766
67.3253079333869
66.9907685228495
66.6365449487153
66.266882358905
65.8858842137082
65.4974983693286
65.1055084216391
64.7135298485413
64.3250104679194
63.9432347303305
63.5713313869906
63.2122841102218
62.8689446917429
62.5439849632324
62.2382963780006
61.9509436737523
61.6809544833972
61.4274076869895
61.1894287805507
60.9661856668224
60.7568848235734
60.5607678106184
60.3771080815007
60.2052080699675
60.0443965250041
59.8940260713742
59.7534709754011
59.6221250981713
59.4994000204949
59.3847338704348
59.2783154486331
59.181539564105
59.0959016401506
59.0228904223519
58.96399413212
58.920707368098
58.8945387842675
58.8870195894296
58.8997129306233
58.934224243377
58.9922126749436
59.0754037134856
59.1856031873561
59.324712835193
59.4947476908066
59.6978426885421
59.9340921121034
60.1990002429772
60.4873822462937
60.7938986605394
61.1130149508739
61.4389699484076
61.7657540839625
62.0870985544565
62.3964767165572
62.6871190675767
62.9520431267794
63.184099349693
63.3760338742373
63.520568397028
63.6105020630745
63.6426321399267
63.6245786345534
63.5660074674767
63.4766958392843
63.3664235091268
63.2448940110629
63.121686060539
63.0062345867367
62.9078403990053
62.83570744198
62.7990068911988
62.8069679700643
62.8689963259516
62.994822109917
63.1946816199388
63.4766634840278
63.8356786349952
64.262645592164
64.7483799439467
65.283390641082
65.8576977286307
66.4606732654428
67.080908630126
67.7061135384851
68.3230539880815
68.9175378589088
69.4744578205646
69.9779012508749
70.4114076189267
70.7647384662848
71.0396523434882
71.2397866629303
71.3693867456931
71.4332140500938
71.4364522729505
71.3846144683974
71.2834539371185
71.1388811707699
70.956888632564
70.7434846515638
70.5046372347319
70.2462281792114
69.9740140876079
69.6935523046088
69.410198397447
69.1291399247572
68.8553987259778
68.5938395367595
68.3491854304324
68.1260395611599
67.9289128005997
67.7622570067371
67.630503838541
67.5381092331416
67.4896038959481
67.4896504243654
67.5429976648839
67.6496491382951
67.8028705221987
67.9954948268487
68.2203387067222
68.4701238262288
68.7374129459137
69.014561025467
69.2936821624895
69.5666335807458
69.8250181339954
70.0602068786561
70.2633831630388
70.4256093550058
70.5387307122881
70.6017757537574
70.6176359467665
70.5894361503015
70.5204640692338
70.4141311344854
70.2739354733844
70.1034275519848
69.9061789369606
69.6857544948611
69.4456882258127
69.1894628207199
68.9204929379884
68.642112119026
68.3574342814014
68.0683680686051
67.7761961258657
67.4821567888908
67.1874484215728
66.8932293930905
66.6006184725252
66.3106956053024
66.0245030372012
65.7430467535687
65.4672982036614
65.1981962826293
64.9366495464925
64.6835386384838
64.4397189082939
64.2059145965805
63.9821394295078
63.7681387535955
63.5636690992369
63.3684982716266
63.1824047848164
63.0051773309711
62.8366142823259
62.6765232235477
62.5247205123867
62.3810308666694
62.245286975839
62.1173291353852
61.9970049026359
61.8841687724943
61.7786896138055
61.6809834415403
61.5923498983746
61.5141620346524
61.4477880645935
61.3945964383239
61.3559615232633
61.3332699169232
61.3279274246542
61.3413667488299
61.3750559506189
61.4305077621824
61.5092898462537
61.6130361221286
61.74345930276
61.9023648177394
62.0911818390255
62.3079866779387
62.5493600621986
62.8118221913139
63.0918110608081
63.3856583907978
63.6895692530424
63.9996056855323
64.3116746819894
64.6215210248556
64.9247254906589
65.2167089912583
65.4927432177469
65.7479683197067
65.9774320226956
66.1778068871094
66.3490817762916
66.4917138236014
66.6062496355536
66.6933199345834
66.7536337572623
66.7879722937528
66.797182454902
66.7821702523556
66.7438940745548
66.6833579376336
66.6016047852643
66.4997099056015
66.3787745268717
66.2400559743141
66.085888399854
65.9190900292036
65.7424450788765
65.5586917377319
65.3705155638013
65.1805451999139
64.9913502990123
64.8054415403909
64.6252726159279
64.4532440699598
64.2917088870381
64.1429797377442
64.0093378134928
63.8930432064324
63.7961043569116
63.7184310096102
63.6588853991944
63.6163606957658
63.5897840164728
63.5781109389728
63.5803204746803
63.5954104604488
63.6223933344552
63.660292268352
63.7081376333402
63.7649637828026
63.8298061385859
63.9016985720107
63.9796710742504
64.0629424878561
64.1524260618121
64.2499261740971
64.3572811784395
64.4763613571181
64.6090752128218
64.7573769738191
64.9232753995675
65.1088439954937
65.316232771725
65.5476817118494
65.8055361553337
66.0922643423364
66.4104774239831
66.7628824242808
67.1484347446886
67.5600946863786
67.9900082663053
68.4299291333782
68.8711769656858
69.3046160151669
69.7206567421471
70.1092836610902
70.4601124172541
70.7624786665401
71.0055604795293
71.1785346972263
71.2707659268823
71.274045791097
71.1925652556557
71.0353439866602
70.8117765218572
70.5314446257678
70.2039579236223
69.8388198386767
69.4453201448408
69.0324541089641
68.6088671667752
68.1828233589648
67.76219532949
67.3544735212177
66.9667922515214
66.6057640774439
66.2730459917341
65.9656135760869
65.6803932539028
65.4144490275549
65.1649638698437
64.9292241323295
64.7046066659987
64.4885684047202
64.2786382054091
64.0724107725159
63.8675425197831
63.6617492402534
63.4528054671766
63.2385454144914
63.0168827391703
62.7873561143828
62.5522873953104
62.3142199242849
62.0756241085409
61.8388967121104
61.6063620584265
61.3802749965467
61.1628254926907
60.956144722539
60.7623125577349
60.5833663616436
60.4213110342224
60.2781302735732
60.1557990523276
60.056297340593
59.9816066489905
59.9320732366028
59.9051237998233
59.8979411474599
59.907753809201
59.9318190297567
59.9674084296942
60.0117962208939
60.0622499152038
60.1160235053603
60.1703531281349
60.2224552411292
60.2695273566183
60.3087513780749
60.3372995771837
60.3523432309942
60.351125785313
60.3337156742701
60.3040899632453
60.2665143879042
60.2252426690629
60.1845083318241
60.1485225164323
60.1214777071125
60.1075573097996
60.1109510487716
60.1358762253869
60.186604989834
60.2674979209093
60.3830443931504
60.5379104416639
60.7369951226544
60.9851003081978
61.2812484713021
61.619765015263
61.9947444807463
62.4000922632991
62.8294502211614
63.2761327289112
63.7330744079666
64.1927913239553
64.6473579202189
65.0884023249003
65.507122883089
65.8943287730365
66.2405073094056
66.5359281633765
66.7740753242923
66.9569696922897
67.0882946285059
67.1720544960794
67.2125137950366
67.2141385714527
67.1815415163191
67.1194318969599
67.0325711886216
66.9257350114168
66.8036817401298
66.6711279500692
66.5327306964314
66.3930764999749
66.25649247073
66.1252541999744
66.0003986058185
65.8829324182379
65.7738517800694
65.6741447482362
65.5847940775729
65.506780287779
65.4410850177601
65.3886946757178
65.3506043978416
65.3278223333979
65.3213742794658
65.3323086946252
65.3617021276596
65.4098577103304
65.4738761623044
65.5500504035523
65.6346550038467
65.7239343244409
65.8140948747163
65.9013019724209
65.9816808231064
66.0513221404101
66.1062924128363
66.1426488836788
66.1564592480183
66.1438259843432
66.1009151292517
66.0241499522874
65.9143727434422
65.7771503091164
65.6182701491211
65.4434637523464
65.2583748049569
65.0685375499836
64.8793649354198
64.6961460718533
64.5240524748853
64.3681525856145
64.233434137648
64.1248340656842
64.0472758247839
64.0057142096827
64.0049930606811
64.0448755353015
64.1195969683699
64.2231798016348
64.3496572137255
64.493024155717
64.6471993665394
64.8059984586518
64.9631184231702
65.1121340767388
65.2465070542766
65.3596079340214
65.4447519549368
65.4952485439824
65.5044645084328
65.466778121115
65.3829967611828
65.2567972187581
65.09198820497
64.8924540755254
64.6621131581782
64.4048804137733
64.1246347735426
63.8251913248086
63.5102783688601
63.1835192512147
62.8484187667025
62.5083538693182
62.1665683679842
61.8261712619437
61.4901359187107
61.1608990253109
60.8399377561165
60.528559562848
60.2280195134845
59.9395255743635
59.6642442528817
59.4033065668899
59.1578143174712
58.928846652451
58.7174669187376
58.5247298125179
58.3516888475213
58.1994041731931
58.0689507868726
57.9614271972011
57.8779646102969
57.8196073553711
57.7856990122269
57.7743848512488
57.7838409705899
57.8122886385176
57.8579820059134
57.9191970588224
57.9942217120626
58.0813469723435
58.1788591233227
58.2850329060169
58.3981256863307
58.5163726173628
58.6379828176884
58.7611365979981
58.8839837772005
59.00466244604
59.1223611647123
59.2378920075933
59.3522167475475
59.4663125675797
59.5811718989654
59.6978025853318
59.8172283861867
59.9404898339748
60.0686454598306
60.2027734048385
60.3439734358427
60.4933693877444
60.6521120578238
60.8213825820305
61.0023963284832
61.1962311797744
61.4015961136614
61.6154275643284
61.8345423463901
62.0556674993442
62.2754355889637
62.4903835302158
62.696955201105
62.8915081170219
63.0703244164292
63.2296263687801
63.3655965524963
63.4744027633608
63.5522276014912
63.5953025491661
63.600140516863
63.5672542751872
63.5008509620083
63.4053510791879
63.285212081859
63.1448913590779
62.9888154523268
62.8213556312535
62.6468097851242
62.4693904656707
62.2932188321782
62.1223242010278
61.9606488867479
61.8120580367781
61.6803542044565
61.5692964715393
61.4819375328528
61.4180366281812
61.3764124653942
61.3559394285005
61.3555399575882
61.3741773694262
61.4108492441366
61.4645813112264
61.5344217785848
61.6194360571157
61.7187018416944
61.8313045162929
61.9563328575699
62.09287501708
62.2400147676267
62.3968531407323
62.5629846289784
62.7384686383452
62.9233894764486
63.1178392959012
63.3219182347678
63.5357345736698
63.7594049100444
63.9930543501353
64.2368167193608
64.4908347917809
64.7552605394619
65.0302554026235
65.3159905815391
65.6126473512561
65.9198472493941
66.2341458671327
66.5509474859298
66.8654772112553
67.1727793600813
67.4677224303582
67.7450119540176
67.9992118638932
68.2247749024768
68.4160824348422
68.5674937951439
68.6734049951491
68.7283162583281
68.7269074241107
68.665722373313
68.5493379340357
68.3848641613822
68.1795051141034
67.9404676931611
67.6748859788229
67.3897610670701
67.0919162929678
66.7879672796448
66.484305942295
66.187097398512
65.9022886753844
65.6356281438492
65.3926947356453
65.1789190470064
64.9967669061926
64.8426550607546
64.7123692635185
64.601817076662
64.5070004308983
64.4239936801659
64.3489267873774
64.2779733795924
64.2073434856755
64.1332808187242
64.0520644910643
63.9600150526858
63.853504725702
63.7289716689189
63.5829405208778
63.4138237065236
63.2250141990812
63.0207042560648
62.8050116208676
62.5819630383456
62.3554832643624
62.1293892804092
61.9073893836268
61.6930868094886
61.4899875557952
61.3015121092627
61.1310108269865
60.9817827921228
60.8570980447257
60.7602231841812
60.6944211625327
60.6609630091128
60.6578535277863
60.6828816767577
60.7339117667903
60.8088642220947
60.9056981704399
61.0223956612892
61.1569473611915
61.3073396197665
61.4715428386149
61.6475011102291
61.8331231250711
62.0262743727649
62.2247706879628
62.4263732128218
62.62881456934
62.8299122979659
63.0274717171114
63.2192445558908
63.402931832586
63.5761884491474
63.7366295749461
63.8818388856239
64.0093787006552
64.1168020346754
64.2016665427418
64.2615502987349
64.294069299658
64.2968965375884
64.2677824267782
64.2054874738204
64.1125162079967
63.9923434050718
63.8484697200678
63.6843946782671
63.5035934765021
63.3094976863838
63.1054798552106
62.8948419226216
62.680807311868
62.4665165133133
62.2550259532885
62.0493099322185
61.8522654203228
61.6667195155033
61.4953912762918
61.3391588824273
61.1966181487803
61.0662592192593
60.9466112925514
60.8362371239858
60.7337283064606
60.6377012806802
60.5467940339061
60.4596634537532
60.3749833094319
60.2914428373762
60.20774591151
60.1226107805712
60.034770356005
59.9429730340137
59.8460208486432
59.7443958284356
59.6408742145332
59.5383638863236
59.4397331038761
59.3478130262735
59.2654029230918
59.1952780006538
59.1401997910351
59.1029290880512
59.0862414605214
59.0929454293616
59.125903462372
59.1880560205191
59.2824489843819
59.4122649026121
59.5808410015336
59.7895777604504
60.0358527699816
60.3165989614078
60.6287372795549
60.9691387246866
61.3345890821298
61.7217562631077
62.1271603368097
62.5471464839588
62.9778612467956
63.4152325885107
63.8549544039538
64.2924762383161
64.7229990649731
65.1415255583964
65.5441130587685
65.9280785676457
66.29073825808
66.6293531353991
66.9411453911493
67.2233171638791
67.4730716497946
67.6876364406361
67.864288894033
68.0003832649632
68.0933792482416
68.140871504185
68.1406196662134
68.0906563727245
67.9927651402889
67.8537923353565
67.6810003605204
67.4816273168044
67.2628243914398
67.0316089772692
66.7948331916004
66.5591671236874
66.3310959400828
66.1169299046448
65.922826410899
65.7548232644561
65.6188826801686
65.5209457644864
65.4662390411192
65.4527733061144
65.4746064504405
65.5258631896096
65.6007222519366
65.6933688904167
65.7979577909151
65.9085862401525
66.0192776568804
66.1239757534877
66.2165496814702
66.2908105186533
66.3405393737815
66.3595272108408
66.3416657662393
66.2857456692117
66.1999441476109
66.0935118970369
65.9756351710726
65.8553918224128
65.7417328233088
65.6434884817726
65.5693985034866
65.5281652587506
65.5285300844595
65.5793731785146
65.6898386413402
65.8694875251494
66.1284834407762
66.4761247366715
66.9077913334241
67.4113900495314
67.9744246165648
68.5837820137768
69.2254966403053
69.8845594096572
70.5447806967053
71.188719389964
71.7976927541699
72.3518829259239
72.8305550704492
73.2123989122893
73.477459124532
73.623988529234
73.663145078563
73.6073629707043
73.4698020597027
73.2640356296797
73.0037793554721
72.7026684642208
72.3740863971414
72.0310452406403
71.6861159725706
71.3514051684645
71.0385741769484
70.7588948424948
70.5202537027516
70.3211318833632
70.1584212953011
70.0291808949342
69.930608313736
69.8600148175208
69.814803161288
69.7924479925734
69.790478528722
69.8064632944824
69.8379967579088
69.8826877463471
69.9381495614549
70.0019758161745
70.0710267398006
70.1411360318143
70.2080305524946
70.2674051685008
70.3149292602595
70.3462585764236
70.3570524696098
70.342996472432
70.2998300701599
70.2233793977934
70.1095944381419
69.9545901286222
69.7546906048591
69.5068237041118
69.2135024548618
68.8814664483413
68.5174815117661
68.1281633860915
67.7199275489288
67.2989523996155
66.8711549807731
66.4421781924874
66.017388338887
65.6018818176024
65.2004998045409
64.8178498843461
64.4583337172454
64.1261800045874
63.8252387630848
63.5555718918607
63.3144320871343
63.0991426216135
62.907153798426
62.7360235856734
62.5834007973614
62.4470105377246
62.3246416806262
62.214136200785
62.1133802106573
62.0202965871305
61.932839096703
61.8489879472493
61.7667467093273
61.6841405868182
61.6001522822026
61.517177050862
61.4383567824319
61.3668022286426
61.3055988972822
61.2578160287562
61.2265186217347
61.214782518829
61.2257126205458
61.2624643666393
61.3282687098561
61.4264609102729
61.5605136024401
61.7340747372664
61.9510111827718
62.2151392130394
62.5249584918823
62.87424631271
63.2564717525524
63.6648612760868
64.0923272103507
64.5314093931628
64.9742317579029
65.412476163204
65.8373761932179
66.2397338967946
66.6099624459944
66.9381574142118
67.2141987426399
67.4279657170923
67.5751434055491
67.6611399645708
67.6926529087039
67.6766932323651
67.6204795426354
67.5313448810399
67.4166580905149
67.2837608323603
67.1399207215532
66.9923005503919
66.8479432198199
66.7137717946188
66.5966040361053
66.5031808340698
66.4390549300393
66.4030756563771
66.3917359561457
66.4015904485407
66.429235026317
66.471286825352
66.5243677559995
66.5850914966325
66.6500539131641
66.7158269167652
66.7789558058346
66.8359601574089
66.8833383372351
66.9175756861245
66.9353256434768
66.9366315845983
66.924671288666
66.9027527240667
66.8741863953196
66.8422771450161
66.8103192320461
66.7815946723541
66.7593748148587
66.7469251250217
66.747513161682
66.76441975903
66.8009534650889
66.860468341215
66.9463796327109
67.0607738486667
67.2025366918948
67.3701341441072
67.5620590182458
67.7768187830772
68.0129241154954
68.268878104988
68.5431660565131
68.83424585835
69.1405389006905
69.4604215490983
69.7922171946927
70.1341889200776
70.4844583941808
70.8395714785984
71.1945356718188
71.5441035164434
71.8828248555531
72.2050567201352
72.5049822330422
72.7766392015748
73.0139589216097
73.210815493304
73.3610856486702
73.4587187162848
73.4978159057797
73.4729050433626
73.383848624513
73.236253172781
73.0362072580066
72.789919401203
72.5036379317065
72.1835809394629
71.8358769997171
71.4665168970535
71.0813162013532
70.6858882554833
70.2856269229264
69.8856983080219
69.4910405939153
69.1061574453357
68.7324844972116
68.3693496039766
68.0160642808494
67.6719683285286
67.3364279686741
67.0088341467307
66.6886009880582
66.3751643947503
66.0679807717784
65.7665258721977
65.4702937521278
65.1787958270778
64.8915600219415
64.6081300076568
64.3282046166337
64.0527012546763
63.7831228651655
63.5209271594802
63.2675250665815
63.0242849770296
62.792537501412
62.5735807063765
62.3686858011151
62.1791032572898
62.0060693560128
61.8508131666188
61.7145639736882
61.5985591812184
61.5040527361802
61.4323235367871
61.3842575791415
61.3596059172181
61.3579716183126
61.3790101860746
61.4224269991795
61.4879750601739
61.5754530283191
61.6847035137185
61.8156116130694
61.9681036700952
62.1421462461324
62.3377452885221
62.5549454864213
62.7938298054363
63.0545191941267
63.3366965846195
63.6375150409829
63.9531901556389
64.2797972835635
64.6132537843782
64.9493053467267
65.2835174485556
65.6112725569608
65.927773715649
66.2280551780442
66.5070007124072
66.7593701248495
66.9798344103532
67.1630197461744
67.303893798712
67.4020378553133
67.4604740491743
67.4824682978258
67.4714212477801
67.4308331441341
67.3642714838948
67.2753419159044
67.1676627215112
67.0448430916247
66.9104653111816
66.7680708737698
66.6211504785166
66.47313780874
66.3274036468272
66.1859376882057
66.0473708877927
65.9098428646369
65.7715241532423
65.630615970045
65.4853509730262
65.3339949691533
65.174849521966
65.0062554072695
64.8265968588054
64.6343065381726
64.4278711544596
64.2058376493406
63.9668198531462
63.7095064334253
63.4341218840635
63.1452872419103
62.8483037171214
62.5482932694022
62.2501916850552
61.9587498359934
61.6785423613181
61.4139830575366
61.1693463516266
60.9487943542573
60.7564091427126
60.5962301008625
60.4722963458421
60.3886944997237
60.3496123243672
60.3593882433578
60.41988575801
60.5269609081379
60.6757502122605
60.8614755401893
61.0793795049334
61.3246685194329
61.5924630322716
61.8777548169334
62.1753715041906
62.4799488209885
62.7859112307131
63.0874618534256
63.3785826709902
63.6530460782908
63.9044433907646
64.1280671033219
64.323854732545
64.4925607186811
64.6350339982499
64.7522102975027
64.8451041205757
64.9148005545478
64.9624470086283
64.9892449977691
64.9964420724766
64.9853239868626
64.9572071863936
64.9134316857211
64.8553543957479
64.7843474825692
64.7020402372107
64.6104379733682
64.5115645365365
64.4074256189748
64.3000049805976
64.1912619291031
64.0831300251677
63.9775169738513
63.8763056618113
63.7813563013422
63.6945096464401
63.6175912528748
63.5524167635073
63.500798211736
63.4645449105586
63.444391070678
63.4387910426216
63.4459285879937
63.4640027458741
63.4912211009276
63.525794092685
63.5659303430372
63.6098329913385
63.6556970364168
63.7017076923079
63.7460397696766
63.7868580976227
63.8223190008404
63.850572844842
63.8697723165812
63.8792378325678
63.8809906724345
63.8774384873216
63.8709914816807
63.864059320424
63.8590498541538
63.8583696613059
63.864426404874
63.8796330059786
63.9064136468885
63.9472116322914
64.004499159802
64.0807890792566
64.1786487558094
64.3006927736369
64.4467775083262
64.6112497579957
64.787733341589
64.9697279814205
65.1505907009673
65.3235303833764
65.4816162584759
65.6178010799283
65.7249596203343
65.7959428397418
65.8236476659981
65.8011017656962
65.721561995653
65.5786244348978
65.3668445830619
65.0889690625016
64.7539987934204
64.371099624863
63.9493029926284
63.4973947839054
63.0238306315727
62.5366764531121
62.0435722765672
61.5517169262598
61.0678709346365
60.5983750557043
60.1491819308476
59.7258987542434
59.3338391647623
58.9780830253858
58.6635214216663
58.3923392322349
58.1617517200705
57.9686342129121
57.8100774630553
57.6833532184859
57.5858841032704
57.5152171541986
57.4690004881828
57.4449626793265
57.4408945108326
57.4546328387972
57.4840463653207
57.5270231694393
57.5814598877793
57.6452524737506
57.7162884953897
57.7925418412317
57.8733416911953
57.9590044881728
58.0498744330302
58.1463023437927
58.24864629838
58.3572723306071
58.4725551828419
58.5948791191291
58.7246388030433
58.8622402450519
59.0081018247329
59.1626553938295
59.3263474668326
59.4996405065733
59.6830143131958
59.8769181710487
60.0809541628641
60.2939791146063
60.5147984439474
60.7421854402658
60.9748778933946
61.2115751740465
61.4509358032106
61.691575553224
61.9320661278953
62.170934472845
62.4066627699727
62.6376891714576
62.8624093287565
63.0791787704584
63.2863352928893
63.4830556917778
63.6697258787237
63.846844400037
64.0149329755729
64.174534972684
64.3262139194912
64.470552070907
64.6081490400188
64.7396205065843
64.8655970135244
64.9867228614471
65.1036551104092
65.217062697345
65.3276256768755
65.435987210063
65.5422870011122
65.6463533107636
65.748008367485
65.8470729168711
65.9433663463135
66.0367068202297
66.126911425938
66.2137963302382
66.2971769467201
66.376868113787
66.4526842833421
66.5244397200423
66.5919487109814
66.6550233324252
66.7132536102343
66.7658314238238
66.8119051720696
66.8506221675139
66.8811303830711
66.9025804148064
66.9141276560854
66.9149346762084
66.9041737942708
66.8810298364546
66.8447030622811
66.7944122425868
66.7293978691678
66.648925473219
66.5527310051416
66.4431487473449
66.3234294259754
66.1967910818545
66.0664097614654
65.9354146447675
65.8068862141605
65.6838573485624
65.5693172259338
65.466217928101
65.3774836626192
65.3060225470154
65.2547409407038
65.2265603591234
65.2244341117901
65.250187361532
65.3027215180179
65.3805315059674
65.4821583219657
65.6061776863207
65.7511895169734
65.915808130646
66.0986530964251
66.2983406849791
66.5134758729983
66.7426448775626
66.9844082092286
67.2372942458683
67.4997933418008
67.7698625129501
68.0430103671254
68.3138750951044
68.5769235902537
68.8264581318154
69.056632427439
69.2614777840178
69.4349398900327
69.5709264714971
69.6633657801366
69.706275488537
69.6938411110954
69.6205025579808
69.4810512315479
69.2738531522165
69.0062967667991
68.6873645974951
68.3259995209726
67.9309906220837
67.5108830167679
67.0739111956984
66.6279546331941
66.1805138634005
65.738704924584
65.3092699785885
64.8986019877911
64.5127815388371
64.157624208047
63.8387359214574
63.559506864907
63.3170931279541
63.1076820009889
62.9276555494786
62.7735556960802
62.6420543577184
62.5299280324854
62.4340363664741
62.3513043398674
62.2787077994554
62.2132621346434
62.1520139484225
62.0920356154301
62.0304226473373
61.9642938021935
61.8909666664974
61.8104319233576
61.7247487447173
61.6360121902679
61.5462950351334
61.4576464971134
61.3720923477444
61.2916363665452
61.2182631001971
61.1539418943942
61.1006321755187
61.0602899720239
61.0348756814167
61.0263631080732
61.0367498199962
61.0680688993614
61.1219765102065
61.1976959926687
61.2935853020143
61.4080214189573
61.5393909465983
61.6860803631825
61.8464671177698
62.0189115381931
62.2017495398446
62.3932861412792
62.5917898084746
62.7954876638917
63.0025616091748
63.2111454213035
63.4193228910308
63.6251126440357
63.8263562280683
64.0207777211152
64.2060506326984
64.3798037653718
64.5396283582785
64.6830871026521
64.8077250633492
64.9110825095748
64.9907096208121
65.0441829909651
65.0691238055668
65.0632175146561
65.0242347690353
64.9500533319072
64.8397333694648
64.6970727032674
64.5271686856562
64.3350957015774
64.1258677126508
63.9044089910612
63.675532856226
63.4439281022809
63.2141526978175
62.990634282766
62.7776769758045
62.5794740337288
62.4001259665471
62.2436638041892
62.1140773293623
62.0152046772654
61.9476204941318
61.9086949226266
61.8957518954873
61.9061897114272
61.9374603215338
61.9870510693266
62.052468683916
62.1312253865819
62.22082702292
62.3187631767176
62.4224992586809
62.5294705934636
62.6370785522518
62.7426887953232
62.8436390042592
62.9384721870004
63.0283456243354
63.1147687107274
63.199269288378
63.2833924021396
63.3686997944274
63.4567701622607
63.5492001984369
63.6476064403244
63.7536279529501
63.8689298780558
63.9952078877366
64.1341935903193
64.2876609475002
64.457410123727
64.6436319055814
64.8437926702792
65.0550550278138
65.2745165756487
65.4992005022473
65.7260487065346
65.9519176109122
66.1735768694788
66.3877111867401
66.5909254637687
66.7797534768325
66.9506702663248
67.1001083699571
67.2244779932743
67.3209369617918
67.389400779119
67.4304762196746
67.4448416495056
67.4332413966905
67.396479879355
67.335415564446
67.2509548284193
67.1440457879072
67.015672164406
66.8668472422121
66.6986079734104
66.5120092778494
66.3081185798848
66.0880555818454
65.8538316570208
65.6082425123363
65.3540511798918
65.0939493855236
64.8305524114394
64.566396212978
64.3039366325164
64.0455505497581
63.7935388106643
63.5501307861196
63.317490425185
63.0977236856596
62.8928872460071
62.7049984270045
62.5360424716091
62.3870413346499
62.2568496399045
62.1440668836258
62.0473409515062
61.9653610036487
61.8968510872403
61.8405644114075
61.7952782301614
61.7597892892067
61.7329098008944
61.7134639189453
61.700284690878
61.6922114714712
61.6880877851405
61.6867596288843
61.6871441844594
61.689109036659
61.6932067465786
61.7000056655368
61.7100752661631
61.7239866933871
61.7423134222347
61.7656320240081
61.7945230429835
61.8295719864161
61.8713704313819
61.9205172528387
61.9776199782504
62.0432962751959
62.1181755796047
62.2028974228486
62.2972513251453
62.3990260907744
62.5057038171987
62.6147347860842
62.7235343480429
62.8294818971533
62.9299220111801
63.0221678336881
63.1035067666928
63.171208526649
63.2225355920871
63.2547560378884
63.2651587091473
63.2510706372626
63.2098765432099
63.1398911837675
63.0429136932645
62.9216399861667
62.7787874818869
62.6170759863321
62.4392108922706
62.247868771134
62.0456853733635
61.8352460076354
61.6190782315769
61.3996467578291
61.1793504591409
60.9605213439725
60.7454253691116
60.5362649572354
60.3351827737194
60.1437629050372
59.9620363175122
59.7897548470392
59.6266821254996
59.4725929555786
59.3272727254234
59.1905168601865
59.062130307742
58.941927056086
58.8297296801366
58.7253689158298
58.628683259578
58.5395185913078
58.4577278194346
58.3831705462561
58.3157127523647
58.2552345745726
58.2017313247838
58.1552818478844
58.115971112217
58.0838886911886
58.0591290038088
58.0417915670662
58.0319812611132
58.029808608297
58.0353900671552
58.0488483425753
58.0703127134159
58.0999193789841
58.1378118258798
58.1841412168383
58.2390668033397
58.3027566852188
58.3755172004511
58.4579929178903
58.5508954772524
58.6549555107351
58.7709252775358
58.899581546176
59.0417287481464
59.1982024300884
59.3698730359605
59.5576500554844
59.7624865807464
59.9853843192545
60.2273991191998
60.4896470713064
60.7733112617212
61.0795887418287
61.4074641305662
61.7529428269809
62.1116692417727
62.4790884360256
62.8504264834716
63.2206773829775
63.5845974172147
63.9367079363698
64.2713075769534
64.5824948924241
64.8642022612717
65.1102417373267
65.3143632072116
65.4703248168507
65.5727407194241
65.6230853397406
65.6265350142375
65.5885137968367
65.5145922581851
65.4104223268934
65.2816810165344
65.1340237279331
64.9730474493366
64.8042638765582
64.6330822469781
64.4648015262156
64.3046115016074
64.1576023173673
64.0287820266018
63.9226118786884
63.8392802817892
63.7768345730473
63.7333617679134
63.7069949514627
63.6959027905284
63.6982802641597
63.7123405285984
63.7363078545181
63.7684115926638
63.8068811396102
63.8499418883931
63.8958121594034
63.9427011152686
63.9888076694971
64.0324927100973
64.0736101880602
64.1127880637146
64.1506642519043
64.1878799305998
64.2250793491644
64.2629097649183
64.3020215096237
64.3430681875146
64.386707006615
64.4335992453173
64.4844108565408
64.53981321226
64.6004839917828
64.6671082178893
64.7404225864809
64.821403610965
64.9111183182463
65.0106516708235
65.1211096083122
65.2436225533404
65.3793493627031
65.5294817580184
65.6952492767533
65.8779247921616
66.0788306595909
66.2993455569727
66.5409120993773
66.8050453216202
67.0931136174074
67.4025482695654
67.7272659913338
68.0608504066539
68.3966324486365
68.7276763175339
69.0467789195401
69.3464841937316
69.6191136983897
69.8568146474728
70.051626242719
70.1955646223934
70.280726040192
70.2994070086765
70.2457967821362
70.1227784487326
69.9363265556437
69.6926655347597
69.3981658391496
69.0592511312386
68.6823163689089
68.2736577319943
67.8394147685547
67.3855246646828
66.9176881630256
66.4413463748533
65.9616675430645
65.4835427092723
65.0115871916286
64.5493566579721
64.098220640388
63.6591648882024
63.2331183008405
62.8209583283449
62.4235164373515
62.0415836189561
61.6759159223987
61.3272400055464
60.9962586997994
60.6836565933497
60.3901056427545
60.1162708286391
59.8628158771084
59.6304090742393
59.4197292069632
59.2310711018003
59.0631682313594
58.9144245003477
58.7833098167762
58.6683508109231
58.5681225661374
58.4812412588325
58.4063576227287
58.3421511674874
58.287325094737
58.2406018654578
58.2007193820208
58.1664277560654
58.1364866400066
58.1096631054047
58.0847300557889
58.0604651648744
58.035650333487
58.0090716599397
57.9795199191259
57.9457915452058
57.9066901114942
57.8610282990276
57.8076303423202
