Value(μV)
-2.09814739227295
-14.3055505752563
-10.7768487930298
-6.86666440963745
-2.1935179233551
-5.1499981880188
-14.7824029922485
-12.0166625976563
-9.06018257141113
-4.86388731002808
-1.04907369613647
-10.3953666687012
-13.6379585266113
-21.5536975860596
-36.3360977172852
-31.8536930084229
-30.0416564941406
-32.5212860107422
-30.1370277404785
-40.5323944091797
-47.3036880493164
-32.7120246887207
-15.4499950408936
-15.1638841629028
-23.1749935150146
-23.4611034393311
-21.2675857543945
-21.0768451690674
-20.0277709960938
-27.5620288848877
-35.7638778686523
-28.0388793945313
-17.5481433868408
-14.1148099899292
-14.0194396972656
-11.4444408416748
-4.38703584671021
-3.05185079574585
-7.53425693511963
-12.2074031829834
-18.8833274841309
-23.8425846099854
-23.8425846099854
-25.8453617095947
-26.1314735412598
-15.4499950408936
-4.7685170173645
-5.43610954284668
-14.1148099899292
-28.8018417358398
-39.9601707458496
-42.5351715087891
-39.2925796508789
-38.148136138916
-42.0583190917969
-35.1916542053223
-23.7472152709961
-25.2731399536133
-28.1342506408691
-17.5481433868408
-13.4472179412842
-21.839807510376
-21.6490669250488
-18.8833274841309
-17.4527721405029
-19.1694374084473
-26.1314735412598
-27.8481388092041
-29.6601753234863
-33.4749908447266
-26.7036952972412
-13.9240694046021
-13.0657367706299
-17.738883972168
-4.48240613937378
9.63240432739258
5.1499981880188
-1.62129580974579
-7.53425693511963
-21.9351787567139
-30.3277683258057
-32.6166572570801
-44.8240585327148
-53.0259094238281
-52.7397994995117
-60.8462753295898
-81.4462738037109
-104.62126159668
-137.047180175781
-198.465682983398
-265.797149658203
-332.651733398438
-425.447082519531
-516.048889160156
-535.409057617188
-448.717437744141
-314.436004638672
-201.517532348633
-11.5398111343384
250.251770019531
329.027679443359
286.492492675781
318.918426513672
347.529510498047
424.684112548828
626.773864746094
803.685852050781
823.713623046875
666.9248046875
456.347076416016
343.333221435547
316.438781738281
296.601745605469
266.750854492188
209.43327331543
99.4712677001953
-39.197208404541
-172.143463134766
-266.178619384766
-294.885101318359
-259.884185791016
-178.914764404297
-86.3101577758789
-32.5212860107422
-33.2842483520508
-66.5684967041016
-122.83699798584
-188.261047363281
-232.131408691406
-229.079559326172
-188.451797485352
-133.995330810547
-71.2416458129883
-22.6027698516846
-8.29721927642822
-22.4120292663574
-56.2685012817383
-96.6101531982422
-128.559219360352
-134.56755065918
-111.964782714844
-78.7759017944336
-43.8703575134277
-15.5453653335571
-4.95925760269165
-9.34629344940186
-21.4583263397217
-46.8268356323242
-77.7268295288086
-87.4546051025391
-70.2879409790039
-43.3935050964355
-13.1611070632935
11.8259220123291
20.7907333374023
23.8425846099854
18.2157344818115
-3.62407302856445
-23.0796222686768
-27.2759170532227
-20.1231422424316
-11.4444408416748
-1.04907369613647
7.43888664245605
4.86388731002808
1.9074068069458
-2.09814739227295
-12.4935140609741
-10.0138854980469
-4.29166507720947
-11.2537002563477
-16.30832862854
-20.5046234130859
-24.2240657806396
-9.72777462005615
0.762962698936462
-10.3953666687012
-10.4907369613647
-4.10092449188232
-11.8259220123291
-14.9731435775757
-10.5861072540283
-10.0138854980469
-9.537034034729
-7.15277528762817
-12.302773475647
-16.9759197235107
-4.00555419921875
7.24814605712891
13.256477355957
21.4583263397217
19.9324016571045
6.6759238243103
-8.96481227874756
-12.7796258926392
-14.1148099899292
-23.2703628540039
-30.8999900817871
-28.9925842285156
-11.7305517196655
-2.95648050308228
-4.10092449188232
-2.28888821601868
-19.4555492401123
-42.0583190917969
-45.4916534423828
-43.9657249450684
-39.1018409729004
-19.6462898254395
0.0953703373670578
6.6759238243103
6.1037015914917
-2.28888821601868
-22.6981410980225
-40.6277656555176
-53.6935005187988
-56.936092376709
-39.5786895751953
-15.8314762115479
6.38981294631958
24.891658782959
31.8536930084229
29.6601753234863
22.9842510223389
12.8749961853027
1.33518481254578
0.572222054004669
10.2999963760376
22.2212886810303
38.148136138916
51.7860946655273
61.1323890686035
68.2851638793945
62.1814613342285
52.8351669311523
52.453685760498
49.6879463195801
55.5055389404297
74.1027526855469
93.9397811889648
114.635147094727
127.700881958008
132.755508422852
131.515701293945
123.027740478516
118.163848876953
113.872184753418
111.964782714844
124.172180175781
150.399032592773
175.862899780273
189.691604614258
205.904556274414
212.389739990234
192.648086547852
180.536056518555
180.536056518555
168.996246337891
165.372161865234
179.868453979492
188.737899780273
193.887893676758
197.988830566406
186.067535400391
169.759201049805
156.502731323242
142.960144042969
139.240692138672
136.188842773438
130.943481445313
132.183288574219
130.752731323242
125.507369995117
110.724967956543
89.5527496337891
74.9610900878906
55.7916488647461
37.3851737976074
25.9407329559326
11.8259220123291
10.9675893783569
23.5564746856689
22.7935104370117
11.7305517196655
2.09814739227295
-15.4499950408936
-36.2407302856445
-46.1592445373535
-58.0805358886719
-70.1925735473633
-71.0509033203125
-66.4731292724609
-69.3342361450195
-81.827751159668
-91.1740417480469
-99.948112487793
-109.771263122559
-118.259223937988
-125.984222412109
-128.654586791992
-135.998107910156
-135.711990356445
-121.978668212891
-121.69255065918
-134.376815795898
-142.006439208984
-141.434219360352
-141.720321655273
-147.824020385742
-155.453659057617
-159.363830566406
-158.314758300781
-156.216613769531
-152.401809692383
-153.83235168457
-158.1240234375
-156.121246337891
-162.892547607422
-169.377716064453
-159.173095703125
-158.505508422852
-164.418472290039
-160.699020385742
-163.750869750977
-165.372161865234
-148.586990356445
-135.044403076172
-132.56477355957
-119.499038696289
-99.2805252075195
-94.6073760986328
-100.997192382813
-105.86107635498
-109.675888061523
-111.297187805176
-109.00830078125
-107.95922088623
-105.193481445313
-100.711082458496
-94.1305236816406
-90.0296020507813
-94.8934860229492
-92.6045989990234
-88.4083023071289
-89.9342269897461
-77.345344543457
-63.5166473388672
-64.6610870361328
-63.2305335998535
-47.3990592956543
-35.7638778686523
-44.4425773620605
-48.6388740539551
-43.1073951721191
-44.7286911010742
-49.1157264709473
-45.6823921203613
-25.3685111999512
-15.0685138702393
-17.6435127258301
-8.3925895690918
-8.3925895690918
-11.1583299636841
-6.77129411697388
-19.360179901123
-20.7907333374023
-2.38425850868225
-0.286111027002335
0.0953703373670578
6.77129411697388
2.09814739227295
0.47685170173645
-0.0953703373670578
-8.58333015441895
-11.9212923049927
-9.63240432739258
-8.67870044708252
-4.7685170173645
5.05462789535522
8.77407169342041
8.58333015441895
7.53425693511963
-1.23981440067291
-3.33796191215515
1.33518481254578
-0.381481349468231
-1.04907369613647
5.7222204208374
18.8833274841309
30.995361328125
27.5620288848877
16.5944385528564
14.4962921142578
12.302773475647
6.58055353164673
2.8611102104187
6.6759238243103
14.9731435775757
24.6055469512939
36.8129501342773
44.7286911010742
44.251838684082
42.1536903381348
38.6249885559082
31.1861019134521
29.278694152832
28.7064723968506
30.8046188354492
36.6222114562988
30.6138782501221
33.6657295227051
44.6333198547363
41.1999855041504
43.9657249450684
40.913875579834
28.3249912261963
38.3388748168945
51.404613494873
53.6935005187988
57.4129447937012
63.2305335998535
68.8573837280273
62.8490524291992
53.7888717651367
49.1157264709473
46.5407257080078
50.4509086608887
51.404613494873
52.0722045898438
56.7453536987305
54.9333152770996
56.0777587890625
62.1814613342285
59.4157218933105
53.9796104431152
50.7370223999023
51.9768333435059
53.5027618408203
47.7805404663086
49.8786888122559
57.0314636230469
59.4157218933105
59.1296119689941
56.5546112060547
55.6009063720703
48.3527641296387
45.0148010253906
55.0286865234375
55.5055389404297
47.2083168029785
45.8731346130371
44.1564674377441
40.4370231628418
41.8675804138184
36.7175827026367
20.7907333374023
12.3981437683105
15.7361059188843
16.30832862854
12.7796258926392
19.6462898254395
19.8370304107666
11.3490705490112
19.7416610717773
20.5999927520752
12.1120328903198
17.9296245574951
17.738883972168
16.4990692138672
25.177770614624
21.5536975860596
15.9268465042114
20.5999927520752
18.8833274841309
14.687032699585
16.4036979675293
16.022216796875
10.4907369613647
17.6435127258301
31.7583236694336
21.4583263397217
6.29444265365601
12.0166625976563
15.1638841629028
10.204626083374
12.9703664779663
12.4935140609741
6.48518323898315
10.204626083374
21.1722145080566
20.6953639984131
13.3518476486206
13.3518476486206
4.10092449188232
-3.8148136138916
0.9537034034729
-0.762962698936462
4.67314672470093
11.8259220123291
9.72777462005615
20.409252166748
29.5648059844971
27.0851764678955
29.1833248138428
31.2814712524414
32.3305435180664
30.5185089111328
22.8888816833496
16.9759197235107
13.3518476486206
8.29721927642822
5.62685012817383
7.6296272277832
3.62407302856445
-1.33518481254578
-4.86388731002808
-13.1611070632935
-12.6842555999756
-6.48518323898315
-6.77129411697388
-5.7222204208374
-3.5287024974823
-9.34629344940186
-11.5398111343384
-5.05462789535522
-3.05185079574585
-2.8611102104187
-1.43055510520935
-7.0574049949646
-11.635181427002
-10.6814785003662
-7.6296272277832
-6.86666440963745
-13.7333288192749
-17.4527721405029
-11.1583299636841
-6.38981294631958
-2.38425850868225
-1.43055510520935
-12.1120328903198
-20.2185115814209
-19.5509204864502
-15.1638841629028
-13.4472179412842
-11.7305517196655
-1.23981440067291
3.24259161949158
0
6.58055353164673
10.4907369613647
1.43055510520935
-5.7222204208374
-13.1611070632935
-22.4120292663574
-22.7935104370117
-8.96481227874756
3.33796191215515
0.9537034034729
4.1962947845459
15.9268465042114
14.5916624069214
3.8148136138916
-0.572222054004669
-2.5749990940094
-5.7222204208374
-4.29166507720947
-3.62407302856445
-1.43055510520935
4.57777643203735
2.28888821601868
-10.0138854980469
-31.8536930084229
-49.4972076416016
-51.0231323242188
-59.1296119689941
-83.3536758422852
-105.670333862305
-146.965698242188
-219.733261108398
-283.345275878906
-348.864715576172
-458.731323242188
-563.543334960938
-584.047973632813
-508.323913574219
-374.233215332031
-237.18603515625
-48.9249839782715
180.440689086914
245.292510986328
219.542526245117
282.200836181641
337.992492675781
426.400787353516
638.695190429688
845.076599121094
879.314514160156
698.778503417969
481.048004150391
388.538757324219
369.56005859375
346.1943359375
309.572113037109
254.543441772461
136.66569519043
-29.9462871551514
-168.614761352539
-245.006408691406
-258.644348144531
-217.730484008789
-140.385147094727
-59.2249794006348
-10.9675893783569
-8.0111083984375
-50.4509086608887
-117.114776611328
-181.203643798828
-229.556411743164
-236.804550170898
-197.511978149414
-143.436996459961
-82.9721984863281
-29.5648059844971
-16.7851791381836
-39.6740608215332
-81.4462738037109
-129.894409179688
-157.456436157227
-158.028656005859
-139.908294677734
-100.997192382813
-56.7453536987305
-26.7036952972412
-9.34629344940186
-11.1583299636841
-37.6712837219238
-65.9009017944336
-83.3536758422852
-97.0870056152344
-96.9916381835938
-76.4870147705078
-48.4481315612793
-22.9842510223389
-14.687032699585
-18.5972156524658
-21.0768451690674
-36.3360977172852
-52.5490570068359
-57.6036834716797
-59.4157218933105
-50.355541229248
-38.7203598022461
-23.6518440246582
-5.05462789535522
-4.48240613937378
-15.9268465042114
-27.7527694702148
-40.0555419921875
-44.1564674377441
-36.0499877929688
-23.2703628540039
-15.1638841629028
-10.2999963760376
-3.8148136138916
-3.71944332122803
-8.86944198608398
-5.7222204208374
0.286111027002335
3.33796191215515
2.28888821601868
-7.15277528762817
-19.1694374084473
-27.4666576385498
-30.0416564941406
-36.6222114562988
-41.0092468261719
-22.4120292663574
-8.67870044708252
-7.6296272277832
5.1499981880188
8.86944198608398
-9.82314491271973
-22.6027698516846
-29.0879535675049
-43.8703575134277
-43.7749862670898
-33.5703582763672
-29.1833248138428
-14.3055505752563
-1.52592539787292
2.09814739227295
1.14444410800934
-11.635181427002
-21.4583263397217
-30.1370277404785
-42.3444290161133
-38.9110984802246
-20.5999927520752
-4.00555419921875
8.3925895690918
18.4064750671387
16.8805503845215
-2.47962880134583
-24.1286964416504
-32.4259147644043
-39.3879508972168
-46.5407257080078
-35.9546165466309
-14.2101802825928
8.20184898376465
22.125919342041
14.8777732849121
-2.76573991775513
-20.409252166748
-28.7064723968506
-24.0333251953125
-16.30832862854
-0.286111027002335
25.8453617095947
49.8786888122559
61.4184989929199
63.6120147705078
67.903678894043
67.6175689697266
56.7453536987305
55.1240577697754
66.2823867797852
79.6342315673828
103.190704345703
130.27587890625
145.344390869141
147.919403076172
142.483291625977
132.183288574219
121.787925720215
118.259223937988
123.504592895508
139.717544555664
166.61198425293
193.315673828125
211.340667724609
221.068450927734
220.210113525391
206.286041259766
193.315673828125
186.639755249023
182.729568481445
187.784194946289
200.086975097656
210.577713012695
216.586044311523
216.872146606445
201.803634643555
177.961059570313
163.941619873047
157.647171020508
154.118469238281
152.592544555664
149.731430053711
150.971252441406
155.644393920898
150.399032592773
140.671249389648
127.986999511719
98.4221878051758
77.0592346191406
74.4842376708984
65.137939453125
55.6962776184082
53.5981292724609
47.8759117126465
37.2898025512695
23.0796222686768
9.63240432739258
-3.24259161949158
-21.839807510376
-39.4833221435547
-47.9712791442871
-50.355541229248
-52.6444282531738
-58.652759552002
-66.4731292724609
-72.3860855102539
-81.2555313110352
-96.6101531982422
-112.060150146484
-123.027740478516
-129.799026489258
-134.853652954102
-135.998107910156
-133.327728271484
-131.897186279297
-135.521255493164
-140.194396972656
-144.199951171875
-151.066619873047
-152.401809692383
-148.777725219727
-152.020324707031
-156.121246337891
-154.213836669922
-150.494400024414
-150.494400024414
-151.829574584961
-156.407363891602
-163.369384765625
-161.461990356445
-159.840682983398
-159.077728271484
-157.551803588867
-162.224945068359
-161.271240234375
-155.167541503906
-152.497177124023
-145.535140991211
-132.660140991211
-122.550888061523
-121.787925720215
-123.695327758789
-125.984222412109
-128.36848449707
-128.273101806641
-131.611068725586
-128.654586791992
-123.313850402832
-127.128662109375
-118.926811218262
-108.245338439941
-113.967559814453
-114.635147094727
-113.681442260742
-125.030517578125
-123.599960327148
-110.629592895508
-105.574966430664
-95.4657135009766
-87.3592300415039
-85.1657104492188
-77.6314544677734
-76.296272277832
-78.4897918701172
-73.4351654052734
-69.8110885620117
-66.5684967041016
-62.4675712585449
-61.2277565002441
-57.4129447937012
-47.9712791442871
-39.2925796508789
-34.3333206176758
-28.8972129821777
-30.4231376647949
-39.6740608215332
-43.679615020752
-45.300910949707
-42.3444290161133
-30.995361328125
-23.6518440246582
-16.9759197235107
-9.06018257141113
-11.5398111343384
-26.5129547119141
-38.6249885559082
-37.2898025512695
-31.1861019134521
-24.7962875366211
-16.4036979675293
-8.58333015441895
-0.9537034034729
4.29166507720947
9.537034034729
12.4935140609741
3.91018390655518
-6.86666440963745
-6.1037015914917
4.57777643203735
19.7416610717773
31.2814712524414
32.9027671813965
31.9490642547607
33.4749908447266
31.7583236694336
25.9407329559326
24.0333251953125
21.839807510376
16.5944385528564
24.7962875366211
48.4481315612793
63.039794921875
58.9388694763184
55.6009063720703
57.0314636230469
50.5462799072266
38.2435073852539
26.8944358825684
23.2703628540039
33.0935096740723
46.5407257080078
55.6962776184082
66.2823867797852
66.854606628418
53.9796104431152
46.3499870300293
42.9166526794434
39.197208404541
37.6712837219238
33.0935096740723
31.2814712524414
37.7666549682617
44.7286911010742
51.5953521728516
60.7509078979492
61.7046089172363
58.7481307983398
64.5657196044922
70.9555358886719
72.9583129882813
73.9120101928711
71.8138656616211
70.5740509033203
69.3342361450195
67.4268264770508
70.8601608276367
70.8601608276367
67.0453491210938
65.9962768554688
63.8981285095215
60.8462753295898
63.2305335998535
66.7592391967773
65.9009017944336
64.6610870361328
62.3722038269043
61.8953514099121
59.7972030639648
52.5490570068359
51.6907234191895
54.9333152770996
54.4564628601074
56.0777587890625
61.2277565002441
64.5657196044922
67.5222015380859
63.9934997558594
54.0749816894531
49.4972076416016
44.4425773620605
41.1046180725098
41.1999855041504
40.8185043334961
46.2546157836914
47.7805404663086
44.7286911010742
45.4916534423828
45.5870208740234
50.5462799072266
52.7397994995117
46.4453544616699
46.7314682006836
46.2546157836914
36.2407302856445
32.04443359375
32.9027671813965
26.9898052215576
25.8453617095947
31.5675830841064
35.1916542053223
41.7722091674805
53.121280670166
55.9823913574219
45.1101722717285
37.7666549682617
43.2027626037598
41.1999855041504
31.0907306671143
27.5620288848877
25.177770614624
23.1749935150146
19.1694374084473
11.635181427002
16.2129573822021
23.8425846099854
22.6981410980225
19.6462898254395
10.6814785003662
2.1935179233551
5.05462789535522
4.7685170173645
0.286111027002335
1.62129580974579
6.29444265365601
10.5861072540283
15.0685138702393
14.5916624069214
8.96481227874756
7.24814605712891
5.34073925018311
5.24536848068237
12.3981437683105
14.4009208679199
13.8286991119385
12.302773475647
4.57777643203735
-0.572222054004669
-0.190740674734116
4.38703584671021
9.34629344940186
3.8148136138916
-6.00833129882813
-8.3925895690918
-8.20184898376465
-6.29444265365601
-6.1037015914917
-13.256477355957
-15.5453653335571
-9.82314491271973
-3.71944332122803
2.1935179233551
0.381481349468231
-11.2537002563477
-25.6546211242676
-33.5703582763672
-33.9518394470215
-39.864803314209
-43.2027626037598
-35.2870254516602
-29.4694347381592
-24.2240657806396
-19.9324016571045
-23.7472152709961
-32.5212860107422
-42.8212814331055
-43.2027626037598
-38.6249885559082
-38.9110984802246
-35.4777679443359
-27.943510055542
-23.9379558563232
-20.9814739227295
-20.2185115814209
-32.2351760864258
-41.7722091674805
-34.0472106933594
-30.8046188354492
-36.7175827026367
-37.8620262145996
-34.810173034668
-23.9379558563232
-12.302773475647
-17.8342533111572
-29.8509159088135
-36.3360977172852
-40.1509132385254
-48.066650390625
-74.7703475952148
-100.52033996582
-114.539779663086
-163.846237182617
-233.371215820313
-276.478607177734
-339.995269775391
-444.807250976563
-521.3896484375
-518.051696777344
-430.787811279297
-295.648040771484
-159.363830566406
51.8814659118652
278.576751708984
300.130462646484
257.690643310547
305.280456542969
344.573028564453
459.112823486328
664.731262207031
795.865478515625
766.777526855469
571.649841308594
374.137847900391
304.326751708984
282.868438720703
259.216583251953
234.706405639648
166.898101806641
41.962947845459
-94.702751159668
-210.005493164063
-278.958251953125
-283.440643310547
-244.243438720703
-177.579574584961
-96.7055282592773
-48.6388740539551
-58.5573883056641
-102.904594421387
-162.034210205078
-218.398071289063
-246.532333374023
-238.616592407227
-200.086975097656
-143.341613769531
-85.5471954345703
-41.5814666748047
-23.3657341003418
-38.3388748168945
-75.4379425048828
-117.59162902832
-148.968475341797
-153.260131835938
-130.27587890625
-87.2638626098633
-39.9601707458496
-6.58055353164673
2.47962880134583
-16.2129573822021
-45.3962821960449
-69.7157211303711
-83.925895690918
-85.8333053588867
-75.7240524291992
-51.1185035705566
-27.3712882995605
-14.0194396972656
-3.5287024974823
-6.1037015914917
-23.8425846099854
-36.6222114562988
-37.3851737976074
-33.0935096740723
-29.4694347381592
-26.1314735412598
-18.4064750671387
-10.8722190856934
-11.1583299636841
-15.4499950408936
-16.7851791381836
-15.9268465042114
-16.4036979675293
-14.687032699585
-11.3490705490112
-7.43888664245605
-6.1037015914917
-6.58055353164673
-8.0111083984375
-11.2537002563477
-7.91573810577393
-7.53425693511963
-8.48795986175537
1.81203651428223
7.24814605712891
4.48240613937378
8.29721927642822
8.20184898376465
-1.62129580974579
-5.91296100616455
-1.71666610240936
7.53425693511963
24.3194370269775
33.1888771057129
30.6138782501221
28.7064723968506
23.3657341003418
11.8259220123291
-1.33518481254578
-7.15277528762817
-0.286111027002335
12.7796258926392
25.8453617095947
39.7694320678711
49.3064651489258
44.3472061157227
33.6657295227051
22.4120292663574
5.91296100616455
-6.6759238243103
-9.06018257141113
0.381481349468231
14.4009208679199
22.2212886810303
24.6055469512939
24.9870281219482
18.4064750671387
4.10092449188232
-9.72777462005615
-18.9786968231201
-21.5536975860596
-13.5425882339478
2.28888821601868
15.8314762115479
27.4666576385498
36.6222114562988
31.3768424987793
14.4962921142578
-3.8148136138916
-17.8342533111572
-18.6925868988037
-5.43610954284668
11.635181427002
31.2814712524414
48.1620216369629
49.8786888122559
48.9249839782715
50.5462799072266
41.7722091674805
34.9055442810059
41.1046180725098
51.6907234191895
63.6120147705078
81.2555313110352
103.381446838379
115.970336914063
113.586074829102
108.912925720215
101.092559814453
93.9397811889648
101.855522155762
116.161071777344
127.986999511719
146.107360839844
169.186981201172
183.397171020508
191.122161865234
193.697158813477
185.304565429688
170.617538452148
153.83235168457
148.205505371094
161.366607666016
173.574020385742
186.162902832031
202.566604614258
196.844375610352
180.154571533203
170.331420898438
148.777725219727
128.749954223633
124.93514251709
117.019409179688
107.95922088623
108.149963378906
105.384223937988
92.6045989990234
73.2444229125977
56.2685012817383
42.5351715087891
26.8944358825684
18.787956237793
17.1666603088379
8.96481227874756
6.86666440963745
11.5398111343384
0.762962698936462
-19.8370304107666
-38.9110984802246
-53.9796104431152
-62.4675712585449
-75.4379425048828
-90.3157119750977
-94.6073760986328
-92.8907089233398
-90.9833068847656
-94.416633605957
-100.043487548828
-100.52033996582
-98.899040222168
-100.901817321777
-110.915702819824
-122.455513000488
-123.504592895508
-123.504592895508
-129.131439208984
-131.611068725586
-133.136993408203
-137.524032592773
-138.382369995117
-136.66569519043
-136.856430053711
-138.286987304688
-142.292541503906
-142.578659057617
-138.85920715332
-137.333282470703
-132.46940612793
-127.986999511719
-129.512924194336
-131.801803588867
-126.747184753418
-118.354591369629
-117.400886535645
-118.259223937988
-118.354591369629
-123.886070251465
-126.270332336426
-122.455513000488
-119.975891113281
-113.776817321777
-101.092559814453
-95.2749710083008
-96.9916381835938
-98.3268203735352
-97.3731155395508
-94.8934860229492
-97.0870056152344
-96.800895690918
-91.7462692260742
-87.5499725341797
-77.5360870361328
-68.8573837280273
-67.9990539550781
-69.2388687133789
-68.6666412353516
-64.9472045898438
-64.5657196044922
-65.9009017944336
-67.4268264770508
-67.2360916137695
-60.0833129882813
-56.2685012817383
-51.4999847412109
-45.300910949707
-48.5435028076172
-51.4999847412109
-46.2546157836914
-44.3472061157227
-43.2981338500977
-34.3333206176758
-26.1314735412598
-18.2157344818115
-18.5018463134766
-28.7064723968506
-29.1833248138428
-25.6546211242676
-24.891658782959
-20.1231422424316
-16.4036979675293
-14.7824029922485
-8.0111083984375
-0.190740674734116
0.858333051204681
-1.23981440067291
-1.71666610240936
-6.48518323898315
-15.0685138702393
-15.35462474823
-10.7768487930298
-8.20184898376465
-3.71944332122803
-2.67036962509155
-6.58055353164673
-4.48240613937378
-2.76573991775513
-10.4907369613647
-15.4499950408936
-12.8749961853027
-8.86944198608398
-5.91296100616455
-2.67036962509155
6.1037015914917
11.9212923049927
11.9212923049927
15.6407356262207
10.7768487930298
0.762962698936462
2.47962880134583
5.53147983551025
4.7685170173645
16.1175880432129
35.0009155273438
37.3851737976074
29.8509159088135
23.1749935150146
15.6407356262207
15.1638841629028
10.204626083374
2.00277709960938
6.1037015914917
6.77129411697388
6.29444265365601
21.0768451690674
31.9490642547607
28.7064723968506
24.891658782959
23.0796222686768
22.5074005126953
21.4583263397217
15.6407356262207
16.7851791381836
29.0879535675049
38.148136138916
42.4398002624512
48.5435028076172
49.783317565918
43.4888763427734
38.4342460632324
37.099063873291
34.5240631103516
32.5212860107422
39.0064697265625
46.8268356323242
51.1185035705566
47.1129493713379
35.7638778686523
34.7148017883301
41.5814666748047
45.1101722717285
44.0610961914063
40.2462844848633
42.5351715087891
45.1101722717285
50.0694274902344
62.1814613342285
62.9444236755371
51.404613494873
44.1564674377441
42.4398002624512
43.1073951721191
46.2546157836914
52.8351669311523
60.0833129882813
66.4731292724609
69.7157211303711
68.7620162963867
66.854606628418
60.4647941589355
55.9823913574219
52.8351669311523
41.5814666748047
34.810173034668
30.1370277404785
26.7990646362305
32.7120246887207
30.1370277404785
22.2212886810303
20.1231422424316
18.4064750671387
20.9814739227295
21.3629570007324
12.7796258926392
7.72499752044678
10.2999963760376
15.0685138702393
15.2592544555664
11.9212923049927
10.8722190856934
13.1611070632935
19.4555492401123
26.9898052215576
36.3360977172852
42.3444290161133
42.8212814331055
50.2601699829102
53.2166481018066
51.404613494873
56.1731300354004
51.5953521728516
39.197208404541
35.0962867736816
32.5212860107422
29.6601753234863
27.943510055542
22.6027698516846
21.1722145080566
24.6055469512939
27.2759170532227
28.8018417358398
31.9490642547607
39.4833221435547
37.7666549682617
28.0388793945313
25.7499923706055
23.9379558563232
21.2675857543945
23.8425846099854
23.0796222686768
17.8342533111572
20.409252166748
26.1314735412598
24.3194370269775
15.8314762115479
6.58055353164673
3.62407302856445
-1.62129580974579
-6.00833129882813
-0.47685170173645
0.190740674734116
-0.572222054004669
2.76573991775513
-0.47685170173645
-2.00277709960938
-2.76573991775513
-9.06018257141113
-5.62685012817383
2.67036962509155
1.04907369613647
-2.5749990940094
-2.28888821601868
0.286111027002335
2.38425850868225
-1.9074068069458
-11.1583299636841
-30.995361328125
-51.3092422485352
-55.5055389404297
-62.8490524291992
-79.4434967041016
-92.2231216430664
-121.406440734863
-181.489761352539
-234.992523193359
-278.004547119141
-366.698944091797
-465.502624511719
-484.576690673828
-427.735961914063
-324.449890136719
-209.910110473633
-24.7009181976318
241.954559326172
337.897125244141
294.98046875
306.329528808594
317.201751708984
417.340606689453
628.872009277344
771.641418457031
775.742370605469
615.234069824219
401.6044921875
290.402679443359
247.77214050293
220.305480957031
199.705490112305
149.922180175781
56.1731300354004
-65.137939453125
-188.165679931641
-271.423980712891
-294.789733886719
-266.369354248047
-208.574935913086
-135.902740478516
-69.0481262207031
-45.7777633666992
-69.9064559936523
-125.125885009766
-187.211975097656
-223.834182739258
-227.935119628906
-200.373077392578
-148.873107910156
-94.2258987426758
-47.2083168029785
-28.5157318115234
-45.6823921203613
-77.4407196044922
-118.831443786621
-152.783279418945
-153.546249389648
-131.515701293945
-101.092559814453
-65.3286819458008
-28.4203605651855
-10.9675893783569
-16.8805503845215
-31.5675830841064
-54.0749816894531
-73.1490478515625
-79.3481216430664
-72.9583129882813
-47.8759117126465
-21.3629570007324
-7.43888664245605
3.43333220481873
2.1935179233551
-12.9703664779663
-22.2212886810303
-27.1805477142334
-29.3740653991699
-23.4611034393311
-13.256477355957
-0.47685170173645
8.86944198608398
8.0111083984375
3.62407302856445
-2.00277709960938
-8.77407169342041
-10.4907369613647
-10.2999963760376
-6.38981294631958
2.5749990940094
8.86944198608398
12.4935140609741
13.5425882339478
10.3953666687012
4.00555419921875
-2.09814739227295
-2.00277709960938
8.0111083984375
21.839807510376
22.5074005126953
11.2537002563477
0.286111027002335
-13.5425882339478
-19.360179901123
-18.3111057281494
-17.1666603088379
-6.77129411697388
3.71944332122803
7.6296272277832
5.7222204208374
-2.28888821601868
-11.9212923049927
-25.0823993682861
-35.6685066223145
-34.3333206176758
-31.1861019134521
-32.5212860107422
-25.5592517852783
-12.588885307312
-13.6379585266113
-20.3138828277588
-27.0851764678955
-47.4944305419922
-60.5601654052734
-57.8897972106934
-58.0805358886719
-46.4453544616699
-23.6518440246582
-11.0629596710205
-7.82036781311035
-15.1638841629028
-29.6601753234863
-40.7231369018555
-40.8185043334961
-33.5703582763672
-30.1370277404785
-23.6518440246582
-9.34629344940186
4.29166507720947
15.0685138702393
19.6462898254395
14.4962921142578
6.38981294631958
3.62407302856445
2.28888821601868
2.09814739227295
13.5425882339478
39.864803314209
64.3749771118164
76.2009048461914
85.8333053588867
92.6999740600586
83.0675659179688
64.4703521728516
61.6092376708984
71.8138656616211
81.9231185913086
98.899040222168
119.499038696289
137.047180175781
142.674026489258
132.660140991211
123.599960327148
121.406440734863
116.924034118652
120.071258544922
137.714767456055
156.884216308594
170.903656005859
178.247161865234
184.732345581055
184.064758300781
166.421249389648
154.404586791992
155.262908935547
153.355499267578
152.497177124023
154.499954223633
156.502731323242
159.936065673828
164.132354736328
163.464767456055
153.927734375
148.586990356445
142.101806640625
121.787925720215
114.921257019043
122.455513000488
119.212921142578
113.681442260742
105.86107635498
93.367561340332
81.9231185913086
62.3722038269043
46.0638732910156
38.4342460632324
27.657398223877
24.891658782959
30.4231376647949
32.1398048400879
31.2814712524414
20.7907333374023
2.38425850868225
-15.35462474823
-34.4286918640137
-47.8759117126465
-53.4073905944824
-63.9934997558594
-70.7647933959961
-69.9064559936523
-82.2092361450195
-96.13330078125
-98.6129302978516
-107.005523681641
-117.782371520996
-121.501815795898
-123.790702819824
-130.085144042969
-132.46940612793
-127.510147094727
-130.561996459961
-134.090698242188
-131.897186279297
-143.913848876953
-155.83512878418
-158.696243286133
-162.987915039063
-159.649948120117
-151.73420715332
-149.254577636719
-151.829574584961
-154.690689086914
-147.919403076172
-138.382369995117
-136.66569519043
-142.101806640625
-145.630508422852
-144.486068725586
-146.488845825195
-146.393478393555
-137.237915039063
-129.417556762695
-130.180511474609
-131.992553710938
-127.891624450684
-121.215698242188
-116.065704345703
-113.395332336426
-110.534225463867
-109.485153198242
-111.869407653809
-114.921257019043
-118.73607635498
-116.256446838379
-111.1064453125
-108.149963378906
-97.9453353881836
-86.0240478515625
-85.1657104492188
-86.3101577758789
-88.0268249511719
-91.0786743164063
-87.2638626098633
-76.8684921264648
-65.2333145141602
-62.5629425048828
-63.9934997558594
-59.8925743103027
-56.7453536987305
-55.4101676940918
-54.170352935791
-55.887020111084
-66.2823867797852
-76.3916397094727
-70.0971984863281
-62.6583137512207
-59.9879455566406
-48.6388740539551
-44.5379486083984
-47.9712791442871
-44.9194297790527
-41.2953567504883
-38.6249885559082
-40.0555419921875
-43.5842437744141
-37.6712837219238
-22.7935104370117
-10.5861072540283
-6.48518323898315
-0.9537034034729
2.5749990940094
1.43055510520935
4.67314672470093
4.00555419921875
-0.667592406272888
5.1499981880188
14.5916624069214
11.635181427002
0.47685170173645
-2.38425850868225
3.5287024974823
0.0953703373670578
-7.91573810577393
-6.29444265365601
4.38703584671021
18.787956237793
27.4666576385498
34.1425819396973
37.2898025512695
31.8536930084229
29.9462871551514
26.0361022949219
12.6842555999756
13.8286991119385
28.7064723968506
33.9518394470215
37.3851737976074
41.7722091674805
44.0610961914063
50.4509086608887
49.4018363952637
44.8240585327148
45.6823921203613
48.2573928833008
53.121280670166
56.7453536987305
59.7972030639648
65.137939453125
69.1434936523438
70.8601608276367
67.6175689697266
61.323127746582
57.1268348693848
55.0286865234375
56.1731300354004
57.5083160400391
60.1786842346191
65.9962768554688
63.039794921875
60.3694267272949
70.0018310546875
71.6231231689453
64.1842422485352
57.6036834716797
45.4916534423828
38.7203598022461
43.3935050964355
46.4453544616699
49.4972076416016
54.170352935791
53.4073905944824
51.4999847412109
51.1185035705566
45.0148010253906
34.2379531860352
34.4286918640137
48.5435028076172
55.6962776184082
53.121280670166
61.4184989929199
68.4759063720703
60.6555366516113
53.7888717651367
41.3907279968262
30.3277683258057
30.1370277404785
28.5157318115234
35.382396697998
43.2027626037598
37.8620262145996
31.1861019134521
27.8481388092041
30.4231376647949
32.3305435180664
29.9462871551514
27.657398223877
23.5564746856689
24.3194370269775
31.6629524230957
35.2870254516602
31.8536930084229
20.409252166748
13.9240694046021
20.1231422424316
24.3194370269775
28.4203605651855
37.099063873291
38.4342460632324
35.2870254516602
35.0009155273438
32.4259147644043
27.1805477142334
20.5999927520752
13.1611070632935
12.2074031829834
12.6842555999756
12.6842555999756
19.7416610717773
25.0823993682861
26.226842880249
22.4120292663574
18.8833274841309
21.839807510376
17.738883972168
13.9240694046021
14.0194396972656
9.34629344940186
1.9074068069458
-4.95925760269165
-4.67314672470093
-7.43888664245605
-3.5287024974823
16.5944385528564
24.6055469512939
22.4120292663574
19.2648086547852
10.0138854980469
8.20184898376465
13.5425882339478
14.4962921142578
14.4009208679199
11.7305517196655
10.1092557907104
19.4555492401123
18.8833274841309
4.86388731002808
8.20184898376465
14.7824029922485
9.44166374206543
13.6379585266113
19.5509204864502
13.8286991119385
13.3518476486206
18.2157344818115
16.4990692138672
17.0712909698486
25.2731399536133
26.3222141265869
19.9324016571045
24.7009181976318
30.3277683258057
21.5536975860596
18.1203651428223
22.4120292663574
16.4990692138672
7.53425693511963
8.67870044708252
13.9240694046021
12.9703664779663
10.7768487930298
6.77129411697388
-0.9537034034729
-5.7222204208374
-7.15277528762817
-8.3925895690918
-4.57777643203735
2.67036962509155
3.43333220481873
1.04907369613647
-0.9537034034729
-10.5861072540283
-14.5916624069214
-12.1120328903198
-16.7851791381836
-16.30832862854
-12.6842555999756
-8.20184898376465
-2.1935179233551
-3.24259161949158
-5.62685012817383
-11.1583299636841
-21.1722145080566
-32.4259147644043
-40.0555419921875
-41.0092468261719
-54.7425765991211
-77.4407196044922
-93.2721939086914
-135.425888061523
-212.866592407227
-273.140655517578
-326.548034667969
-431.360046386719
-535.790588378906
-545.804443359375
-468.840576171875
-352.870269775391
-231.749923706055
-41.7722091674805
201.899002075195
267.227691650391
226.027709960938
267.513793945313
296.792510986328
390.064697265625
620.097961425781
801.587707519531
817.419189453125
652.809997558594
435.270233154297
330.744323730469
305.47119140625
277.813812255859
244.815658569336
191.503646850586
84.1166381835938
-59.3203506469727
-185.018463134766
-263.985107421875
-284.108245849609
-244.720291137695
-174.336975097656
-104.239784240723
-57.1268348693848
-51.0231323242188
-84.6888580322266
-138.477737426758
-196.55827331543
-243.480484008789
-252.826766967773
-207.621231079102
-138.95458984375
-84.4027481079102
-38.6249885559082
-14.1148099899292
-33.9518394470215
-77.7268295288086
-120.166625976563
-151.73420715332
-156.216613769531
-134.56755065918
-103.667556762695
-62.5629425048828
-22.3166599273682
-8.96481227874756
-17.5481433868408
-37.6712837219238
-70.7647933959961
-98.2314529418945
-108.245338439941
-106.242561340332
-85.2610855102539
-52.453685760498
-29.278694152832
-16.4036979675293
-15.4499950408936
-30.4231376647949
-50.5462799072266
-62.3722038269043
-64.8518295288086
-58.1759071350098
-43.679615020752
-31.9490642547607
-30.3277683258057
-32.9027671813965
-34.6194343566895
-38.2435073852539
-42.0583190917969
-41.4860992431641
-39.197208404541
-34.1425819396973
-29.0879535675049
-30.8046188354492
-32.7120246887207
-29.4694347381592
-24.4148063659668
-17.0712909698486
-11.0629596710205
-8.96481227874756
-1.04907369613647
8.29721927642822
10.4907369613647
6.29444265365601
-6.1037015914917
-13.6379585266113
-16.4036979675293
-24.9870281219482
-21.4583263397217
-4.95925760269165
6.96203470230103
16.4990692138672
23.3657341003418
20.5046234130859
10.1092557907104
-3.33796191215515
-8.3925895690918
-5.24536848068237
-3.43333220481873
9.06018257141113
29.4694347381592
37.7666549682617
34.7148017883301
24.9870281219482
10.8722190856934
-0.858333051204681
-8.77407169342041
-7.6296272277832
2.95648050308228
11.3490705490112
17.2620315551758
22.9842510223389
23.4611034393311
14.1148099899292
-2.28888821601868
-17.738883972168
-27.0851764678955
-30.3277683258057
-23.4611034393311
-2.00277709960938
20.0277709960938
32.04443359375
36.3360977172852
28.7064723968506
16.6898097991943
2.8611102104187
-10.9675893783569
-8.77407169342041
-1.9074068069458
6.58055353164673
29.1833248138428
46.3499870300293
51.7860946655273
56.2685012817383
55.6009063720703
39.9601707458496
25.2731399536133
32.9981384277344
47.9712791442871
64.5657196044922
86.1194152832031
109.199035644531
133.995330810547
144.581436157227
142.769393920898
140.099029541016
131.992553710938
121.120330810547
116.542556762695
125.602737426758
144.962921142578
162.129577636719
177.48420715332
183.77864074707
177.674942016602
173.955505371094
166.898101806641
155.644393920898
158.1240234375
167.851791381836
173.192535400391
176.625869750977
177.865676879883
179.296234130859
176.435134887695
160.889770507813
140.194396972656
124.362922668457
117.877738952637
117.210144042969
122.360145568848
125.316627502441
116.256446838379
106.242561340332
92.7953414916992
76.6777496337891
65.6147918701172
50.355541229248
39.197208404541
34.0472106933594
29.6601753234863
32.8073959350586
34.7148017883301
29.1833248138428
19.074068069458
6.1037015914917
-7.0574049949646
-22.125919342041
-31.2814712524414
-30.70924949646
-34.3333206176758
-40.8185043334961
-44.0610961914063
-53.7888717651367
-63.2305335998535
-64.2796096801758
-68.1897964477539
-77.2499771118164
-85.2610855102539
-92.8907089233398
-100.234230041504
-102.904594421387
-104.144409179688
-106.814781188965
-105.574966430664
-106.719413757324
-117.686996459961
-127.700881958008
-131.229583740234
-131.134216308594
-130.848098754883
-131.992553710938
-129.322174072266
-127.128662109375
-130.37126159668
-129.417556762695
-122.93236541748
-122.074035644531
-126.174957275391
-130.657363891602
-134.186065673828
-131.515701293945
-131.324951171875
-137.333282470703
-137.619400024414
-129.036071777344
-120.73885345459
-117.400886535645
-113.299964904785
-106.433296203613
-100.901817321777
-100.997192382813
-103.190704345703
-106.719413757324
-110.629592895508
-104.049041748047
-93.4629364013672
-90.6971969604492
-87.0731201171875
-76.3916397094727
-72.6721954345703
-78.6805267333984
-82.5907135009766
-84.2120132446289
-81.0647888183594
-70.6694183349609
-60.274055480957
-55.887020111084
-54.5518341064453
-50.5462799072266
-46.5407257080078
-44.1564674377441
-42.9166526794434
-43.2981338500977
-44.6333198547363
-48.4481315612793
-49.9740562438965
-46.7314682006836
-48.1620216369629
-46.8268356323242
-37.099063873291
-30.4231376647949
-29.9462871551514
-33.1888771057129
-36.6222114562988
-39.197208404541
-42.8212814331055
-42.5351715087891
-36.7175827026367
-26.9898052215576
-15.2592544555664
-10.204626083374
-15.5453653335571
-15.1638841629028
-7.43888664245605
-14.4009208679199
-26.3222141265869
-20.1231422424316
-6.00833129882813
8.20184898376465
18.8833274841309
13.7333288192749
5.1499981880188
6.48518323898315
8.0111083984375
6.19907188415527
6.77129411697388
10.7768487930298
16.7851791381836
19.1694374084473
15.5453653335571
15.6407356262207
16.9759197235107
15.9268465042114
16.8805503845215
11.8259220123291
-0.190740674734116
-4.67314672470093
1.52592539787292
10.4907369613647
18.2157344818115
20.0277709960938
16.022216796875
17.2620315551758
11.0629596710205
-4.57777643203735
0.47685170173645
15.35462474823
20.6953639984131
28.4203605651855
29.7555465698242
21.6490669250488
19.360179901123
18.6925868988037
12.7796258926392
8.58333015441895
14.1148099899292
19.5509204864502
20.7907333374023
26.226842880249
31.8536930084229
38.4342460632324
44.1564674377441
41.0092468261719
33.4749908447266
28.3249912261963
28.0388793945313
29.5648059844971
27.1805477142334
26.8944358825684
33.5703582763672
38.4342460632324
39.9601707458496
40.1509132385254
38.2435073852539
36.5268402099609
30.3277683258057
24.7962875366211
32.9027671813965
41.0092468261719
39.9601707458496
42.8212814331055
46.7314682006836
42.2490615844727
32.04443359375
29.1833248138428
35.2870254516602
31.9490642547607
24.0333251953125
26.6083240509033
33.2842483520508
44.6333198547363
54.7425765991211
53.7888717651367
53.0259094238281
49.8786888122559
39.5786895751953
34.2379531860352
30.995361328125
27.5620288848877
31.7583236694336
43.0120239257813
51.6907234191895
51.7860946655273
50.0694274902344
45.300910949707
38.9110984802246
40.3416519165039
45.0148010253906
49.783317565918
53.6935005187988
51.6907234191895
43.1073951721191
32.2351760864258
25.3685111999512
27.7527694702148
35.9546165466309
35.7638778686523
26.7990646362305
19.1694374084473
13.1611070632935
12.8749961853027
16.30832862854
13.0657367706299
8.48795986175537
9.82314491271973
8.77407169342041
1.81203651428223
-1.04907369613647
2.95648050308228
6.48518323898315
6.00833129882813
6.58055353164673
6.58055353164673
3.33796191215515
9.06018257141113
13.6379585266113
11.7305517196655
20.6953639984131
28.2296199798584
21.7444381713867
14.1148099899292
11.9212923049927
7.6296272277832
3.147221326828
1.81203651428223
-1.23981440067291
-6.96203470230103
-7.91573810577393
-3.43333220481873
-3.62407302856445
-6.38981294631958
-11.2537002563477
-18.6925868988037
-15.5453653335571
-7.43888664245605
-8.86944198608398
-11.1583299636841
-9.537034034729
-9.06018257141113
-9.82314491271973
-8.77407169342041
-6.00833129882813
-1.71666610240936
2.67036962509155
3.147221326828
2.8611102104187
6.29444265365601
9.82314491271973
10.3953666687012
10.8722190856934
6.1037015914917
-2.95648050308228
-4.48240613937378
-3.8148136138916
-2.95648050308228
1.23981440067291
5.81759071350098
12.4935140609741
15.0685138702393
12.2074031829834
12.1120328903198
8.96481227874756
3.8148136138916
6.58055353164673
8.58333015441895
5.7222204208374
4.86388731002808
0.190740674734116
-1.43055510520935
4.00555419921875
6.86666440963745
8.96481227874756
8.58333015441895
5.1499981880188
2.28888821601868
-5.34073925018311
-8.96481227874756
-5.1499981880188
-9.34629344940186
-20.3138828277588
-23.9379558563232
-22.3166599273682
-24.0333251953125
-26.7036952972412
-22.6027698516846
-16.8805503845215
-17.9296245574951
-25.177770614624
-31.4722118377686
-34.3333206176758
-38.9110984802246
-50.5462799072266
-71.0509033203125
-89.4573822021484
-116.256446838379
-170.331420898438
-218.588821411133
-259.884185791016
-342.760986328125
-434.221160888672
-462.450775146484
-417.912841796875
-318.441558837891
-201.612899780273
-18.787956237793
239.47492980957
329.695251464844
251.014739990234
244.338806152344
287.446197509766
393.688751220703
598.258117675781
742.744201660156
760.006225585938
641.460876464844
441.755401611328
307.187866210938
258.930480957031
234.801773071289
216.776779174805
177.388824462891
81.2555313110352
-42.3444290161133
-165.181427001953
-267.323059082031
-304.326751708984
-278.004547119141
-212.008270263672
-125.316627502441
-56.4592399597168
-34.3333206176758
-65.4240493774414
-127.700881958008
-186.925872802734
-230.986968994141
-248.725845336914
-224.31103515625
-167.374938964844
-97.849967956543
-43.2981338500977
-29.0879535675049
-47.9712791442871
-84.8796005249023
-131.801803588867
-164.704574584961
-165.658279418945
-142.101806640625
-104.430519104004
-57.6036834716797
-13.5425882339478
9.15555286407471
6.38981294631958
-13.1611070632935
-41.1999855041504
-67.6175689697266
-82.3046035766602
-73.4351654052734
-47.2083168029785
-16.9759197235107
11.9212923049927
23.9379558563232
17.2620315551758
8.29721927642822
-3.8148136138916
-24.7962875366211
-32.2351760864258
-20.1231422424316
-11.7305517196655
-6.6759238243103
-0.286111027002335
6.29444265365601
12.1120328903198
2.8611102104187
-10.9675893783569
-14.0194396972656
-11.9212923049927
-7.53425693511963
-3.05185079574585
-0.190740674734116
0.0953703373670578
-0.572222054004669
-3.71944332122803
-9.63240432739258
-13.4472179412842
-14.0194396972656
-8.96481227874756
-3.91018390655518
-7.15277528762817
-8.10647869110107
-6.38981294631958
-8.77407169342041
-20.5999927520752
-29.9462871551514
-24.891658782959
-17.2620315551758
-8.86944198608398
0.572222054004669
5.1499981880188
1.52592539787292
-5.05462789535522
-9.537034034729
-18.787956237793
-23.8425846099854
-13.6379585266113
-1.14444410800934
5.24536848068237
13.6379585266113
19.4555492401123
11.4444408416748
-9.63240432739258
-30.0416564941406
-36.0499877929688
-34.7148017883301
-33.0935096740723
-24.0333251953125
-6.38981294631958
6.00833129882813
9.06018257141113
3.05185079574585
-15.2592544555664
-33.5703582763672
-46.1592445373535
-56.3638725280762
-53.8842430114746
-35.382396697998
-17.0712909698486
-1.04907369613647
15.1638841629028
17.357400894165
3.33796191215515
-13.1611070632935
-22.7935104370117
-22.4120292663574
-12.8749961853027
7.0574049949646
33.3796195983887
59.5110931396484
77.4407196044922
78.7759017944336
67.7129440307617
54.4564628601074
40.8185043334961
32.1398048400879
41.7722091674805
62.3722038269043
85.8333053588867
117.973114013672
144.486068725586
152.020324707031
148.205505371094
144.009216308594
139.526809692383
134.281433105469
138.382369995117
151.829574584961
169.759201049805
183.015686035156
189.024017333984
198.847152709961
200.75456237793
189.310119628906
175.290679931641
159.649948120117
157.074951171875
169.759201049805
182.157348632813
196.367523193359
205.713821411133
203.234191894531
195.890670776367
182.920318603516
160.41291809082
139.145324707031
127.414772033691
117.400886535645
115.207366943359
117.305519104004
110.820335388184
103.953666687012
97.182373046875
78.9666442871094
58.652759552002
50.6416511535645
43.9657249450684
35.2870254516602
27.2759170532227
13.3518476486206
3.24259161949158
-3.33796191215515
-12.588885307312
-21.5536975860596
-36.1453590393066
-49.4018363952637
-53.4073905944824
-59.4157218933105
-64.6610870361328
-64.1842422485352
-68.7620162963867
-77.0592346191406
-77.345344543457
-80.3018264770508
-97.849967956543
-114.825889587402
-120.83422088623
-122.741630554199
-120.452735900879
-118.831443786621
-120.452735900879
-116.828666687012
-115.588851928711
-124.458290100098
-134.186065673828
-141.624954223633
-144.390701293945
-145.630508422852
-151.448104858398
-151.448104858398
-143.246246337891
-137.810134887695
-137.714767456055
-141.434219360352
-141.624954223633
-135.044403076172
-132.183288574219
-132.755508422852
-131.706436157227
-126.651809692383
-120.262001037598
-117.973114013672
-115.398109436035
-114.062927246094
-113.20458984375
-105.098114013672
-104.335151672363
-111.011077880859
-104.525894165039
-96.7055282592773
-98.0407104492188
-100.424964904785
-107.005523681641
-110.915702819824
-105.288856506348
-95.2749710083008
-84.9749755859375
-80.5879364013672
-80.9694213867188
-80.4925689697266
-77.8221969604492
-80.3971939086914
-89.8388595581055
-91.0786743164063
-77.8221969604492
-63.7073860168457
-57.0314636230469
-51.1185035705566
-49.5925750732422
-53.6935005187988
-56.4592399597168
-60.5601654052734
-68.8573837280273
-73.4351654052734
-70.8601608276367
-64.5657196044922
-52.9305381774902
-35.382396697998
-24.2240657806396
-26.3222141265869
-29.9462871551514
-37.0036926269531
-44.9194297790527
-39.864803314209
-35.5731353759766
-32.8073959350586
-26.0361022949219
-20.3138828277588
-9.15555286407471
-6.6759238243103
-17.1666603088379
-19.4555492401123
-17.9296245574951
-24.891658782959
-33.3796195983887
-28.7064723968506
-12.9703664779663
0.381481349468231
6.19907188415527
10.5861072540283
13.5425882339478
14.5916624069214
16.4990692138672
15.7361059188843
12.3981437683105
10.0138854980469
9.25092315673828
12.1120328903198
14.8777732849121
12.588885307312
9.537034034729
9.72777462005615
11.1583299636841
13.9240694046021
18.787956237793
25.6546211242676
34.4286918640137
42.5351715087891
46.4453544616699
47.3036880493164
48.734245300293
43.7749862670898
32.3305435180664
25.5592517852783
21.0768451690674
20.1231422424316
30.6138782501221
43.4888763427734
49.2110939025879
54.0749816894531
54.3610954284668
46.1592445373535
43.0120239257813
44.251838684082
40.0555419921875
36.3360977172852
33.9518394470215
30.8999900817871
34.810173034668
41.7722091674805
45.9685020446777
45.0148010253906
38.148136138916
32.04443359375
26.7990646362305
24.0333251953125
29.8509159088135
36.431468963623
39.7694320678711
43.4888763427734
42.2490615844727
39.1018409729004
35.1916542053223
28.2296199798584
29.1833248138428
38.3388748168945
45.1101722717285
42.5351715087891
40.4370231628418
43.8703575134277
43.8703575134277
47.2083168029785
47.4944305419922
39.1018409729004
34.1425819396973
29.0879535675049
23.9379558563232
23.2703628540039
26.6083240509033
28.5157318115234
27.5620288848877
32.8073959350586
33.1888771057129
27.5620288848877
29.5648059844971
28.3249912261963
24.2240657806396
24.7009181976318
23.5564746856689
25.4638805389404
31.8536930084229
28.9925842285156
21.6490669250488
21.839807510376
25.177770614624
29.6601753234863
37.2898025512695
44.7286911010742
45.6823921203613
39.2925796508789
33.9518394470215
28.4203605651855
18.2157344818115
18.4064750671387
30.8999900817871
33.0935096740723
27.2759170532227
28.9925842285156
36.1453590393066
37.0036926269531
35.7638778686523
35.382396697998
29.7555465698242
27.1805477142334
28.1342506408691
32.04443359375
43.9657249450684
49.9740562438965
47.4944305419922
44.1564674377441
42.7259140014648
49.3064651489258
52.8351669311523
47.8759117126465
51.2138710021973
54.170352935791
49.1157264709473
48.1620216369629
46.5407257080078
47.9712791442871
59.4157218933105
60.8462753295898
53.4073905944824
51.7860946655273
47.2083168029785
43.5842437744141
41.7722091674805
35.382396697998
32.04443359375
28.7064723968506
23.6518440246582
23.6518440246582
25.2731399536133
26.8944358825684
26.4175834655762
22.3166599273682
22.125919342041
17.4527721405029
6.19907188415527
2.1935179233551
0.762962698936462
-2.09814739227295
3.05185079574585
7.15277528762817
5.24536848068237
10.2999963760376
14.4962921142578
4.29166507720947
-6.19907188415527
-10.5861072540283
-16.2129573822021
-12.4935140609741
-5.34073925018311
-4.1962947845459
2.67036962509155
7.82036781311035
3.62407302856445
6.19907188415527
10.3953666687012
-3.62407302856445
-31.6629524230957
-53.0259094238281
-62.1814613342285
-77.345344543457
-103.286079406738
-118.259223937988
-137.333282470703
-189.691604614258
-244.911026000977
-289.925842285156
-375.854522705078
-483.432250976563
-521.198913574219
-472.846130371094
-369.84619140625
-253.494369506836
-85.9286727905273
173.478652954102
301.847137451172
255.306396484375
244.434173583984
258.262878417969
347.529510498047
561.445190429688
730.632202148438
768.971069335938
646.229431152344
432.790588378906
297.460083007813
253.875839233398
236.709182739258
221.163818359375
184.350860595703
100.234230041504
-21.7444381713867
-146.011993408203
-242.431396484375
-288.113800048828
-274.475830078125
-214.201782226563
-138.95458984375
-76.296272277832
-47.4944305419922
-67.2360916137695
-124.362922668457
-190.454574584961
-237.281402587891
-252.731399536133
-230.319366455078
-174.241607666016
-112.441627502441
-61.2277565002441
-39.0064697265625
-54.170352935791
-88.6944122314453
-127.986999511719
-160.22216796875
-175.481430053711
-167.661056518555
-137.047180175781
-90.1249694824219
-45.2055397033691
-23.1749935150146
-26.1314735412598
-51.0231323242188
-85.1657104492188
-109.294410705566
-120.166625976563
-111.869407653809
-89.0758972167969
-66.9499816894531
-43.1073951721191
-24.4148063659668
-16.9759197235107
-26.226842880249
-50.0694274902344
-62.7536849975586
-65.137939453125
-61.323127746582
-46.8268356323242
-37.0036926269531
-31.4722118377686
-25.7499923706055
-22.2212886810303
-24.6055469512939
-29.4694347381592
-26.8944358825684
-23.3657341003418
-18.9786968231201
-10.6814785003662
-8.10647869110107
-8.77407169342041
-8.10647869110107
-9.15555286407471
-15.9268465042114
-19.074068069458
-6.58055353164673
-0.667592406272888
-6.00833129882813
-7.15277528762817
-9.34629344940186
-15.1638841629028
-23.1749935150146
-28.5157318115234
-32.9981384277344
-33.6657295227051
-18.6925868988037
-4.48240613937378
3.147221326828
14.2101802825928
12.9703664779663
-1.71666610240936
-15.0685138702393
-23.8425846099854
-22.125919342041
-10.9675893783569
2.00277709960938
17.2620315551758
28.0388793945313
29.6601753234863
25.2731399536133
16.8805503845215
0
-14.8777732849121
-17.6435127258301
-20.3138828277588
-16.5944385528564
-6.58055353164673
3.33796191215515
16.022216796875
17.6435127258301
3.5287024974823
-7.0574049949646
-10.5861072540283
-17.5481433868408
-12.4935140609741
7.72499752044678
23.3657341003418
41.1046180725098
59.1296119689941
66.9499816894531
66.7592391967773
48.3527641296387
25.9407329559326
17.6435127258301
10.5861072540283
18.5018463134766
49.2110939025879
76.296272277832
86.5962677001953
93.8444137573242
97.5638580322266
74.6749725341797
57.0314636230469
63.7073860168457
63.6120147705078
70.8601608276367
99.0897827148438
123.886070251465
141.243469238281
154.309204101563
158.696243286133
157.742538452148
152.592544555664
146.011993408203
140.003662109375
139.336059570313
154.786056518555
175.958282470703
188.928649902344
196.749008178711
196.844375610352
186.544387817383
176.149017333984
170.903656005859
168.519393920898
166.898101806641
171.571243286133
184.636978149414
192.45735168457
190.931427001953
182.061981201172
166.325866699219
148.014770507813
133.136993408203
130.943481445313
131.897186279297
124.839775085449
121.978668212891
121.215698242188
118.545333862305
112.155517578125
92.6045989990234
71.4323883056641
58.652759552002
44.9194297790527
29.3740653991699
19.6462898254395
20.6953639984131
19.1694374084473
7.82036781311035
4.7685170173645
-0.190740674734116
-17.1666603088379
-23.7472152709961
-27.657398223877
-35.2870254516602
-29.278694152832
-30.8046188354492
-51.1185035705566
-60.9416465759277
-61.2277565002441
-67.8083114624023
-76.5823822021484
-87.1684875488281
-103.476821899414
-107.95922088623
-101.37866973877
-106.528671264648
-116.924034118652
-125.125885009766
-130.46662902832
-134.186065673828
-142.578659057617
-149.349945068359
-148.682357788086
-143.436996459961
-145.2490234375
-149.826797485352
-150.017547607422
-153.641616821289
-153.164764404297
-151.448104858398
-160.22216796875
-160.603652954102
-150.017547607422
-145.153656005859
-146.870330810547
-155.262908935547
-163.846237182617
-164.036987304688
-160.126800537109
-159.936065673828
-153.069396972656
-141.911071777344
-145.535140991211
-146.298095703125
-136.570327758789
-138.85920715332
-139.622177124023
-128.463851928711
-128.082366943359
-134.376815795898
-131.706436157227
-126.365699768066
-122.741630554199
-116.161071777344
-120.357368469238
-123.218475341797
-114.158294677734
-118.926811218262
-112.632369995117
-91.8416366577148
-98.6129302978516
-108.054595947266
-91.269416809082
-68.4759063720703
-59.8925743103027
-56.0777587890625
-52.453685760498
-61.6092376708984
-68.2851638793945
-61.323127746582
-57.3175735473633
-56.8407211303711
-53.3120193481445
-49.2110939025879
-41.5814666748047
-36.7175827026367
-37.099063873291
-31.3768424987793
-27.5620288848877
-29.6601753234863
-30.3277683258057
-28.5157318115234
-19.5509204864502
-7.82036781311035
-0.762962698936462
-1.33518481254578
-10.1092557907104
-16.1175880432129
-15.9268465042114
-18.1203651428223
-19.6462898254395
-14.3055505752563
-9.44166374206543
-8.96481227874756
-2.1935179233551
9.72777462005615
14.3055505752563
12.9703664779663
11.5398111343384
4.95925760269165
-6.96203470230103
-13.7333288192749
-18.0249938964844
-20.2185115814209
-8.58333015441895
5.7222204208374
7.15277528762817
0.286111027002335
-0.381481349468231
3.05185079574585
1.62129580974579
4.57777643203735
14.0194396972656
23.7472152709961
37.6712837219238
52.2629470825195
51.8814659118652
41.8675804138184
38.2435073852539
40.913875579834
43.5842437744141
37.8620262145996
35.5731353759766
45.8731346130371
43.3935050964355
35.6685066223145
46.2546157836914
52.453685760498
49.5925750732422
47.2083168029785
39.0064697265625
31.7583236694336
36.7175827026367
53.4073905944824
61.99072265625
59.2249794006348
61.0370178222656
58.2712783813477
48.3527641296387
45.2055397033691
40.3416519165039
34.7148017883301
41.962947845459
53.0259094238281
57.9851684570313
55.1240577697754
50.355541229248
46.1592445373535
40.7231369018555
43.5842437744141
50.5462799072266
51.3092422485352
46.4453544616699
39.864803314209
40.6277656555176
44.8240585327148
47.9712791442871
49.3064651489258
48.2573928833008
50.5462799072266
49.4972076416016
38.7203598022461
34.7148017883301
46.2546157836914
51.4999847412109
47.7805404663086
48.9249839782715
48.5435028076172
46.8268356323242
46.0638732910156
42.7259140014648
37.5759124755859
37.6712837219238
42.3444290161133
44.7286911010742
50.355541229248
56.4592399597168
61.323127746582
64.3749771118164
62.5629425048828
64.8518295288086
63.039794921875
56.2685012817383
59.5110931396484
62.2768325805664
56.936092376709
54.170352935791
54.8379440307617
54.4564628601074
53.9796104431152
51.1185035705566
45.300910949707
38.7203598022461
35.2870254516602
41.8675804138184
49.4018363952637
41.962947845459
27.3712882995605
24.2240657806396
26.0361022949219
28.2296199798584
37.0036926269531
36.7175827026367
32.4259147644043
42.3444290161133
44.0610961914063
32.1398048400879
29.1833248138428
27.2759170532227
23.0796222686768
25.7499923706055
21.1722145080566
16.022216796875
17.8342533111572
10.5861072540283
1.52592539787292
1.52592539787292
6.19907188415527
11.3490705490112
17.8342533111572
17.2620315551758
4.7685170173645
1.52592539787292
4.48240613937378
2.09814739227295
2.8611102104187
-1.43055510520935
-12.0166625976563
-16.4990692138672
-21.2675857543945
-23.4611034393311
-22.3166599273682
-22.0305480957031
-15.8314762115479
-15.2592544555664
-19.8370304107666
-21.5536975860596
-22.3166599273682
-15.0685138702393
-8.58333015441895
-11.1583299636841
-10.9675893783569
-4.00555419921875
5.43610954284668
10.0138854980469
7.53425693511963
3.62407302856445
0.762962698936462
1.52592539787292
-0.762962698936462
-9.44166374206543
-13.5425882339478
-10.0138854980469
-6.58055353164673
-7.34351634979248
-3.33796191215515
3.43333220481873
5.05462789535522
7.43888664245605
7.82036781311035
7.91573810577393
10.7768487930298
9.25092315673828
5.81759071350098
9.15555286407471
11.2537002563477
5.91296100616455
4.1962947845459
1.52592539787292
-3.62407302856445
-6.58055353164673
-9.15555286407471
-9.63240432739258
-11.9212923049927
-15.6407356262207
-11.1583299636841
-8.86944198608398
-18.5972156524658
-21.5536975860596
-12.6842555999756
-12.2074031829834
-22.2212886810303
-24.1286964416504
-21.3629570007324
-24.0333251953125
-25.0823993682861
-22.125919342041
-21.3629570007324
-26.226842880249
-26.8944358825684
-22.3166599273682
-29.5648059844971
-43.2981338500977
-47.6851692199707
-46.8268356323242
-63.3259048461914
-91.8416366577148
-106.624038696289
-143.15087890625
-224.406402587891
-293.740661621094
-351.248962402344
-440.420227050781
-523.48779296875
-531.785034179688
-447.000793457031
-308.904541015625
-185.209197998047
-21.6490669250488
218.0166015625
316.343414306641
286.397125244141
330.362854003906
355.445251464844
377.094329833984
543.324829101563
761.722900390625
823.713623046875
647.373840332031
420.010986328125
311.574890136719
275.238800048828
260.933258056641
245.197143554688
193.124938964844
90.1249694824219
-46.6360969543457
-179.677719116211
-273.617492675781
-301.465637207031
-263.603607177734
-189.024017333984
-110.629592895508
-54.9333152770996
-39.7694320678711
-67.7129440307617
-128.654586791992
-190.836044311523
-226.123077392578
-233.848068237305
-207.43049621582
-147.728652954102
-78.394416809082
-16.9759197235107
5.91296100616455
-20.8861045837402
-64.9472045898438
-106.719413757324
-142.960144042969
-159.554580688477
-144.009216308594
-102.999969482422
-61.323127746582
-30.6138782501221
-10.3953666687012
-5.24536848068237
-22.5074005126953
-53.6935005187988
-80.3018264770508
-97.2777481079102
-91.7462692260742
-66.3777542114258
-40.913875579834
-17.0712909698486
-1.23981440067291
-4.1962947845459
-21.0768451690674
-38.3388748168945
-54.170352935791
-65.9009017944336
-66.9499816894531
-59.1296119689941
-48.1620216369629
-35.1916542053223
-20.8861045837402
-17.738883972168
-26.226842880249
-27.5620288848877
-24.2240657806396
-24.2240657806396
-18.9786968231201
-12.3981437683105
-17.8342533111572
-14.687032699585
-7.82036781311035
-16.5944385528564
-12.9703664779663
-3.147221326828
-7.72499752044678
-4.10092449188232
5.34073925018311
8.0111083984375
1.9074068069458
-11.2537002563477
-17.4527721405029
-15.5453653335571
-20.9814739227295
-23.2703628540039
-14.3055505752563
-10.0138854980469
-6.19907188415527
0.190740674734116
-0.0953703373670578
-10.3953666687012
-24.5101776123047
-27.1805477142334
-20.7907333374023
-16.5944385528564
-11.2537002563477
-3.147221326828
5.91296100616455
14.8777732849121
16.4036979675293
8.58333015441895
-4.1962947845459
-15.4499950408936
-24.1286964416504
-27.1805477142334
-14.3055505752563
6.77129411697388
20.1231422424316
22.8888816833496
19.8370304107666
13.4472179412842
-1.14444410800934
-9.44166374206543
-4.00555419921875
-3.24259161949158
4.00555419921875
26.226842880249
44.6333198547363
53.8842430114746
56.936092376709
43.2981338500977
19.6462898254395
11.635181427002
13.4472179412842
15.1638841629028
34.0472106933594
54.8379440307617
70.4786834716797
98.6129302978516
108.531448364258
94.9888610839844
83.1629333496094
75.1518249511719
73.2444229125977
73.7212753295898
82.6860809326172
103.76293182373
126.556442260742
142.292541503906
145.2490234375
137.142547607422
125.316627502441
118.926811218262
118.44995880127
118.44995880127
129.036071777344
150.303649902344
172.811050415039
197.607345581055
207.907333374023
196.55827331543
188.0703125
183.206420898438
167.756423950195
159.268463134766
168.424026489258
177.102722167969
184.636978149414
197.988830566406
201.899002075195
189.214752197266
175.767532348633
157.170318603516
126.842552185059
111.392555236816
111.869407653809
109.866630554199
113.490707397461
119.022186279297
115.302742004395
104.812004089355
88.5990447998047
74.6749725341797
65.4240493774414
60.6555366516113
57.6036834716797
53.121280670166
46.8268356323242
29.8509159088135
11.8259220123291
3.71944332122803
-5.81759071350098
-20.8861045837402
-33.4749908447266
-41.1999855041504
-52.2629470825195
-61.0370178222656
-57.3175735473633
-56.6499824523926
-62.6583137512207
-65.805534362793
-79.1573791503906
-94.416633605957
-98.7083053588867
-104.907371520996
-113.299964904785
-120.548110961914
-121.024963378906
-115.398109436035
-113.490707397461
-121.024963378906
-133.995330810547
-135.998107910156
-138.286987304688
-147.251800537109
-148.873107910156
-151.066619873047
-154.595321655273
-156.121246337891
-155.930511474609
-149.731430053711
-146.870330810547
-147.156433105469
-144.390701293945
-144.676803588867
-148.682357788086
-150.303649902344
-141.243469238281
-133.136993408203
-136.76106262207
-135.235137939453
-130.943481445313
-135.330505371094
-132.946258544922
-125.316627502441
-127.033294677734
-130.752731323242
-130.752731323242
-129.131439208984
-122.93236541748
-113.586074829102
-112.727745056152
-115.302742004395
-111.869407653809
-107.100891113281
-97.9453353881836
-90.3157119750977
-92.986083984375
-94.7981185913086
-89.4573822021484
-86.5962677001953
-97.2777481079102
-103.858299255371
-93.367561340332
-84.0212707519531
-78.2990493774414
-76.5823822021484
-81.16015625
-80.8740463256836
-80.5879364013672
-88.0268249511719
-94.1305236816406
-88.4083023071289
-79.9203414916992
-74.0073852539063
-60.9416465759277
-49.3064651489258
-46.7314682006836
-44.251838684082
-42.0583190917969
-42.0583190917969
-41.5814666748047
-33.6657295227051
-17.1666603088379
-8.0111083984375
-15.0685138702393
-20.6953639984131
-12.302773475647
-4.95925760269165
-6.38981294631958
-10.1092557907104
-13.8286991119385
-16.9759197235107
-16.30832862854
-11.7305517196655
-2.38425850868225
9.72777462005615
14.3055505752563
11.3490705490112
7.15277528762817
0.381481349468231
-1.14444410800934
-0.47685170173645
-2.76573991775513
2.47962880134583
11.3490705490112
17.0712909698486
22.6027698516846
23.5564746856689
18.1203651428223
9.06018257141113
2.76573991775513
2.8611102104187
3.147221326828
8.96481227874756
22.6981410980225
27.8481388092041
23.8425846099854
22.5074005126953
21.7444381713867
25.6546211242676
26.7990646362305
15.6407356262207
10.7768487930298
15.5453653335571
24.9870281219482
30.4231376647949
27.657398223877
32.04443359375
33.0935096740723
27.3712882995605
25.3685111999512
28.7064723968506
38.9110984802246
47.3990592956543
45.6823921203613
47.017578125
54.5518341064453
53.2166481018066
46.4453544616699
43.5842437744141
39.197208404541
36.7175827026367
41.6768379211426
47.1129493713379
48.8296127319336
51.9768333435059
59.4157218933105
60.4647941589355
54.7425765991211
54.6472053527832
57.8897972106934
56.1731300354004
46.4453544616699
43.2981338500977
49.4018363952637
50.9277610778809
45.7777633666992
37.2898025512695
30.8046188354492
28.9925842285156
25.3685111999512
25.7499923706055
27.943510055542
26.8944358825684
33.3796195983887
40.0555419921875
38.6249885559082
38.4342460632324
41.0092468261719
40.6277656555176
38.2435073852539
37.0036926269531
33.4749908447266
29.1833248138428
25.8453617095947
24.1286964416504
32.6166572570801
40.0555419921875
41.0092468261719
40.4370231628418
33.3796195983887
26.7990646362305
26.9898052215576
24.5101776123047
18.4064750671387
18.4064750671387
27.3712882995605
33.3796195983887
33.8564720153809
37.6712837219238
39.864803314209
36.7175827026367
32.04443359375
25.0823993682861
20.5046234130859
23.5564746856689
33.1888771057129
44.3472061157227
47.9712791442871
44.4425773620605
36.3360977172852
29.9462871551514
30.8999900817871
28.9925842285156
31.4722118377686
36.5268402099609
35.1916542053223
38.2435073852539
40.8185043334961
43.5842437744141
48.6388740539551
43.0120239257813
36.8129501342773
37.6712837219238
37.8620262145996
41.0092468261719
43.7749862670898
35.0009155273438
21.6490669250488
12.8749961853027
13.4472179412842
21.0768451690674
24.5101776123047
22.3166599273682
19.6462898254395
16.5944385528564
19.1694374084473
20.3138828277588
11.4444408416748
11.4444408416748
14.687032699585
6.1037015914917
4.48240613937378
7.82036781311035
7.82036781311035
8.96481227874756
6.86666440963745
1.33518481254578
3.8148136138916
18.2157344818115
24.7962875366211
21.1722145080566
19.1694374084473
18.0249938964844
20.0277709960938
26.226842880249
29.5648059844971
34.6194343566895
41.962947845459
38.7203598022461
32.7120246887207
33.2842483520508
33.5703582763672
30.5185089111328
31.9490642547607
36.0499877929688
29.3740653991699
24.6055469512939
22.0305480957031
14.2101802825928
19.074068069458
26.7990646362305
24.891658782959
21.2675857543945
17.9296245574951
16.5944385528564
11.7305517196655
3.147221326828
-1.62129580974579
-5.24536848068237
-6.96203470230103
-1.62129580974579
-2.09814739227295
-12.2074031829834
-12.1120328903198
-7.82036781311035
-13.7333288192749
-13.5425882339478
-8.3925895690918
-10.3953666687012
-10.2999963760376
-9.537034034729
-14.4962921142578
-13.0657367706299
-2.5749990940094
0.0953703373670578
-5.91296100616455
-11.635181427002
-16.022216796875
-17.8342533111572
-20.409252166748
-26.6083240509033
-32.2351760864258
-38.4342460632324
-44.251838684082
-42.0583190917969
-41.5814666748047
-59.6064605712891
-79.6342315673828
-108.722190856934
-178.247161865234
-248.439727783203
-296.124908447266
-368.606353759766
-465.025787353516
-513.569274902344
-466.456329345703
-349.532287597656
-229.079559326172
-88.0268249511719
145.821243286133
305.375823974609
281.819366455078
282.486938476563
327.311004638672
378.524871826172
535.790588378906
720.904418945313
798.631225585938
697.347900390625
469.031341552734
312.0517578125
273.522125244141
261.600830078125
239.856399536133
195.318450927734
110.248115539551
-14.0194396972656
-147.251800537109
-248.821212768555
-298.699890136719
-290.211944580078
-225.646224975586
-135.998107910156
-72.4814605712891
-55.6962776184082
-78.2990493774414
-135.139770507813
-207.43049621582
-259.979553222656
-275.715637207031
-259.979553222656
-217.82585144043
-155.930511474609
-98.3268203735352
-66.9499816894531
-68.0944213867188
-99.4712677001953
-144.199951171875
-179.868453979492
-196.462905883789
-188.165679931641
-154.118469238281
-110.724967956543
-74.6749725341797
-51.404613494873
-44.9194297790527
-55.3147964477539
-73.8166427612305
-93.8444137573242
-110.057373046875
-110.343482971191
-88.5036773681641
-56.0777587890625
-30.1370277404785
-18.8833274841309
-15.8314762115479
-17.9296245574951
-28.8972129821777
-46.0638732910156
-57.0314636230469
-52.5490570068359
-42.0583190917969
-30.995361328125
-21.6490669250488
-20.9814739227295
-24.4148063659668
-27.3712882995605
-31.3768424987793
-35.6685066223145
-37.6712837219238
-35.0962867736816
-29.1833248138428
-26.1314735412598
-21.839807510376
-18.1203651428223
-22.6981410980225
-25.7499923706055
-20.1231422424316
-12.0166625976563
-9.15555286407471
-3.5287024974823
5.05462789535522
3.05185079574585
-1.23981440067291
-6.19907188415527
-12.8749961853027
-11.4444408416748
-4.57777643203735
6.19907188415527
15.5453653335571
12.8749961853027
8.77407169342041
7.91573810577393
-0.190740674734116
-10.6814785003662
-19.4555492401123
-20.1231422424316
-9.06018257141113
-2.00277709960938
2.1935179233551
16.4990692138672
28.7064723968506
23.8425846099854
9.44166374206543
-7.72499752044678
-26.3222141265869
-34.4286918640137
-29.0879535675049
-18.6925868988037
-6.77129411697388
6.77129411697388
25.0823993682861
37.3851737976074
27.1805477142334
5.62685012817383
-7.82036781311035
-15.6407356262207
-19.074068069458
-7.43888664245605
8.67870044708252
17.1666603088379
28.6111011505127
31.8536930084229
18.0249938964844
0.381481349468231
-19.074068069458
-29.4694347381592
-23.5564746856689
-9.06018257141113
12.588885307312
36.2407302856445
61.4184989929199
81.827751159668
81.16015625
68.1897964477539
57.8897972106934
48.066650390625
43.5842437744141
46.8268356323242
60.8462753295898
86.3101577758789
105.956443786621
114.158294677734
118.44995880127
115.49348449707
112.060150146484
113.490707397461
120.166625976563
138.76383972168
160.031433105469
182.443466186523
206.667526245117
215.918441772461
216.490676879883
208.574935913086
188.642532348633
174.718460083008
164.51383972168
160.126800537109
171.475875854492
179.868453979492
186.353637695313
197.225860595703
194.174011230469
179.48698425293
165.372161865234
157.170318603516
152.592544555664
144.772171020508
140.575881958008
145.153656005859
153.641616821289
152.592544555664
132.946258544922
114.158294677734
106.337928771973
87.7407150268555
63.3259048461914
50.2601699829102
41.6768379211426
31.1861019134521
24.5101776123047
22.0305480957031
14.5916624069214
3.05185079574585
-7.72499752044678
-21.7444381713867
-36.3360977172852
-39.2925796508789
-33.4749908447266
-32.04443359375
-41.4860992431641
-53.9796104431152
-60.8462753295898
-71.8138656616211
-85.6425628662109
-92.7953414916992
-96.6101531982422
-95.9425582885742
-97.3731155395508
-100.711082458496
-99.4712677001953
-101.187927246094
-109.485153198242
-120.262001037598
-122.264778137207
-114.34903717041
-111.1064453125
-115.684219360352
-125.221252441406
-129.512924194336
-124.458290100098
-126.461067199707
-135.616622924805
-140.480514526367
-144.009216308594
-144.676803588867
-144.486068725586
-151.352722167969
-148.300872802734
-135.425888061523
-135.235137939453
-141.052734375
-140.861999511719
-141.624954223633
-145.916625976563
-143.15087890625
-131.515701293945
-125.030517578125
-126.556442260742
-132.46940612793
-134.376815795898
-129.417556762695
-126.07958984375
-126.556442260742
-130.180511474609
-127.414772033691
-117.019409179688
-114.444404602051
-112.632369995117
-105.193481445313
-99.1851501464844
-95.751823425293
-101.760154724121
-106.719413757324
-93.7490463256836
-81.7323837280273
-81.7323837280273
-82.9721984863281
-77.345344543457
-61.0370178222656
-53.121280670166
-55.1240577697754
-55.4101676940918
-60.4647941589355
-63.7073860168457
-62.3722038269043
-60.3694267272949
-56.0777587890625
-50.9277610778809
-42.1536903381348
-44.6333198547363
-56.4592399597168
-57.1268348693848
-54.8379440307617
-49.0203552246094
-36.7175827026367
-27.7527694702148
-20.5046234130859
-15.5453653335571
-11.3490705490112
-12.302773475647
-19.7416610717773
-19.4555492401123
-15.7361059188843
-18.8833274841309
-19.9324016571045
-15.2592544555664
-4.67314672470093
9.82314491271973
15.5453653335571
12.3981437683105
6.1037015914917
-2.47962880134583
-4.48240613937378
-1.52592539787292
2.95648050308228
11.635181427002
20.409252166748
27.4666576385498
34.1425819396973
42.7259140014648
50.0694274902344
46.5407257080078
39.0064697265625
35.5731353759766
31.6629524230957
29.7555465698242
30.1370277404785
31.5675830841064
33.2842483520508
28.7064723968506
21.7444381713867
19.360179901123
20.6953639984131
22.2212886810303
23.6518440246582
26.3222141265869
26.226842880249
35.2870254516602
47.6851692199707
47.017578125
43.8703575134277
40.5323944091797
39.3879508972168
47.9712791442871
50.5462799072266
46.8268356323242
50.7370223999023
57.2222023010254
63.1351661682129
68.6666412353516
68.1897964477539
59.7972030639648
49.4972076416016
45.4916534423828
47.2083168029785
47.8759117126465
49.2110939025879
53.8842430114746
54.5518341064453
51.5953521728516
51.8814659118652
49.9740562438965
47.4944305419922
50.832389831543
52.0722045898438
54.5518341064453
60.4647941589355
63.4212760925293
63.7073860168457
65.5194244384766
68.1897964477539
60.4647941589355
49.1157264709473
43.1073951721191
35.9546165466309
33.5703582763672
39.5786895751953
44.8240585327148
45.9685020446777
48.4481315612793
51.4999847412109
46.1592445373535
37.7666549682617
38.0527648925781
39.197208404541
36.5268402099609
45.300910949707
62.7536849975586
68.6666412353516
65.5194244384766
63.3259048461914
60.8462753295898
53.4073905944824
40.7231369018555
34.5240631103516
39.864803314209
43.5842437744141
45.300910949707
50.832389831543
53.3120193481445
49.783317565918
43.7749862670898
44.0610961914063
49.2110939025879
46.9222068786621
38.148136138916
33.1888771057129
32.8073959350586
30.70924949646
28.5157318115234
30.1370277404785
25.3685111999512
17.4527721405029
22.0305480957031
31.0907306671143
27.8481388092041
16.4990692138672
15.8314762115479
23.6518440246582
21.839807510376
11.3490705490112
7.53425693511963
13.5425882339478
16.5944385528564
14.4009208679199
14.9731435775757
11.7305517196655
5.81759071350098
2.67036962509155
-1.71666610240936
0
6.19907188415527
6.58055353164673
5.91296100616455
9.82314491271973
12.302773475647
12.7796258926392
17.5481433868408
21.1722145080566
18.1203651428223
10.8722190856934
5.24536848068237
6.48518323898315
7.0574049949646
3.43333220481873
2.76573991775513
5.91296100616455
11.635181427002
10.5861072540283
1.43055510520935
-2.09814739227295
-2.67036962509155
0
4.86388731002808
0.762962698936462
-4.95925760269165
-8.96481227874756
-15.6407356262207
-17.6435127258301
-15.5453653335571
-18.3111057281494
-21.6490669250488
-22.2212886810303
-24.891658782959
-28.6111011505127
-32.4259147644043
-34.7148017883301
-29.3740653991699
-24.5101776123047
-25.8453617095947
-20.409252166748
-14.1148099899292
-19.2648086547852
-20.6953639984131
-13.1611070632935
-7.34351634979248
-5.34073925018311
-12.9703664779663
-26.5129547119141
-30.0416564941406
-31.0907306671143
-33.2842483520508
-31.6629524230957
-34.4286918640137
-37.8620262145996
-39.864803314209
-39.9601707458496
-40.4370231628418
-59.8925743103027
-94.702751159668
-139.336059570313
-195.604568481445
-233.848068237305
-274.666564941406
-375.186920166016
-474.181335449219
-486.770202636719
-430.978576660156
-334.368408203125
-211.912887573242
-8.77407169342041
234.420288085938
283.536010742188
199.705490112305
176.149017333984
216.395294189453
387.871185302734
612.182189941406
712.797912597656
691.434936523438
560.109985351563
384.247100830078
270.088806152344
220.782333374023
197.798080444336
184.923095703125
142.292541503906
42.4398002624512
-79.1573791503906
-196.844375610352
-282.963806152344
-305.75732421875
-276.478607177734
-214.297149658203
-139.526809692383
-79.8249740600586
-58.8434982299805
-86.2147903442383
-142.387924194336
-203.04345703125
-240.810104370117
-240.333251953125
-211.245300292969
-158.219390869141
-98.2314529418945
-53.7888717651367
-26.0361022949219
-29.0879535675049
-66.9499816894531
-106.242561340332
-133.804580688477
-144.390701293945
-118.831443786621
-77.0592346191406
-43.2027626037598
-6.58055353164673
20.0277709960938
12.3981437683105
-14.2101802825928
-42.9166526794434
-67.8083114624023
-75.247200012207
-61.99072265625
-36.6222114562988
-10.7768487930298
10.2999963760376
23.8425846099854
21.839807510376
11.9212923049927
-0.858333051204681
-19.9324016571045
-32.04443359375
-28.9925842285156
-15.35462474823
-2.1935179233551
8.29721927642822
18.2157344818115
19.2648086547852
13.9240694046021
7.43888664245605
2.1935179233551
5.62685012817383
10.2999963760376
12.7796258926392
17.6435127258301
17.738883972168
19.6462898254395
26.226842880249
20.1231422424316
6.96203470230103
6.58055353164673
16.4990692138672
23.1749935150146
26.9898052215576
27.1805477142334
15.0685138702393
2.09814739227295
1.14444410800934
-1.52592539787292
-6.1037015914917
-1.71666610240936
4.7685170173645
11.2537002563477
15.35462474823
9.25092315673828
-4.29166507720947
-11.1583299636841
-10.9675893783569
-15.6407356262207
-14.1148099899292
-3.05185079574585
5.05462789535522
13.256477355957
18.1203651428223
16.8805503845215
8.29721927642822
-12.6842555999756
-33.9518394470215
-44.5379486083984
-40.8185043334961
-24.1286964416504
-9.9185152053833
-5.62685012817383
-3.43333220481873
-4.38703584671021
-15.1638841629028
-33.1888771057129
-46.8268356323242
-46.6360969543457
-36.5268402099609
-23.8425846099854
-5.91296100616455
17.8342533111572
31.2814712524414
24.5101776123047
9.06018257141113
-4.00555419921875
-12.0166625976563
-20.1231422424316
-21.2675857543945
-2.38425850868225
28.2296199798584
57.9851684570313
75.3425674438477
78.9666442871094
76.7731246948242
65.0425720214844
49.9740562438965
51.6907234191895
61.4184989929199
70.9555358886719
92.2231216430664
114.062927246094
122.264778137207
127.414772033691
129.703659057617
122.550888061523
116.161071777344
117.973114013672
127.700881958008
146.774948120117
166.325866699219
179.296234130859
188.0703125
188.356414794922
184.827713012695
176.721237182617
162.797164916992
155.262908935547
154.595321655273
161.271240234375
174.146240234375
179.48698425293
173.383270263672
165.562911987305
169.759201049805
172.524948120117
152.974029541016
133.899963378906
126.556442260742
118.831443786621
118.163848876953
121.597183227539
121.69255065918
121.787925720215
111.487930297852
88.4083023071289
66.3777542114258
51.9768333435059
35.7638778686523
13.8286991119385
5.53147983551025
10.5861072540283
7.15277528762817
-2.47962880134583
-10.6814785003662
-20.3138828277588
-34.3333206176758
-48.734245300293
-53.5027618408203
-54.5518341064453
-61.2277565002441
-61.7999801635742
-58.5573883056641
-67.5222015380859
-76.1055297851563
-80.3971939086914
-92.986083984375
-101.37866973877
-105.479598999023
-111.201812744141
-107.291633605957
-104.049041748047
-111.774040222168
-118.640701293945
-121.883293151855
-129.703659057617
-139.717544555664
-143.723098754883
-142.960144042969
-147.061065673828
-155.739761352539
-158.696243286133
-154.499954223633
-146.298095703125
-137.905517578125
-138.95458984375
-142.101806640625
-136.284210205078
-133.804580688477
-137.905517578125
-140.575881958008
-141.052734375
-140.861999511719
-140.289764404297
-140.766616821289
-141.624954223633
-136.474960327148
-123.695327758789
-114.444404602051
-115.207366943359
-117.019409179688
-115.874961853027
-113.586074829102
-107.86385345459
-104.525894165039
-100.043487548828
-91.3647842407227
-87.7407150268555
-84.5934906005859
-81.9231185913086
-87.2638626098633
-90.3157119750977
-88.9805297851563
-89.5527496337891
-94.2258987426758
-100.043487548828
-94.416633605957
-79.6342315673828
-71.3370132446289
-71.2416458129883
-71.9092330932617
-69.2388687133789
-62.0860900878906
-59.9879455566406
-63.6120147705078
-56.5546112060547
-49.6879463195801
-54.9333152770996
-46.9222068786621
-27.1805477142334
-20.0277709960938
-16.8805503845215
-12.9703664779663
-16.6898097991943
-21.839807510376
-19.5509204864502
-15.8314762115479
-15.9268465042114
-12.6842555999756
-3.91018390655518
-4.57777643203735
-12.0166625976563
-11.7305517196655
-15.35462474823
-22.5074005126953
-19.8370304107666
-17.2620315551758
-14.7824029922485
-5.05462789535522
5.1499981880188
12.4935140609741
12.4935140609741
7.34351634979248
4.10092449188232
-0.762962698936462
-3.43333220481873
-1.04907369613647
4.86388731002808
15.6407356262207
22.3166599273682
23.7472152709961
24.7009181976318
25.7499923706055
26.1314735412598
20.5999927520752
14.0194396972656
10.7768487930298
14.3055505752563
25.2731399536133
30.70924949646
30.2323970794678
30.8999900817871
35.0009155273438
38.8157272338867
33.761100769043
26.226842880249
25.6546211242676
31.0907306671143
33.4749908447266
36.0499877929688
49.9740562438965
60.274055480957
60.9416465759277
61.0370178222656
56.6499824523926
49.2110939025879
39.1018409729004
28.0388793945313
24.5101776123047
32.9027671813965
45.1101722717285
48.734245300293
53.9796104431152
62.3722038269043
62.0860900878906
56.936092376709
52.2629470825195
48.066650390625
47.3036880493164
46.9222068786621
45.1101722717285
49.4018363952637
55.9823913574219
55.4101676940918
53.7888717651367
52.9305381774902
51.8814659118652
55.219425201416
57.8897972106934
58.1759071350098
58.652759552002
53.121280670166
46.0638732910156
48.6388740539551
54.0749816894531
53.0259094238281
50.4509086608887
54.3610954284668
58.4620170593262
55.9823913574219
51.404613494873
50.4509086608887
56.0777587890625
54.4564628601074
38.148136138916
34.3333206176758
40.7231369018555
32.3305435180664
26.5129547119141
30.8046188354492
24.5101776123047
18.9786968231201
24.4148063659668
33.3796195983887
38.9110984802246
29.9462871551514
17.2620315551758
16.7851791381836
20.6953639984131
17.1666603088379
10.3953666687012
8.48795986175537
9.82314491271973
8.58333015441895
3.43333220481873
-1.33518481254578
0.190740674734116
7.15277528762817
5.81759071350098
-2.00277709960938
-0.9537034034729
4.67314672470093
12.2074031829834
20.8861045837402
25.177770614624
23.3657341003418
16.5944385528564
16.30832862854
22.2212886810303
25.2731399536133
27.4666576385498
25.177770614624
15.2592544555664
6.77129411697388
7.72499752044678
12.1120328903198
16.2129573822021
20.1231422424316
23.9379558563232
32.5212860107422
37.1944313049316
31.9490642547607
25.0823993682861
15.35462474823
10.6814785003662
13.5425882339478
13.3518476486206
15.7361059188843
17.8342533111572
13.7333288192749
15.2592544555664
25.3685111999512
30.8046188354492
34.5240631103516
39.6740608215332
34.810173034668
26.4175834655762
27.0851764678955
24.891658782959
11.3490705490112
4.7685170173645
10.4907369613647
12.3981437683105
10.4907369613647
12.6842555999756
14.2101802825928
12.6842555999756
10.4907369613647
16.1175880432129
22.0305480957031
16.8805503845215
8.29721927642822
-1.9074068069458
-7.34351634979248
-6.58055353164673
-11.7305517196655
-22.9842510223389
-36.9083213806152
-49.0203552246094
-58.652759552002
-77.9175643920898
-106.814781188965
-140.957366943359
-192.171234130859
-241.57307434082
-281.247131347656
-356.97119140625
-446.905426025391
-469.412811279297
-400.841552734375
-272.949920654297
-147.34716796875
32.2351760864258
288.876770019531
382.625793457031
332.747100830078
328.836944580078
323.496185302734
400.555419921875
598.544250488281
736.449768066406
733.874755859375
589.388671875
384.437835693359
246.818435668945
196.65364074707
183.301788330078
170.903656005859
132.087921142578
39.3879508972168
-87.7407150268555
-212.008270263672
-300.893432617188
-329.313781738281
-308.236938476563
-250.347137451172
-169.663833618164
-108.817558288574
-92.6999740600586
-115.779594421387
-164.132354736328
-219.065673828125
-261.410095214844
-270.851776123047
-241.954559326172
-187.688827514648
-126.842552185059
-81.0647888183594
-56.1731300354004
-63.8981285095215
-107.005523681641
-142.674026489258
-158.982360839844
-164.036987304688
-145.058288574219
-108.531448364258
-65.0425720214844
-30.1370277404785
-15.5453653335571
-13.3518476486206
-28.2296199798584
-55.7916488647461
-79.4434967041016
-93.6536712646484
-91.0786743164063
-68.9527587890625
-37.6712837219238
-14.8777732849121
-6.77129411697388
-5.05462789535522
-6.6759238243103
-16.1175880432129
-30.995361328125
-40.7231369018555
-39.7694320678711
-32.8073959350586
-22.125919342041
-11.2537002563477
-3.5287024974823
-0.572222054004669
-2.38425850868225
-8.29721927642822
-15.5453653335571
-16.6898097991943
-8.86944198608398
-5.24536848068237
-4.10092449188232
3.62407302856445
2.95648050308228
-2.8611102104187
-0.286111027002335
0.190740674734116
2.95648050308228
4.86388731002808
-1.52592539787292
-0.762962698936462
3.33796191215515
-3.43333220481873
-12.7796258926392
-18.2157344818115
-23.1749935150146
-23.6518440246582
-9.25092315673828
10.7768487930298
18.4064750671387
14.2101802825928
9.25092315673828
4.48240613937378
-9.06018257141113
-23.7472152709961
-24.2240657806396
-14.0194396972656
2.38425850868225
20.409252166748
26.7990646362305
20.9814739227295
15.9268465042114
10.0138854980469
-0.0953703373670578
-8.86944198608398
-14.1148099899292
-9.537034034729
1.62129580974579
15.2592544555664
31.3768424987793
39.9601707458496
36.431468963623
20.5046234130859
-0.572222054004669
-11.5398111343384
-14.2101802825928
-16.1175880432129
-10.6814785003662
3.147221326828
16.6898097991943
25.5592517852783
31.2814712524414
27.4666576385498
13.0657367706299
4.10092449188232
5.7222204208374
12.3981437683105
29.5648059844971
54.4564628601074
74.8657150268555
85.2610855102539
88.8851547241211
88.8851547241211
78.6805267333984
61.0370178222656
52.6444282531738
60.6555366516113
79.5388641357422
100.615707397461
122.264778137207
137.524032592773
141.434219360352
139.908294677734
125.507369995117
108.912925720215
104.525894165039
111.583297729492
133.995330810547
156.884216308594
170.236053466797
181.299011230469
187.307342529297
183.301788330078
174.432357788086
162.51106262207
148.396255493164
140.289764404297
142.578659057617
156.311981201172
175.1953125
179.010131835938
169.186981201172
160.41291809082
146.011993408203
127.605514526367
117.400886535645
108.722190856934
92.4138565063477
80.4925689697266
82.2092361450195
84.1166381835938
76.3916397094727
65.0425720214844
58.0805358886719
51.4999847412109
34.6194343566895
15.9268465042114
6.6759238243103
4.48240613937378
8.77407169342041
12.6842555999756
1.71666610240936
-10.3953666687012
-15.35462474823
-30.1370277404785
-39.864803314209
-44.5379486083984
-55.4101676940918
-53.3120193481445
-46.6360969543457
-53.7888717651367
-62.4675712585449
-63.7073860168457
-63.3259048461914
-68.9527587890625
-80.111083984375
-90.4110794067383
-96.5147857666016
-101.37866973877
-102.904594421387
-102.61848449707
-108.531448364258
-114.539779663086
-118.44995880127
-124.553665161133
-126.937919616699
-124.553665161133
-124.839775085449
-131.134216308594
-138.096252441406
-138.191619873047
-134.186065673828
-133.327728271484
-137.619400024414
-139.908294677734
-132.374038696289
-131.515701293945
-140.194396972656
-137.047180175781
-133.518478393555
-139.049957275391
-139.336059570313
-135.807357788086
-130.752731323242
-127.224029541016
-126.07958984375
-118.926811218262
-111.201812744141
-105.479598999023
-105.86107635498
-113.967559814453
-114.34903717041
-109.580520629883
-111.678665161133
-115.302742004395
-113.586074829102
-108.054595947266
-103.667556762695
-101.664779663086
-98.4221878051758
-92.7953414916992
-90.9833068847656
-91.8416366577148
-91.0786743164063
-92.7953414916992
-92.8907089233398
-83.3536758422852
-74.4842376708984
-71.0509033203125
-67.3314590454102
-71.6231231689453
-76.4870147705078
-75.247200012207
-77.6314544677734
-76.8684921264648
-68.7620162963867
-58.3666496276855
-46.0638732910156
-37.8620262145996
-38.3388748168945
-41.0092468261719
-41.962947845459
-44.3472061157227
-42.7259140014648
-29.1833248138428
-14.8777732849121
-7.34351634979248
-2.8611102104187
-2.38425850868225
-3.91018390655518
-3.43333220481873
-6.48518323898315
-15.1638841629028
-18.3111057281494
-13.0657367706299
-11.5398111343384
-13.256477355957
-6.96203470230103
-1.04907369613647
-0.286111027002335
-2.47962880134583
-2.28888821601868
2.76573991775513
3.147221326828
3.33796191215515
8.0111083984375
15.35462474823
28.0388793945313
36.5268402099609
33.5703582763672
31.3768424987793
34.6194343566895
28.4203605651855
22.5074005126953
23.8425846099854
20.1231422424316
21.2675857543945
28.3249912261963
36.7175827026367
44.4425773620605
41.4860992431641
34.810173034668
28.6111011505127
18.2157344818115
10.8722190856934
13.4472179412842
16.7851791381836
18.2157344818115
27.7527694702148
36.7175827026367
34.5240631103516
29.3740653991699
30.6138782501221
30.5185089111328
27.7527694702148
37.6712837219238
45.9685020446777
42.630542755127
47.8759117126465
56.4592399597168
61.323127746582
61.0370178222656
50.0694274902344
39.3879508972168
34.1425819396973
28.7064723968506
31.9490642547607
47.2083168029785
54.9333152770996
54.9333152770996
64.2796096801758
71.4323883056641
64.0888671875
57.0314636230469
52.3583183288574
47.7805404663086
48.066650390625
49.8786888122559
53.6935005187988
57.9851684570313
59.2249794006348
62.4675712585449
63.4212760925293
61.7999801635742
61.7999801635742
60.6555366516113
56.1731300354004
50.6416511535645
47.6851692199707
50.832389831543
51.7860946655273
42.1536903381348
34.5240631103516
39.197208404541
40.0555419921875
33.3796195983887
36.431468963623
45.9685020446777
45.4916534423828
34.2379531860352
24.2240657806396
26.8944358825684
32.9027671813965
32.5212860107422
33.2842483520508
36.5268402099609
35.382396697998
32.04443359375
32.9027671813965
36.5268402099609
41.3907279968262
46.0638732910156
48.4481315612793
51.0231323242188
47.3990592956543
36.2407302856445
31.2814712524414
31.2814712524414
30.4231376647949
29.278694152832
28.8972129821777
34.4286918640137
31.3768424987793
16.8805503845215
18.2157344818115
26.226842880249
15.9268465042114
10.6814785003662
22.4120292663574
24.4148063659668
16.8805503845215
13.7333288192749
10.2999963760376
7.72499752044678
11.5398111343384
16.7851791381836
17.738883972168
17.1666603088379
12.7796258926392
5.34073925018311
4.86388731002808
9.44166374206543
12.7796258926392
13.6379585266113
8.77407169342041
-1.04907369613647
-8.48795986175537
-8.20184898376465
-2.1935179233551
1.14444410800934
1.14444410800934
0.9537034034729
-4.10092449188232
-6.19907188415527
1.33518481254578
5.34073925018311
9.537034034729
18.787956237793
24.2240657806396
26.0361022949219
25.4638805389404
18.0249938964844
12.6842555999756
14.7824029922485
9.72777462005615
1.62129580974579
1.23981440067291
7.0574049949646
11.3490705490112
7.24814605712891
6.48518323898315
8.10647869110107
4.67314672470093
3.91018390655518
8.3925895690918
13.4472179412842
16.6898097991943
12.0166625976563
6.19907188415527
6.19907188415527
-0.381481349468231
-7.82036781311035
-9.06018257141113
-10.204626083374
-7.24814605712891
-2.5749990940094
-0.47685170173645
1.81203651428223
2.00277709960938
-3.05185079574585
-11.2537002563477
-17.1666603088379
-16.30832862854
-14.5916624069214
-14.9731435775757
-11.8259220123291
-8.48795986175537
-10.1092557907104
-9.44166374206543
-8.48795986175537
-17.4527721405029
-20.7907333374023
-11.8259220123291
-4.86388731002808
-4.1962947845459
-9.63240432739258
-17.8342533111572
-27.8481388092041
-42.4398002624512
-54.2657241821289
-60.9416465759277
-80.4925689697266
-109.771263122559
-138.85920715332
-192.552719116211
-262.173065185547
-321.111938476563
-387.489685058594
-474.3720703125
-539.414611816406
-511.471130371094
-389.397094726563
-251.491592407227
-123.504592895508
93.7490463256836
296.792510986328
296.411010742188
287.636932373047
348.578582763672
358.687835693359
446.714660644531
644.703491210938
784.707153320313
729.773864746094
502.887786865234
323.496185302734
272.186950683594
255.401763916016
238.521224975586
202.757339477539
124.362922668457
4.95925760269165
-132.087921142578
-249.393432617188
-313.386932373047
-311.574890136719
-257.690643310547
-173.764755249023
-92.7953414916992
-54.6472053527832
-64.5657196044922
-107.196258544922
-169.473098754883
-224.50178527832
-251.396209716797
-244.911026000977
-204.664749145508
-138.573104858398
-68.6666412353516
-28.9925842285156
-28.2296199798584
-53.9796104431152
-95.2749710083008
-135.235137939453
-155.262908935547
-144.295318603516
-113.490707397461
-76.7731246948242
-40.7231369018555
-17.357400894165
-9.25092315673828
-21.7444381713867
-54.170352935791
-84.7842330932617
-101.664779663086
-102.141632080078
-88.9805297851563
-70.5740509033203
-43.7749862670898
-15.8314762115479
-5.1499981880188
-12.3981437683105
-27.3712882995605
-39.0064697265625
-42.7259140014648
-42.2490615844727
-35.7638778686523
-24.2240657806396
-12.588885307312
-3.91018390655518
0.190740674734116
-0.381481349468231
-0.9537034034729
2.76573991775513
2.8611102104187
-1.43055510520935
-1.9074068069458
5.62685012817383
14.2101802825928
17.357400894165
17.1666603088379
12.2074031829834
10.1092557907104
14.4962921142578
14.8777732849121
12.1120328903198
11.1583299636841
13.4472179412842
13.0657367706299
-0.190740674734116
-11.5398111343384
-7.82036781311035
-1.52592539787292
6.48518323898315
15.7361059188843
18.6925868988037
16.4990692138672
7.24814605712891
-3.24259161949158
-4.29166507720947
-5.05462789535522
-13.6379585266113
-15.2592544555664
-2.1935179233551
11.3490705490112
21.2675857543945
25.6546211242676
22.6027698516846
13.3518476486206
-7.72499752044678
-23.4611034393311
-22.9842510223389
-24.891658782959
-23.3657341003418
-8.86944198608398
4.1962947845459
11.0629596710205
13.8286991119385
14.9731435775757
7.6296272277832
-6.00833129882813
-12.9703664779663
-16.4990692138672
-11.2537002563477
10.1092557907104
35.7638778686523
53.6935005187988
61.323127746582
59.701831817627
54.2657241821289
38.4342460632324
14.4962921142578
8.0111083984375
18.3111057281494
39.4833221435547
66.5684967041016
80.9694213867188
83.925895690918
86.8823776245117
77.8221969604492
54.3610954284668
44.251838684082
48.1620216369629
52.8351669311523
73.5305328369141
105.956443786621
129.512924194336
150.589767456055
161.080505371094
149.159210205078
134.853652954102
130.657363891602
133.709213256836
140.480514526367
149.445327758789
165.467544555664
183.015686035156
186.544387817383
179.677719116211
170.80827331543
162.892547607422
160.985137939453
155.167541503906
146.107360839844
152.306427001953
168.80549621582
183.68327331543
194.46012878418
194.36474609375
179.48698425293
157.361053466797
140.385147094727
129.703659057617
117.877738952637
113.967559814453
121.215698242188
120.929588317871
119.403663635254
121.215698242188
105.288856506348
82.3999710083008
62.0860900878906
42.2490615844727
37.1944313049316
36.0499877929688
27.5620288848877
17.8342533111572
14.687032699585
10.3953666687012
-5.1499981880188
-18.5972156524658
-28.8018417358398
-47.4944305419922
-63.5166473388672
-67.1407165527344
-67.1407165527344
-69.1434936523438
-68.9527587890625
-70.8601608276367
-78.2990493774414
-89.4573822021484
-100.806449890137
-103.381446838379
-105.098114013672
-111.964782714844
-111.678665161133
-107.577743530273
-111.583297729492
-123.027740478516
-134.281433105469
-138.95458984375
-140.003662109375
-146.488845825195
-153.164764404297
-150.685134887695
-148.110137939453
-147.728652954102
-144.104583740234
-148.968475341797
-161.175872802734
-162.701797485352
-159.745315551758
-156.216613769531
-152.401809692383
-160.317535400391
-165.086059570313
-159.077728271484
-155.644393920898
-151.257354736328
-145.2490234375
-147.156433105469
-152.401809692383
-145.535140991211
-133.327728271484
-130.27587890625
-128.463851928711
-127.224029541016
-129.036071777344
-129.703659057617
-133.041625976563
-130.943481445313
-118.73607635498
-113.109222412109
-118.545333862305
-119.68977355957
-115.207366943359
-117.49626159668
-121.024963378906
-115.111999511719
-106.719413757324
-98.899040222168
-89.6481170654297
-81.3508987426758
-73.3397903442383
-64.756462097168
-57.6990547180176
-53.121280670166
-51.6907234191895
-54.2657241821289
-55.4101676940918
-51.5953521728516
-47.5897979736328
-40.8185043334961
-28.6111011505127
-17.4527721405029
-12.6842555999756
-11.0629596710205
-10.9675893783569
-11.7305517196655
-10.8722190856934
-13.4472179412842
-12.0166625976563
-3.8148136138916
1.04907369613647
5.62685012817383
10.0138854980469
13.256477355957
17.4527721405029
13.6379585266113
-2.28888821601868
-11.3490705490112
-2.5749990940094
5.81759071350098
8.10647869110107
18.4064750671387
32.5212860107422
31.9490642547607
18.1203651428223
8.86944198608398
4.10092449188232
2.28888821601868
6.58055353164673
7.53425693511963
11.5398111343384
22.125919342041
24.7962875366211
17.9296245574951
11.635181427002
9.9185152053833
5.43610954284668
0.190740674734116
4.10092449188232
5.34073925018311
1.14444410800934
8.86944198608398
24.0333251953125
30.0416564941406
32.9981384277344
34.810173034668
29.5648059844971
28.0388793945313
24.4148063659668
20.3138828277588
32.4259147644043
45.2055397033691
48.4481315612793
45.5870208740234
34.1425819396973
24.891658782959
20.9814739227295
17.4527721405029
18.5018463134766
22.6981410980225
29.0879535675049
37.0036926269531
39.4833221435547
41.0092468261719
44.5379486083984
41.2953567504883
36.5268402099609
37.4805450439453
36.5268402099609
35.0009155273438
38.4342460632324
45.6823921203613
47.9712791442871
47.3036880493164
52.453685760498
56.8407211303711
58.7481307983398
61.7046089172363
62.0860900878906
60.7509078979492
60.6555366516113
63.7073860168457
62.8490524291992
61.323127746582
68.9527587890625
68.8573837280273
54.9333152770996
49.9740562438965
50.5462799072266
47.8759117126465
51.4999847412109
55.4101676940918
50.355541229248
46.4453544616699
46.7314682006836
44.6333198547363
41.1999855041504
35.7638778686523
25.8453617095947
16.2129573822021
15.9268465042114
20.8861045837402
22.7935104370117
22.8888816833496
24.1286964416504
27.0851764678955
27.4666576385498
33.5703582763672
40.7231369018555
33.2842483520508
27.0851764678955
30.4231376647949
33.5703582763672
41.2953567504883
47.5897979736328
39.864803314209
32.04443359375
28.3249912261963
18.9786968231201
14.8777732849121
15.2592544555664
15.4499950408936
19.8370304107666
17.8342533111572
10.4907369613647
8.0111083984375
3.71944332122803
0.9537034034729
11.3490705490112
19.074068069458
15.6407356262207
15.35462474823
19.074068069458
22.8888816833496
22.4120292663574
15.8314762115479
14.7824029922485
17.357400894165
12.9703664779663
9.34629344940186
12.8749961853027
12.3981437683105
7.72499752044678
8.58333015441895
4.38703584671021
-5.43610954284668
-2.67036962509155
5.1499981880188
7.15277528762817
7.91573810577393
6.6759238243103
4.57777643203735
2.95648050308228
3.43333220481873
3.147221326828
-4.00555419921875
-10.4907369613647
-10.7768487930298
-15.0685138702393
-26.0361022949219
-29.9462871551514
-23.2703628540039
-17.9296245574951
-15.2592544555664
-13.4472179412842
-16.6898097991943
-14.4962921142578
-9.63240432739258
-15.2592544555664
-9.82314491271973
5.7222204208374
7.15277528762817
7.43888664245605
9.537034034729
9.9185152053833
17.8342533111572
22.2212886810303
19.8370304107666
16.2129573822021
16.022216796875
22.9842510223389
25.8453617095947
22.6981410980225
15.0685138702393
8.3925895690918
15.8314762115479
24.891658782959
25.8453617095947
25.6546211242676
20.0277709960938
16.30832862854
21.6490669250488
22.9842510223389
11.8259220123291
-2.38425850868225
-10.8722190856934
-12.9703664779663
-12.2074031829834
-7.53425693511963
1.43055510520935
4.57777643203735
1.81203651428223
0.286111027002335
-0.9537034034729
0.381481349468231
3.24259161949158
2.09814739227295
-1.33518481254578
-0.47685170173645
7.53425693511963
14.7824029922485
12.9703664779663
4.10092449188232
-2.95648050308228
-3.24259161949158
-2.1935179233551
-4.29166507720947
-4.86388731002808
-0.667592406272888
1.33518481254578
0.0953703373670578
-1.81203651428223
-8.29721927642822
-20.2185115814209
-27.1805477142334
-25.6546211242676
-39.3879508972168
-68.8573837280273
-90.3157119750977
-131.324951171875
-203.329559326172
-266.369354248047
-336.275817871094
-433.93505859375
-504.509094238281
-490.775756835938
-391.018402099609
-258.072143554688
-123.599960327148
91.8416366577148
301.561004638672
310.239715576172
280.961029052734
328.169342041016
352.393402099609
453.581329345703
656.338684082031
791.859924316406
745.128479003906
541.512817382813
359.355438232422
294.885101318359
278.290649414063
261.410095214844
227.458267211914
151.829574584961
33.6657295227051
-107.387001037598
-230.605484008789
-289.067504882813
-284.489715576172
-237.090667724609
-159.649948120117
-84.0212707519531
-47.017578125
-52.0722045898438
-90.9833068847656
-155.83512878418
-214.011047363281
-236.613815307617
-226.4091796875
-189.310119628906
-127.986999511719
-68.1897964477539
-39.2925796508789
-30.2323970794678
-45.3962821960449
-97.3731155395508
-147.061065673828
-169.568466186523
-168.233276367188
-140.194396972656
-101.283302307129
-65.7101669311523
-32.3305435180664
-17.8342533111572
-31.2814712524414
-61.99072265625
-97.0870056152344
-112.441627502441
-103.667556762695
-91.4601593017578
-75.3425674438477
-42.5351715087891
-13.3518476486206
-9.25092315673828
-21.6490669250488
-41.962947845459
-60.7509078979492
-71.2416458129883
-75.9147872924805
-70.0018310546875
-56.3638725280762
-41.2953567504883
-26.3222141265869
-21.839807510376
-27.943510055542
-33.8564720153809
-36.3360977172852
-35.6685066223145
-30.8999900817871
-29.1833248138428
-31.7583236694336
-28.8018417358398
-25.9407329559326
-24.9870281219482
-18.5018463134766
-15.8314762115479
-19.074068069458
-25.177770614624
-27.5620288848877
-18.5018463134766
-14.7824029922485
-18.5972156524658
-19.1694374084473
-23.2703628540039
-21.7444381713867
-7.34351634979248
4.95925760269165
14.2101802825928
22.3166599273682
19.9324016571045
13.7333288192749
6.29444265365601
-12.3981437683105
-28.0388793945313
-28.4203605651855
-21.3629570007324
-9.44166374206543
3.8148136138916
21.6490669250488
38.148136138916
35.0962867736816
21.4583263397217
13.3518476486206
2.00277709960938
-6.1037015914917
-1.52592539787292
4.1962947845459
19.7416610717773
44.9194297790527
53.9796104431152
47.3036880493164
35.5731353759766
12.9703664779663
-8.0111083984375
-13.256477355957
-12.7796258926392
-7.24814605712891
6.00833129882813
24.4148063659668
40.1509132385254
41.1046180725098
37.3851737976074
29.9462871551514
12.8749961853027
2.5749990940094
-1.23981440067291
0.381481349468231
20.5046234130859
41.6768379211426
51.9768333435059
57.5083160400391
58.3666496276855
58.4620170593262
50.355541229248
38.0527648925781
42.1536903381348
57.2222023010254
71.7184982299805
90.9833068847656
114.34903717041
127.319404602051
126.365699768066
121.597183227539
112.155517578125
103.190704345703
107.196258544922
114.34903717041
121.501815795898
139.336059570313
155.072174072266
162.51106262207
170.617538452148
171.094390869141
161.080505371094
152.115692138672
144.867553710938
140.575881958008
147.251800537109
164.51383972168
185.87678527832
200.277709960938
196.462905883789
178.724014282227
162.987915039063
147.34716796875
129.703659057617
119.403663635254
113.109222412109
103.095336914063
98.5175628662109
104.525894165039
109.771263122559
108.531448364258
98.0407104492188
73.9120101928711
49.0203552246094
35.7638778686523
28.9925842285156
27.943510055542
29.5648059844971
27.2759170532227
22.4120292663574
10.3953666687012
-12.4935140609741
-35.8592491149902
-53.4073905944824
-65.4240493774414
-71.0509033203125
-76.296272277832
-80.9694213867188
-77.2499771118164
-77.7268295288086
-87.2638626098633
-95.1795959472656
-105.574966430664
-119.308296203613
-128.749954223633
-131.420333862305
-125.316627502441
-118.640701293945
-117.973114013672
-116.065704345703
-115.398109436035
-118.640701293945
-121.215698242188
-122.169403076172
-122.646255493164
-123.504592895508
-125.984222412109
-130.085144042969
-132.374038696289
-134.853652954102
-142.578659057617
-146.393478393555
-142.960144042969
-142.101806640625
-141.624954223633
-137.333282470703
-135.044403076172
-135.425888061523
-135.807357788086
-134.758285522461
-133.136993408203
-130.46662902832
-124.076812744141
-118.545333862305
-115.302742004395
-110.248115539551
-106.051818847656
-104.144409179688
-102.332374572754
-103.953666687012
-110.248115539551
-119.022186279297
-124.553665161133
-121.406440734863
-111.678665161133
-98.8036727905273
-87.8360824584961
-81.16015625
-76.296272277832
-76.3916397094727
-77.1546020507813
-72.8629379272461
-70.0971984863281
-61.0370178222656
-42.8212814331055
-30.8046188354492
-29.4694347381592
-35.382396697998
-39.864803314209
-41.3907279968262
-45.2055397033691
-44.5379486083984
-38.8157272338867
-35.0962867736816
-30.2323970794678
-20.5046234130859
-14.1148099899292
-16.30832862854
-19.7416610717773
-24.0333251953125
-31.2814712524414
-38.8157272338867
-43.5842437744141
-33.5703582763672
-18.1203651428223
-16.1175880432129
-17.0712909698486
-14.8777732849121
-10.5861072540283
-12.7796258926392
-23.6518440246582
-25.5592517852783
-22.3166599273682
-19.074068069458
-15.5453653335571
-13.256477355957
-2.67036962509155
9.537034034729
5.91296100616455
-7.82036781311035
-12.2074031829834
-7.43888664245605
-8.3925895690918
-9.537034034729
-0.0953703373670578
7.53425693511963
14.8777732849121
24.0333251953125
18.4064750671387
9.9185152053833
8.67870044708252
11.2537002563477
19.7416610717773
22.2212886810303
21.6490669250488
28.8018417358398
35.5731353759766
37.3851737976074
34.6194343566895
26.7036952972412
13.6379585266113
6.6759238243103
8.96481227874756
5.81759071350098
8.58333015441895
23.0796222686768
29.9462871551514
35.382396697998
45.0148010253906
45.4916534423828
38.8157272338867
38.2435073852539
42.1536903381348
45.300910949707
50.6416511535645
54.5518341064453
54.5518341064453
57.5083160400391
62.4675712585449
57.3175735473633
46.2546157836914
43.9657249450684
46.9222068786621
50.1647987365723
63.6120147705078
77.0592346191406
71.4323883056641
66.0916442871094
69.9064559936523
65.6147918701172
58.3666496276855
56.0777587890625
53.7888717651367
51.6907234191895
54.9333152770996
65.4240493774414
70.2879409790039
61.4184989929199
53.7888717651367
53.8842430114746
56.0777587890625
53.121280670166
40.913875579834
34.6194343566895
41.7722091674805
52.1675758361816
55.7916488647461
56.5546112060547
55.1240577697754
45.300910949707
44.8240585327148
54.9333152770996
53.7888717651367
45.9685020446777
48.1620216369629
54.5518341064453
53.5027618408203
51.404613494873
50.0694274902344
47.6851692199707
46.7314682006836
43.1073951721191
41.1046180725098
46.7314682006836
42.630542755127
32.04443359375
38.3388748168945
42.7259140014648
36.431468963623
33.761100769043
32.7120246887207
30.1370277404785
27.657398223877
28.7064723968506
27.4666576385498
20.8861045837402
19.9324016571045
22.7935104370117
23.6518440246582
21.4583263397217
15.4499950408936
12.302773475647
12.9703664779663
8.67870044708252
4.00555419921875
3.8148136138916
2.09814739227295
2.8611102104187
10.204626083374
10.7768487930298
3.43333220481873
3.71944332122803
10.2999963760376
15.7361059188843
19.360179901123
15.0685138702393
2.5749990940094
-7.43888664245605
-6.38981294631958
2.5749990940094
7.0574049949646
7.72499752044678
8.0111083984375
9.34629344940186
14.5916624069214
12.3981437683105
8.77407169342041
12.3981437683105
8.96481227874756
0.9537034034729
1.33518481254578
3.24259161949158
2.95648050308228
8.3925895690918
10.5861072540283
6.48518323898315
6.6759238243103
10.4907369613647
10.1092557907104
9.82314491271973
9.537034034729
7.34351634979248
12.7796258926392
20.7907333374023
14.3055505752563
7.6296272277832
16.4990692138672
22.125919342041
20.5046234130859
19.8370304107666
8.96481227874756
-1.62129580974579
8.10647869110107
16.30832862854
9.82314491271973
6.86666440963745
3.91018390655518
-1.04907369613647
-5.05462789535522
-11.3490705490112
-12.2074031829834
-15.2592544555664
-25.3685111999512
-24.9870281219482
-14.3055505752563
-12.8749961853027
-22.125919342041
-25.7499923706055
-23.2703628540039
-20.0277709960938
-16.6898097991943
-20.0277709960938
-28.5157318115234
-31.0907306671143
-31.5675830841064
-40.913875579834
-56.4592399597168
-75.9147872924805
-96.5147857666016
-118.163848876953
-161.461990356445
-209.147155761719
-228.888809204102
-280.865661621094
-391.495239257813
-453.295227050781
-428.975799560547
-365.36376953125
-266.846221923828
-111.774040222168
140.766616821289
323.877685546875
272.949920654297
189.405502319336
186.925872802734
264.652679443359
462.736877441406
640.411804199219
703.070129394531
646.229431152344
477.710021972656
312.719329833984
229.365661621094
206.667526245117
198.75178527832
174.241607666016
103.095336914063
-13.6379585266113
-133.136993408203
-234.515670776367
-296.887878417969
-299.272125244141
-252.445281982422
-174.527725219727
-98.7083053588867
-54.0749816894531
-50.6416511535645
-90.6971969604492
-154.595321655273
-215.250854492188
-245.101776123047
-229.079559326172
-181.489761352539
-118.640701293945
-57.7944259643555
-21.1722145080566
-17.9296245574951
-45.2055397033691
-89.3620071411133
-129.131439208984
-150.494400024414
-150.685134887695
-126.651809692383
-84.7842330932617
-44.3472061157227
-12.8749961853027
1.14444410800934
-8.20184898376465
-31.3768424987793
-55.887020111084
-74.198127746582
-80.2064590454102
-63.9934997558594
-35.382396697998
-11.4444408416748
6.38981294631958
13.8286991119385
6.00833129882813
-10.4907369613647
-30.8046188354492
-50.832389831543
-57.2222023010254
-49.6879463195801
-36.1453590393066
-22.0305480957031
-14.1148099899292
-8.58333015441895
-8.67870044708252
-15.9268465042114
-15.7361059188843
-12.9703664779663
-15.2592544555664
-15.1638841629028
-12.2074031829834
-10.6814785003662
-8.67870044708252
-6.1037015914917
-6.29444265365601
-12.2074031829834
-16.4036979675293
-5.7222204208374
4.00555419921875
0.47685170173645
0.190740674734116
1.23981440067291
0.47685170173645
4.95925760269165
7.24814605712891
3.62407302856445
0.47685170173645
3.05185079574585
13.256477355957
21.0768451690674
22.4120292663574
16.1175880432129
-1.23981440067291
-19.4555492401123
-28.6111011505127
-24.4148063659668
-10.0138854980469
4.86388731002808
16.4036979675293
20.1231422424316
12.6842555999756
0.858333051204681
-15.1638841629028
-33.5703582763672
-40.8185043334961
-34.4286918640137
-25.9407329559326
-19.360179901123
-9.34629344940186
-2.76573991775513
2.1935179233551
6.48518323898315
-3.33796191215515
-18.5018463134766
-24.5101776123047
-18.6925868988037
-6.96203470230103
4.57777643203735
17.0712909698486
25.7499923706055
29.5648059844971
27.5620288848877
18.1203651428223
4.95925760269165
-6.58055353164673
-7.15277528762817
-0.762962698936462
13.0657367706299
40.1509132385254
61.4184989929199
69.8110885620117
75.247200012207
69.8110885620117
56.7453536987305
52.9305381774902
51.7860946655273
55.1240577697754
77.5360870361328
104.144409179688
123.123107910156
140.575881958008
145.916625976563
139.526809692383
132.850875854492
123.599960327148
116.924034118652
125.316627502441
143.818466186523
158.028656005859
174.909210205078
188.451797485352
186.162902832031
176.149017333984
163.274017333984
151.543472290039
143.341613769531
139.908294677734
148.205505371094
162.224945068359
172.811050415039
181.203643798828
180.345306396484
164.227722167969
143.627731323242
125.793479919434
113.013854980469
106.433296203613
104.716636657715
106.624038696289
106.910148620605
108.531448364258
107.577743530273
88.5036773681641
64.0888671875
48.734245300293
37.9573936462402
32.04443359375
31.3768424987793
30.6138782501221
25.9407329559326
24.891658782959
26.1314735412598
17.357400894165
0.667592406272888
-18.6925868988037
-37.8620262145996
-53.0259094238281
-60.9416465759277
-58.4620170593262
-55.0286865234375
-57.6990547180176
-58.7481307983398
-60.4647941589355
-71.1462707519531
-82.1138610839844
-89.4573822021484
-94.03515625
-91.0786743164063
-94.03515625
-107.100891113281
-114.730522155762
-121.120330810547
-124.458290100098
-120.83422088623
-129.036071777344
-138.95458984375
-137.905517578125
-139.240692138672
-141.148101806641
-139.908294677734
-141.148101806641
-145.916625976563
-148.968475341797
-149.159210205078
-145.344390869141
-137.810134887695
-132.46940612793
-127.605514526367
-124.649032592773
-123.790702819824
-120.452735900879
-117.877738952637
-118.831443786621
-119.403663635254
-116.828666687012
-113.299964904785
