Value(μV)
-14.048786218588
-8.84676827473808
-5.83241453500624
-5.99389862644303
-7.38556624754873
-7.67754028335409
-7.00296512064163
-7.66210575543653
-11.1114544138678
-16.0309633631603
-19.8646967513516
-21.8230067942563
-23.5268973227936
-26.562346821928
-30.1982407117532
-32.2563600811968
-31.9704485472861
-31.0533783451381
-31.5326401011978
-33.1609726966367
-33.7929912648605
-32.2478257718436
-29.9113620549356
-28.9723602963224
-29.6084361066997
-29.8302723303355
-28.1929955228247
-25.7790737777402
-24.7879581722287
-25.558134606712
-25.9800755264542
-24.1576701817089
-20.8728589777603
-18.6020602671709
-18.3457399289906
-18.4423500299512
-16.9488552809748
-14.4321417782637
-13.4043203348765
-15.050845958801
-17.5567621888265
-18.3301744822844
-17.2935872867569
-16.9293028418405
-18.9881291348483
-22.1974136172402
-24.0319310137821
-24.2140419617441
-25.2206194348759
-28.9797470845668
-34.0703518052789
-37.227933602079
-37.3123119860151
-36.5359049420539
-37.2765063427498
-38.6911265062879
-37.7432747675003
-33.4192249624756
-28.4971797143446
-26.2917233528572
-26.5125570294733
-25.8002250235165
-22.4268388831097
-18.9420916762779
-18.994809444255
-22.3066237788004
-24.5834029658395
-22.8756978721382
-19.4877784750693
-19.0071682068486
-22.0142595925189
-23.8559022435998
-20.6460248263612
-14.9675302602481
-13.4421204582899
-18.5799412196424
-25.1740703472629
-26.2687989079692
-21.4703718748566
-16.9724684125467
-17.2377904048459
-19.5052457202019
-19.0184915412922
-18.4169955820629
-27.9676954463923
-54.4551865551655
-92.358621578219
-130.17946495285
-166.075265811292
-213.053983024749
-284.245132390697
-373.041822522511
-451.476142798352
-490.363832943107
-479.072087579068
-423.305359487792
-327.19114954449
-186.962963452441
-9.00376006734446
170.184856570483
295.896603070172
339.983508217003
335.799333256604
359.273876587382
462.946216604925
622.255615432858
748.703788619655
762.189767341911
657.008221992201
502.158621322007
379.958629123888
322.561976868566
300.44044998433
262.24374863025
180.790282952143
65.9593094630146
-54.3291295216535
-156.27973842315
-225.842216298906
-253.944006857287
-237.008022453393
-184.749956828277
-122.533074994973
-79.7011087282403
-72.0971633724496
-94.7060807929434
-129.87020161107
-161.069855675501
-179.50932777123
-181.651164855488
-165.748831209114
-133.384468230176
-92.9490832183053
-58.3310614281024
-41.7234379724978
-46.473494348911
-65.857991153725
-87.7410641261894
-100.778916769592
-98.814522816662
-82.8727566002075
-60.6384987203218
-42.6332592566097
-35.9786539675257
-39.9190798944619
-47.3040418259766
-51.097290782854
-49.7436279053956
-46.3305680180689
-43.2860617795571
-39.1167589516725
-30.8132415368068
-18.5733466525642
-6.84770052927041
-0.365322371749215
0.192571654999185
-1.9034289651274
-3.24835349237465
-3.10843509205546
-2.53023492413623
-1.95110719025226
-0.829434027720495
0.634893223106886
0.751695597876008
-1.83223778932194
-6.00286248440391
-8.84779519979497
-8.706284745677
-6.94522450919864
-6.23150738819181
-7.42796205355928
-8.91786591295749
-9.00953873506424
-8.18632734190076
-8.3301965665785
-10.0741388213375
-11.8384404239854
-11.8179512316467
-10.2936201743965
-9.23969462288643
-9.74778564110696
-10.6094991849707
-9.84607017716666
-7.14572087542521
-4.07028559959703
-1.88009864235663
0.0711080890263478
3.23712932512643
7.53956484104595
10.8963290290551
11.3079711309937
8.90346608924999
5.44802626539477
2.09518930145852
-1.67539149853792
-6.68676998777756
-12.2409074541865
-16.3600213940237
-17.8461220351565
-17.5330517476012
-17.1867282650931
-17.5381446773797
-17.9178886650735
-17.7088550889014
-17.4314564102917
-17.916476075792
-18.7785147320491
-18.5124048905216
-16.4249201233233
-14.0239171195385
-13.8860707426799
-17.046683840262
-21.8210626881842
-25.3268173418212
-25.8862659803771
-23.7308800190194
-19.7320260014825
-14.1736946723081
-7.0734130486652
0.778082414162713
7.83486894152141
13.0605529782217
16.801597765858
20.0857209898605
23.261361209718
25.7738936425158
27.3327054444152
28.8289612472164
31.6664966797216
36.2818557852648
41.7466942231849
46.9738353605544
51.9876357761997
57.6733536696057
64.4265924193484
71.528997391967
78.0543807651811
84.0522110299539
90.3969002512136
97.4866035041532
104.526542424777
110.383639077934
114.947279958145
119.279371591153
124.419220736062
130.417283094441
136.773673382436
143.535543564977
151.443829432763
160.847846458519
170.825255186344
179.743483117922
186.635688134698
191.713023876898
195.484354345629
197.767520450974
197.945934975594
196.079925797526
193.275851806706
190.679378066586
188.319160849928
185.292100802646
181.063394588586
176.2069132081
171.651426401432
167.458307494876
162.751750216776
156.87074547897
150.175808508841
143.40294104234
136.414486864106
128.052187823274
117.390298617045
104.847583908482
91.7699908687396
79.0547771443207
66.5862069684866
54.1229042760559
42.318857223707
32.3726710647697
24.6461223752042
18.0371432700575
11.0010154006891
3.01765076662592
-5.26604960023417
-13.280391185286
-21.4624359222891
-30.6462920190416
-40.7639762104693
-50.6461680184149
-59.2774861678071
-66.9317791346401
-74.7241526301893
-83.137260783624
-91.3851146982719
-98.3803810795159
-104.013160599998
-109.102073947214
-114.156609630094
-118.640288447568
-121.729192547187
-123.563409010764
-125.323028471429
-127.985696883406
-131.326290845734
-134.383991937685
-136.723197221021
-138.851337596643
-141.34787395341
-143.976488163937
-146.01948613716
-147.376062504121
-148.899681475296
-151.442991898814
-154.801123362261
-157.896347796805
-159.92809500287
-160.980230370797
-161.365398478636
-160.722535145475
-158.224287487539
-153.719413216422
-148.280922632308
-143.307704687311
-139.197509412943
-135.210432877953
-130.642969749959
-125.768164984065
-121.348281561707
-117.440030521888
-113.171631479636
-107.89494973224
-102.261765400018
-97.7828174482454
-95.3263684904785
-94.355925262319
-93.7611020649502
-93.1330928916887
-92.8597782097148
-93.0375964517817
-92.7640083840894
-90.8453754810955
-87.0590517512368
-82.3506221950647
-77.7102980642799
-73.1539665143597
-68.0444603300401
-62.2185362984225
-56.380502228432
-51.2716022069311
-46.7847225635905
-42.248646030975
-37.5064567365468
-33.3167600165111
-30.4872287909399
-28.8366520951032
-27.3275925088218
-25.188375640067
-22.5727905772938
-19.9663393009505
-17.2416911279989
-13.7228164423872
-9.22494656561339
-4.66292160075011
-1.3219754522999
0.374765314775445
1.09056319912044
1.57467563011488
1.78555229749668
1.25731141334583
0.12473618365344
-0.677499147612991
-0.410451095867892
0.556548599688064
1.15899463222306
0.909885475623589
0.431123882046478
0.596721026579473
1.44148580344706
2.26266205273448
2.72804526120991
3.44709933681749
5.17621188242633
7.68048894832516
9.79631363982296
10.7033042880539
10.8230855144997
11.2206561820659
12.309933925585
13.5353033292663
14.3752711257616
15.2496367423941
17.0490819643852
19.8704153565412
22.656891108929
24.3057464873405
24.8871657787955
25.4468736578524
26.6828532893778
28.2176731505103
29.3573268689586
30.2400058560297
31.7658435806235
34.3439166373627
37.1171903257119
38.7617735129251
38.9192032188428
38.4814889446143
38.4188684067993
38.6983371227262
38.6591838630136
38.251229975876
38.401249653264
39.9549647913342
42.5697831865107
45.0430872723782
46.6962486054257
48.0548785406367
49.990983491372
52.4964185237915
54.6955452886863
56.0201089790814
56.9192779174573
58.1274511967678
59.4839094658424
59.94167783643
58.8355648414197
56.7797402808318
55.0132410995289
54.0370983616846
53.3035142251598
52.2969606833499
51.4770342613626
51.7426486737667
53.09868750314
54.3586430839835
54.4118396094953
53.5029916253464
52.8827257626848
53.2648366749097
54.0642439054964
54.3508212442589
54.1862535457843
54.5073269044731
55.6675634503658
56.5880592559375
55.7425276195052
52.8210353685094
48.9970351622836
45.491515175991
42.2898571530764
38.6020887555887
34.3320718428219
30.5077538948025
28.0486353468841
26.5080022750244
24.5140948513524
21.4144036392567
18.0334501712302
15.6023745074018
14.2962380348008
13.2793619052986
12.1074425684128
11.5111183110494
12.4314284850328
14.5699682654806
16.4443150701661
16.9872335778002
16.6661563318251
16.6879958882601
17.3515080341657
17.7151800116999
16.9817806819908
15.699005048577
15.1144474225741
15.5089362836286
15.7521114436248
14.7446808343006
12.8950570284291
11.682372112349
11.8568290762527
12.6242079021837
12.8469632854252
12.5951149556175
12.9074974003637
14.05428920618
14.6952235350098
13.2328721228407
9.737495512176
5.95395018930761
3.33336885564391
1.61349970669139
-0.239920747152162
-2.05387752273849
-2.18002882684854
0.552662805665992
5.16538508482606
9.40862592679866
12.1934228205272
14.515383931078
17.7201825243934
21.4023861878197
23.701758460362
23.6070522736098
22.2189214373007
21.2763019930341
20.8640437463503
19.3306318076658
15.5529849756539
10.5799463663348
6.4799072819527
3.89256067800794
1.4897537282506
-1.98755453980865
-5.87543308467392
-8.42207059758316
-9.19286014093807
-9.76501409240408
-11.6757516278888
-14.3000979496613
-15.5310520685221
-14.4554937356385
-12.5212227758752
-11.6351469686655
-11.720104904453
-11.0318019608838
-8.86037162873329
-6.95512400506287
-7.58532231349884
-10.6348905697258
-13.5713516235062
-14.4621874354643
-14.1744292698309
-14.8880440163997
-16.9060489537531
-18.0634605625728
-16.6316287078844
-13.8859177419647
-12.7829650710663
-14.2896053764516
-16.1384157847308
-15.7369946960335
-13.491828464931
-12.1662681100635
-13.0887671980084
-14.2715135315876
-13.0566905289497
-9.84920580380066
-7.87252774305667
-9.058392101457
-11.4221902085108
-11.4996540866607
-8.74742232733524
-6.07360576451784
-5.73105521316
-6.11246311846354
-3.97833919259289
0.664404573118178
3.73042882070806
1.86050139672448
-3.26120592495639
-7.05749575371632
-8.20635782250049
-10.5027211686846
-17.240669880617
-25.0089948530904
-25.6164655847615
-15.1168264886319
0.525392788064599
10.2989873708215
8.14932281510844
-3.42520911605587
-19.5042832052237
-39.7895140969614
-67.4574205914669
-102.598028900176
-140.962158806939
-181.344654815029
-231.483203921274
-301.630690333145
-390.002613739571
-476.470946463447
-533.123302708245
-540.728444090848
-493.697142367072
-392.347276866904
-239.409591846294
-51.6154532169908
128.675814557362
248.167675732358
284.536021503346
277.76507010495
309.368001816713
434.501377399243
625.182703000565
782.573893713008
814.482136509369
710.219247249966
545.276698675082
414.473460662942
357.667323225613
342.502681586144
308.845709911908
224.137270722507
100.573594942528
-28.0577608942268
-135.167029082582
-208.53848116623
-241.399973282064
-228.903384190992
-176.749184609564
-107.810649873227
-53.3819415689776
-34.928634014153
-53.8684026237738
-96.9727973578462
-147.735490012005
-191.293476442477
-213.316153821656
-202.614470997737
-160.239506920089
-104.74114241886
-63.1471911923733
-52.4010302541704
-68.2675147690991
-92.2768951658782
-108.788005933241
-114.880729577689
-115.575552611391
-113.345056755283
-105.019624176174
-88.0621883343078
-66.6976528326289
-49.8628549769726
-43.7182943340865
-47.4337526185768
-55.8370723863711
-64.2745370243397
-70.1093219260908
-71.3019113396416
-66.3305162562751
-56.4632843716856
-46.5562000573831
-41.6019837008858
-42.0944511560873
-43.755710043514
-42.3679782898893
-38.221961034335
-35.1005913459708
-35.3858822209745
-37.4059802818681
-37.9540114545757
-36.3251897694575
-34.6578097022725
-34.4955573119293
-34.3879048357119
-31.7319966084595
-26.3336511472941
-20.9423993731064
-18.0666821068182
-17.2178516627411
-16.0420399633233
-13.6567478937895
-11.7453220508653
-12.0872244586887
-13.9425487878734
-14.8191519989917
-13.6141568012057
-11.9967270747926
-12.2452464634534
-14.3835247513464
-16.2891530941421
-16.4949344935907
-15.9441171234321
-16.4767221981021
-18.1891729797801
-19.2347399593241
-18.3245853677571
-16.5953764494806
-16.3543838551349
-18.3124199108573
-20.8516736395828
-22.1691058345408
-22.4170393613426
-23.0951002992054
-24.6522482770104
-25.5963388236496
-24.3456219328317
-21.3877155907772
-18.8849449316724
-18.1961137947366
-18.4663998502008
-17.9923857072375
-16.4679484445942
-15.1855036633295
-15.0648060457036
-15.2449814059449
-14.1578464871864
-11.6673139927747
-9.44522207998636
-9.07832905056739
-10.3441328238006
-11.7938314984488
-12.7166014204763
-13.8214823439575
-15.8085311484251
-17.8901251148574
-18.395037644808
-16.7655162133783
-14.3213079851561
-12.7097374619587
-11.9636438506203
-10.5979161724939
-7.52921917764245
-3.28153097942313
1.03631899517669
5.51838330520277
11.555204106429
20.044963842772
30.0545138933958
39.7117488276933
48.2226220636998
56.469671139926
65.5191891858354
75.0605053393566
83.8029194339626
91.2155966721339
98.2191628224354
105.852874844186
113.664031253017
120.007346762794
124.011239847222
126.815935596104
130.577968872876
136.4845984891
144.110544161649
152.597456182616
161.85493366717
172.193850268738
183.0641281216
192.80038079312
199.893985821206
204.237389731302
206.805970707416
208.284880261106
208.460700581381
207.062684715415
204.734987960973
202.659201197046
201.225928737193
199.522339214264
196.394150176391
191.780251524004
186.650521610159
181.700767964664
176.558165658731
170.512460589312
163.711866580401
157.127473175942
151.253194820594
145.256134153414
137.77632920008
128.439689563709
118.197631072082
108.104535338166
98.1361326030523
87.5364650877616
76.1321502009093
64.78261366785
54.3141927979661
44.3445241337832
33.6086249406129
21.4606152550708
8.68181568123265
-3.39888000929129
-14.3182384865002
-24.6509030036035
-34.8517601638568
-44.4265789635008
-52.600791184131
-59.6023447533705
-66.788504287722
-75.314601015563
-84.9453809169033
-94.4523544533394
-103.029268153242
-110.915422507308
-118.536309032467
-125.446249744547
-130.587709284066
-133.589244142505
-135.393123198465
-137.32752163793
-139.73869285643
-141.861615744781
-143.013998986315
-143.539287906341
-144.336429313496
-145.699767494035
-147.055151398566
-147.922390651645
-148.767380740655
-150.543357915058
-153.459965667725
-156.55019130945
-158.580991601029
-159.145814580462
-158.626150385553
-157.259136412628
-154.701063216055
-150.712445223568
-145.978104370262
-141.81421656652
-138.976957747542
-137.021067244767
-134.995184016221
-132.560049198908
-130.123336741081
-127.945907395793
-125.563343428698
-122.416211155338
-118.884230174756
-116.258719497284
-115.502755118654
-116.247594178842
-117.240339126933
-117.653708078664
-117.624413646222
-117.454050566867
-116.677680386519
-114.353302406811
-110.260107627619
-105.416007884429
-101.137341051632
-97.7273978217856
-94.370335527347
-90.2845174160171
-85.6324756029353
-81.0944930136141
-76.806468871199
-72.1670139856139
-66.7986296541811
-61.3496319581789
-56.9818510166656
-54.1058818186233
-51.9376446064615
-49.4188717775857
-46.3182999231796
-43.1627722647069
-40.2300102787622
-37.0599836480643
-33.1946730759448
-29.1444689961216
-26.1943729958732
-25.1439662127594
-25.4882052697656
-26.0282216003036
-26.1138705574464
-25.9820408696951
-25.9013020716429
-25.4014697644709
-23.6977849158621
-20.7652124270086
-17.5895933194336
-15.1612105322975
-13.4201212985531
-11.4479215131983
-8.61487256780279
-5.21124682920075
-1.84062496757798
1.49394709273349
5.31833149114811
9.72407829101072
13.8691548177044
16.7313475245995
18.242187271604
19.3775268171591
21.0881624934203
23.4147570962323
25.8346877291616
28.2430642066159
31.161505042012
34.862178555554
38.6223877528157
41.2294465709699
42.2281157585917
42.3828132594095
42.7810512990164
43.7089705059267
44.6662372776096
45.361291970693
46.2570321941158
47.8917790077706
49.8992661388735
51.1252197185327
50.8317532020528
49.5307621931997
48.4094430478447
48.0734019214123
48.1486563978238
48.1124892426104
48.127245125312
48.7257693223726
49.8094775993779
50.4023218074553
49.6347321108885
47.7882155397154
46.0953016504219
45.5537053419517
46.2252824677092
47.7718662387924
50.3160145820561
54.3333884852395
59.6828586993815
65.1589935665821
69.3496334943571
71.856545128969
73.3894150315289
74.6503358576624
75.4648179514584
75.249080941013
74.0989509153271
72.9368529103214
72.4173650228711
72.0151832265712
70.5858904253627
67.802186263452
64.6767945753513
62.4902284297261
61.4572726679697
60.7792407987306
59.9208258066498
59.3723436112535
59.8738695518533
61.1502420206745
61.9055638651697
61.2072105345697
59.5520189704177
58.2628138505343
57.9714944823635
58.0740764605168
57.7388423205387
57.0353957865267
56.6663706745698
56.7102850873408
56.1531072735792
53.9673104466367
50.4248801698324
46.9512377366153
44.669278367515
43.4432625596734
42.5358488139743
41.8655298350352
42.1084456520634
43.5055514738173
45.0509131550721
45.3049128859227
43.9290214978319
42.014788217534
40.7741753660322
40.2446691208048
39.6039327346011
38.5565733305962
37.8617273759346
38.2613094232833
39.2649553778775
39.510980142037
38.3586238443366
36.6893667991493
35.8563652584526
36.1015249293127
36.4348180568033
36.0368010305593
35.2505441598894
34.8241692641719
34.4704686964651
32.8071997063107
28.9427367347335
23.7218783898197
18.9668551497013
15.6018907864957
13.0026478020639
10.3120940881779
7.87967975746992
6.83458917436469
7.33656562425827
7.91803911942726
6.99219080099678
4.7317768837547
2.90939693309693
2.83623632314475
3.97704113336245
4.94062770758629
5.44723612690429
6.60858294652813
9.12120199455873
11.8135886435248
12.6225299871706
10.9040825071751
8.15367541140901
6.18607101504728
5.08845456140946
3.53493892298538
0.940012326672818
-1.49341860856762
-2.28997811807917
-1.77650492365001
-1.87191285781534
-3.72588762557208
-6.24288572023729
-7.46436584746366
-7.06117613596647
-6.70169152768913
-7.83810295595682
-9.87587760118261
-11.1956285995889
-11.6617346617357
-13.1623160110495
-17.2656248291083
-22.9806126591506
-27.6481291906943
-29.9518719897526
-31.1957392972311
-33.2055659090588
-35.678638439251
-36.5904958369482
-35.189317191494
-33.5101682787812
-34.1401330029287
-36.9705180471245
-39.2330995733312
-38.9313604188299
-37.2300355366762
-36.6104311428694
-37.2370074457793
-36.553963897642
-32.9347312403388
-28.5749604412132
-27.4163963798184
-30.3875621484371
-34.1892556393275
-35.5885054327771
-35.8117900362006
-38.936718626092
-45.7544224989339
-50.9584391787591
-48.0261987735872
-36.5640224669937
-23.3217631008764
-15.5633873577588
-14.8566971388213
-18.5866861653134
-26.3893993860526
-42.3665647639154
-69.9036119553965
-106.449041879893
-146.328437126641
-188.761802488955
-239.988792084887
-304.796613232518
-376.653514478972
-438.651235517889
-474.202446788547
-473.710111900046
-429.461001205451
-329.771795603159
-168.966139633181
30.5518520358789
212.055245706922
315.706731490913
329.43933202318
310.002567554293
342.602305722589
466.197605665173
632.24147895999
739.887697088351
719.378352088144
588.193105777794
430.488357849369
323.481483206489
280.893570867449
259.553137877251
210.907017554658
122.183823608104
14.3246433565898
-87.1052448247023
-170.69040992679
-233.018225902828
-265.687280065618
-257.582677537212
-210.464685218942
-146.90772641449
-98.358182906925
-84.4443330801536
-103.589686255221
-140.720947374791
-179.918797698815
-209.235179745129
-218.804509507632
-201.84940818871
-161.083499499551
-111.846378681456
-74.4001267718808
-60.4585448444682
-66.8371217709203
-81.7472833019075
-95.659038482432
-105.311165444507
-109.491872798535
-105.202340668133
-90.4641486114555
-69.5444012719677
-52.1235379099598
-45.5194426039724
-48.4231737475753
-53.3954876272574
-55.0203569932363
-54.1767284360836
-54.2486504721597
-55.1367661206812
-53.0117742839838
-45.7578573691754
-36.6080220937773
-30.9845473414806
-30.4203468081905
-31.1466026987677
-28.9562010905476
-24.1637904528793
-20.7041068010669
-20.9677215685103
-23.0547684659017
-23.5729852984076
-21.9413876621618
-20.6236994622786
-21.3533599812986
-22.5778394063543
-21.4608719019165
-17.6629442729496
-13.8888584236169
-12.557642638322
-12.9828268038882
-12.6135813156297
-10.505504357891
-8.41254617849359
-8.20633289115128
-9.1886836752991
-8.88570144641244
-6.23423570975658
-2.9467414365788
-1.30253929942293
-1.29662552380455
-0.821967163213454
1.48527383715025
4.53848998221844
6.40216056109224
6.9632077244664
8.08656437797376
11.0688779778101
14.7822986214255
16.9613039482422
16.9476932523322
16.3453684664936
16.8306439857506
18.0638735157172
18.4057323470478
17.3723839689758
16.4890451975768
17.3776992889935
19.6011934816863
21.1093604483694
20.711514087158
19.3704494824343
18.7061080740584
18.759815474127
17.9763010555277
15.3748271667056
11.9861159976708
9.63038705014213
8.64106653584425
7.52959773474845
5.03089507496229
1.85456778927843
-0.123973552036986
-0.143271528656285
0.663890627823065
0.937043840722836
0.930876012215919
2.08103229582164
4.88640017313336
7.93831132133944
9.42570584939186
9.20775615495675
8.82176862247852
9.49590795228287
10.7920053721471
11.5899974716159
12.0035279965664
13.6103380996154
17.6406557267623
23.4784110521825
29.4290311752824
34.7522295800339
40.3419178938451
47.246725035258
55.0444501639114
62.217746192097
68.005578501902
73.27503095591
79.2845587737775
85.9978138577036
92.1753465886259
97.1066108022011
101.690063157683
107.445000332913
114.751935211341
122.590039155424
130.033345717258
137.465835189175
145.897695806089
155.30357238014
164.191536827788
170.990692048488
175.501934861669
178.662785302441
181.134028331488
182.667849248289
182.975951570781
182.653140538446
182.619642422111
182.674581878806
181.18626955984
176.627189036109
169.229238270976
160.71872789299
152.422358441282
144.057929983589
134.617339302369
124.073345196938
113.648105048916
104.32442276335
95.5945617097977
86.1107099211879
75.3945235120569
64.3855226002939
54.1499120712305
44.4806811097127
34.2298944626455
22.9074001420933
11.4133063249855
0.931146564627244
-8.55525576566214
-18.1635063639785
-28.5620653486926
-39.0040572726759
-48.2047216977995
-55.9014593103211
-63.0630369563298
-70.5163211540345
-77.8356445400955
-83.9576408542326
-88.6769308044329
-93.0121350762195
-97.9391872733706
-103.157279917618
-107.510052219117
-110.500306482342
-112.909806138701
-115.743697896234
-118.940747747916
-121.574648946771
-123.255472443119
-124.819659061624
-127.335595666221
-130.704330568255
-133.701589957315
-135.422100571938
-136.243623934773
-137.074085782706
-137.929366204822
-137.779872801177
-135.909067089504
-132.988476995454
-130.407203460156
-128.683066202016
-127.008182982419
-124.508045971775
-121.545733725732
-119.344222794972
-118.417990088581
-117.882851902455
-116.566129141223
-114.470517339865
-112.673700372771
-111.799279822797
-111.075848344735
-109.234519696557
-106.085491433247
-102.725039343827
-100.118176525385
-97.9173127669964
-95.0411835431616
-91.2108960668698
-87.3924316651315
-84.5584518367724
-82.4109535525251
-79.7591739653304
-76.0660259199012
-72.1457610729936
-69.1247433982887
-67.057943689614
-65.0126533312905
-62.4561201107692
-60.0509138438492
-58.768044267233
-58.4901215804916
-57.9800233141034
-56.2945942885368
-53.810678767378
-51.5430129449475
-49.6929323257346
-47.3738795276524
-43.8753788226051
-39.7575136484403
-36.2729898334708
-33.8364170837482
-31.5520013195334
-28.4392030064941
-24.7582478818524
-21.6962518041441
-19.8314261327915
-18.4034137574059
-16.3485330430294
-13.7187391330101
-11.5917700646476
-10.5833349974823
-9.94149814306946
-8.45312922043324
-5.99980391506781
-3.72859737953906
-2.61636572926561
-2.31553121283958
-1.78306685942963
-0.81870713105733
-0.422915489174216
-1.45486750498546
-3.35655333884282
-4.66959344064446
-4.72723543861699
-4.33983804849739
-4.59126930503435
-5.33607268081769
-5.3757831982417
-4.07203554982373
-2.24497560967512
-1.13509491139748
-0.76498185143317
0.145471932307117
2.57223835182941
5.95996434806676
8.94683396488801
11.0631207729441
13.1748560508423
16.1265407024636
19.4185490989896
21.6925299312256
22.3892293215944
22.3865494488273
22.7809381215213
23.43728417131
23.2308823946938
21.6465473888511
19.5916410978234
18.3314592667569
17.9677778468423
17.4986542535358
16.3798270854812
15.4731455766159
16.0535754451824
18.1431904196911
20.3921281500538
21.7221588773942
22.6105889335524
24.3350503372482
27.1803410850885
29.9930935204867
31.6965171703568
32.7600390062992
34.6307046629263
37.8049462492528
41.0469187469191
42.805895726847
43.025033337727
43.0231000736766
43.6576818495928
44.226256426019
43.5632648033028
41.8565570737094
40.7177814074898
41.3289982135009
43.0469859623504
44.2846510323726
44.5195202738005
44.8107597291542
46.1875188879493
48.0949776618282
49.0097256114941
48.4433199920132
47.6681738426794
48.1473843544231
49.6853312280627
50.7244819409528
50.4195727801019
49.7844521178394
50.4172418821069
52.4879301972354
54.6307034176034
55.8502573341433
56.8724372170261
59.0987401313007
62.5125156889229
65.3129873533953
65.8121681202886
64.1679512848051
61.7624322743683
59.1559441541275
55.4070770325182
49.6683894569445
42.8546618764039
37.0163426240816
33.1038265344059
30.0214095142173
26.2405549810128
21.8734193871414
18.4805262511884
16.8932950515309
16.0079922302025
14.2501821783435
11.819188060564
10.6743145377486
12.1368089776358
15.1698509537954
17.6082298200281
18.7876196885337
20.1756451106543
23.2153728998884
27.2644539033789
30.3911069192284
31.9855747660234
33.6790556976308
37.2474483453256
42.1805635616177
46.1096932320197
47.5644489912722
47.4661021896607
47.4493042412643
47.3441446706756
45.2958186075841
40.4546461478535
34.6221263835281
30.495089969124
28.6602391457758
27.2617888386384
24.8098913653734
22.4019370567967
22.3260741465334
24.8310793219781
27.4207853479624
27.7989234748089
26.688043328375
26.7280927265809
28.7616591908897
30.384733804297
28.8187654462518
24.4655508805056
20.453695113822
18.658246740086
17.3842381095261
13.8375491115247
8.19219924360623
3.80793544633011
3.12211532000096
4.52974551446043
4.4348620225773
1.8718236612579
-0.425016154722321
-0.0108883914662101
1.54490422010732
0.391807384216527
-4.47745072959665
-9.61306931723699
-11.5159029203433
-11.3488662191606
-13.2364699106997
-17.727631481008
-19.0960769313339
-11.2103009867599
4.16869746863323
16.8795881994913
17.2182864418417
4.53843603602225
-13.8376224207668
-31.3206726132295
-47.8170536846174
-66.9527396081499
-90.5348934194743
-118.599737291859
-154.008442493821
-202.645271133036
-265.788111631744
-333.44414583831
-388.761463772564
-419.801618483869
-423.547368126106
-395.773957494898
-321.425162886204
-185.414048738064
-0.323521623371644
180.647878048571
292.378180668418
312.935709096343
292.763674307859
319.664435237923
441.539404094224
616.243817392815
739.490576210284
730.041948698605
596.225970456581
424.888578741275
306.50342258221
266.445437150867
259.771236886669
223.453285099631
131.206261284394
5.01664523140852
-114.239411742157
-199.96309165297
-247.93015364495
-263.185424591439
-248.487105380498
-206.9827728457
-151.036159451427
-102.614265070972
-82.1852207660152
-96.2546381201536
-134.197979834821
-175.420348274405
-200.181414759513
-197.767895887192
-169.861904669157
-129.085294069905
-92.9254719856866
-74.9439136529369
-78.0596349054921
-94.5610905167141
-112.607944155204
-123.681787363933
-125.377393763895
-119.066917862144
-106.568641640222
-89.4132124695393
-70.236850293927
-53.3819022119835
-43.2540210695955
-41.8225709833592
-47.4309589486867
-55.6044846805669
-61.0894696561334
-60.1693940879401
-52.4796066568364
-41.2982151987183
-31.5450749055425
-26.3934696310169
-25.158136408742
-24.4981538844024
-21.8644260618864
-17.745355132153
-14.5443452791189
-13.630796904901
-13.9843963127777
-13.729043855373
-12.379130220816
-11.0184382609916
-10.4563879912532
-9.95605160823406
-8.21727067645223
-5.25620497820297
-2.64748556650472
-1.75224544965298
-2.17118976560595
-2.34621161264809
-1.46526848088869
-0.229160717041091
0.376266607312258
0.547696806509185
1.38918336581825
3.28309304716374
5.1010795396461
5.34482408680482
3.79280517723138
1.59980944175794
-0.184751844503172
-1.72872695077117
-3.80943693000654
-6.44172086593569
-8.64877175185836
-9.69121335148084
-10.1030746035031
-11.1350486476451
-13.2964617007016
-15.8439843074934
-17.805706424697
-19.15899714743
-20.6735952826941
-22.7493004427923
-24.8726925727248
-26.41404527509
-27.6503087321282
-29.5890058857791
-32.7634475158355
-36.5303150942197
-39.7411671008125
-41.8892400591186
-43.2923606842561
-44.2206837588905
-44.2727954215033
-42.8994756482578
-40.360176593382
-37.7609653168774
-36.0148201980513
-34.9892624028172
-33.8716231080983
-32.2136115299863
-30.2935801286838
-28.4158788865223
-26.2087094244604
-22.9577510721159
-18.5758948867415
-13.8983297519912
-9.83566150654538
-6.40547939343131
-2.8298766953277
1.4834098254728
6.36131128200002
11.3777103118066
16.6745203615672
22.914275306681
30.3777721629054
38.4006797282326
45.9427624002844
52.6255948854193
58.9693962474042
65.5871058668598
72.4011943680631
78.8484191260383
84.7079309431623
90.3951912444779
96.3230824137211
102.203224074419
107.260003015979
111.142275208815
114.410608512193
118.018939120453
122.462278944085
127.601295630748
133.220280748166
139.432520143662
146.339743058696
153.431426388966
159.610408249747
163.933609869184
166.235836659115
166.965110719388
166.551525396234
165.139491886966
162.916690672158
160.430531075578
158.329782045274
156.801423303777
155.435332105409
153.716093072997
151.538070889445
149.137352691006
146.609498234519
143.684485377426
140.016495251212
135.523467944741
130.274969522653
124.101348784526
116.528968579952
107.227949332422
96.4589372775351
84.9805772676714
73.5622128833725
62.7072279995394
52.8194903611343
44.3817549451806
37.702885462829
32.4598577794894
27.6699931300872
22.2629232218509
15.6672514406232
7.80476283306549
-1.34729134685123
-11.9288860394342
-23.8349032693959
-36.3656047202043
-48.5119830464118
-59.6750238166692
-69.9810488142721
-79.7979657726019
-89.053573540517
-97.2090178288951
-103.892395381607
-109.342932145276
-114.080098353264
-118.254962069619
-121.581639899208
-123.98086975663
-126.08922636866
-128.898936485687
-132.883481538202
-137.629272410655
-142.366552906081
-146.684152206617
-150.554836087925
-153.770345864014
-155.687370990312
-155.755473796881
-154.210376760116
-152.020260090117
-150.077446356278
-148.561719109534
-147.15590406701
-145.707246940394
-144.424085511111
-143.405340419881
-142.24253282877
-140.343850464151
-137.635850427933
-134.740588664308
-132.362816947753
-130.620788075315
-129.102241379478
-127.475044312697
-125.799402515327
-124.16604140605
-122.252273516201
-119.523358443602
-115.915145734904
-112.116196298912
-109.013415409192
-106.917243799274
-105.46031744046
-104.196112939977
-103.050920583311
-102.048135296893
-100.759941591145
-98.354533452878
-94.3301635964606
-89.0797688909192
-83.5736881485342
-78.5183780363468
-73.9670357892209
-69.7401472115511
-65.9874417533498
-63.1189811394868
-61.2407167115643
-59.9132206386588
-58.6118536625931
-57.3166083593105
-56.4770044522673
-56.4107791555233
-56.9065766615666
-57.4795528862207
-57.8482270393002
-57.9647824170459
-57.6284873309849
-56.3418035001068
-53.7335037014409
-50.0289900072777
-45.8892487466671
-41.7425269007711
-37.4305118304533
-32.6054935933502
-27.322261402984
-22.0068786449708
-16.8465068641578
-11.4892149464112
-5.5895800613436
0.41438635458819
5.33191638298224
8.15911906047025
8.88644497765737
8.27265404159141
6.96130055948987
5.09491161766802
2.85435338081066
1.07174325410349
0.925032045386889
2.92887751175012
6.42028711900839
10.1944267490018
13.5524115998754
16.565698914306
19.4100819062796
21.7928791618043
23.2756448985847
24.0169853157997
24.8464218916956
26.4518055529718
28.6593482886633
30.7107649504551
32.1823990891779
33.3985816826886
34.8936784173652
36.7239542465942
38.5680705381584
40.4277392280611
42.8848574269662
46.4536384339227
50.8135791290363
54.9399702922879
58.025690207027
60.0838223276486
61.5619614679204
62.5942109260847
62.9403439038823
62.6595888274593
62.5026063282302
63.3359346789241
65.2226135734455
67.3165931043594
68.7375680214087
69.3584024148527
69.5858073769881
69.5490952658693
68.8593372688267
67.272718712976
65.3092474099313
63.8826512928341
63.3117528759998
62.9573923180829
61.9692020844389
60.2113228362285
58.2340054696693
56.4359414977933
54.6136665342928
52.5132671268091
50.5745331036367
49.7317653008791
50.390270218296
51.8673265692795
53.0661835436833
53.5762424622729
53.8410080670491
54.2654323785339
54.5302962999773
54.0737872892403
53.0772151140172
52.5291388041768
53.1150262651407
54.2786313052897
54.6859800259195
53.5755632597181
51.3569702954108
48.8048610012157
46.0089081584429
42.5011689055244
38.3489108660778
34.6472926912539
32.5955856793527
32.2296919478704
32.4095167164663
32.0939028259724
31.3159390468174
30.7211871897194
30.4417046196604
29.9070710424834
28.8470280849953
28.0439957879057
28.6591566068782
30.8681701925896
33.543151145398
35.41969920625
36.2752065972051
36.664346599738
36.7038154124343
35.6711851729626
33.0484809395179
29.5985062470047
26.8895976355028
25.7015621283227
25.2977256902361
24.5071641495204
23.2251038445601
22.3944567791401
22.5496637301495
22.9352983030771
22.4541032806062
21.2069901706543
20.4918693165295
21.1131184863148
22.1508556975532
21.8570503425912
19.6154667349399
16.4915917152603
13.7237212128439
11.2132176188959
8.06320333628135
4.43702108790202
2.12911494966152
2.84018760740613
6.21214136710626
10.1466323852875
13.0705834042862
15.3081944496313
17.8943989669711
20.5385785073918
21.5793495094118
20.1055386908925
17.4355755282696
15.848678088874
16.0332583763192
16.4819368807376
15.6110889480653
13.8537253066419
13.0149775196528
13.7956409966768
14.8327285898136
14.5990811891595
13.6482557164814
14.1240057829772
17.0313596052895
20.803295796563
23.0998013659008
23.5490774572144
23.8673649701638
25.246774545524
26.5577277104727
25.8586112495347
23.2355903325597
21.0625753975958
21.1010184888504
22.1497886534593
21.4277262584274
18.0243465704024
13.9426196636457
11.348020130089
9.68874297810073
6.62118383535761
1.61341760762048
-2.64872341596638
-3.20927518851597
-0.496535693761439
2.12363976300829
2.42471978862402
1.69108173211291
2.2185203380267
3.35069180284362
1.65102846070156
-4.64913840744828
-12.8283233106294
-18.6313581831473
-21.392474819251
-24.2382383914086
-28.4488701763136
-29.3875744137242
-20.5711805004818
-2.34021948166446
15.3588836253569
20.7282784375574
10.6346863606518
-7.69592870708644
-25.3980913578141
-40.8669183451184
-59.3827453963669
-85.9821296048257
-121.72101745839
-167.172424502324
-225.80215951581
-299.524285052927
-380.323740194871
-449.419541171967
-487.293506968061
-483.690298331473
-436.239052668372
-342.464548056022
-201.473589783346
-29.5619034016395
130.240297198508
228.292371170262
251.410632873494
247.54407101725
296.069157842306
438.281842493227
629.761401274473
765.610662603885
763.557947336329
632.075372321356
461.425975602755
346.876540463342
314.945820792888
315.745325120521
278.942793363608
175.291684939144
31.261481561699
-103.615420033224
-196.024419040552
-240.568578433546
-246.024721434903
-221.101259696061
-174.679493720783
-122.635861687045
-86.4072975953523
-81.5845826515812
-108.15840950295
-151.716662865073
-192.693632032739
-214.818407032164
-209.090766339802
-175.961069633468
-126.952569455401
-81.8827871683553
-59.066513638372
-64.0007042380844
-86.5189484952229
-109.717700987667
-122.443099813993
-123.972343174381
-118.506061186994
-107.776207378085
-90.4493718053184
-67.6447942660212
-46.4732870464675
-36.3528615002819
-41.6164736467503
-57.9879012200421
-75.9440438269038
-87.0775302686048
-87.9961745653092
-80.2174441622885
-68.1336112448014
-56.8944571662993
-50.2826194656171
-48.7972282063617
-49.5366354367463
-48.8307026622847
-45.6342878439333
-42.2280608498928
-41.3996831989646
-43.2861025376759
-45.456153978238
-45.8902571629527
-45.0770010717203
-44.7786901740348
-45.3409134574777
-45.1674196850716
-42.9910367124129
-39.8364905580675
-37.9751361038367
-38.1338904224916
-38.5291676931914
-36.9558950564214
-33.2593042302482
-29.1206662645274
-25.6337619692643
-21.9610207162004
-16.8160232080327
-10.7330187911622
-6.03531171344574
-4.42417050090301
-5.19955217055731
-6.29025777895002
-6.67604848011559
-7.12455937627124
-8.50307749180577
-10.0953083202129
-10.2232439412595
-8.33371248787634
-5.75837720721854
-4.11971067857377
-3.43674250025841
-2.3266974326996
0.072305421521986
3.01847953479953
5.25910224640053
6.71614792813866
8.45962530234397
11.0293342456746
13.4108869273914
14.1055438104661
12.9360647363174
11.2337100175186
10.1695921159707
9.41173586650556
7.82064594490802
5.18893590618423
2.67337741439473
1.33245569719567
0.711454309318499
-0.629921480356394
-3.29430765481495
-6.25441958629956
-8.05082814483706
-8.36395829082293
-7.95360386157816
-7.21355056950389
-5.45041987428476
-1.97956734083243
2.40455429435327
5.68418857540023
6.54382653405626
5.7144098851506
5.11872928848399
5.87693074582358
7.54227331142712
9.27072547547416
11.199192510037
14.2197484717484
18.5762206932824
23.2720242868261
27.1586862759947
30.3289777222822
34.0407756605734
39.316326157518
46.0251378052508
53.512040699007
61.7473852294102
71.3489637507088
82.4389684157291
93.9384971332512
104.356480604728
113.139871961822
120.888125723673
128.218983891185
134.824675561614
139.950642132518
143.589647890723
146.713589236039
150.164239734951
153.656298040898
156.249074716124
157.713853210235
159.009679842139
161.209436103492
164.230043269594
166.976332132169
168.667151894541
169.589313149984
170.316472349369
170.488265482362
168.854741171053
164.638681486532
158.512434909279
151.929105145211
145.624292525052
139.125088954678
131.766793931829
123.788331364174
116.055375272235
108.826852605884
101.262616250981
92.3982490766224
82.3833443887391
72.4198344500438
63.4958454478488
55.5101536228034
47.7982794698653
40.2263006497484
33.3461948737648
27.4406029365084
21.8092974780634
15.3397366386382
7.69295084719943
-0.396923837827302
-8.0707433620708
-15.3036658072141
-22.6811098800748
-30.389113495551
-37.8342680463856
-44.4196807620692
-50.4180394481208
-56.7226609530617
-63.7383192085474
-70.8306492191255
-77.0505456677724
-82.2096909643126
-86.9565612922058
-91.8308439014508
-96.5929392314259
-100.70680266586
-104.281268206789
-108.146351263758
-112.887942478181
-118.062113606596
-122.607832249767
-125.941430514436
-128.366491721872
-130.367500026048
-131.817677337607
-132.190705275961
-131.471904395094
-130.49203528748
-130.156190492453
-130.514317389559
-130.856364825071
-130.692635819918
-130.342654173223
-130.399948357989
-130.834901886636
-130.960098429805
-130.307575501342
-129.227276540254
-128.370351785546
-127.710069493955
-126.400548284645
-123.704380430125
-119.82920004533
-115.630647983454
-111.612965708386
-107.549308571277
-103.182472816752
-98.9994684167897
-95.9514256813479
-94.3898837953238
-93.5691255377408
-92.3841160907854
-90.4440874636262
-88.1694474562157
-85.8830842590806
-83.1654918811605
-79.3589549561147
-74.5524061426022
-69.7057806527485
-65.6760351354205
-62.3482774370057
-58.9647357538995
-55.2153363906016
-51.6907521703372
-49.1454483698935
-47.5606827789152
-46.2292652209239
-44.7241678306733
-43.4548608433405
-43.0682006060473
-43.475774766345
-43.7859997197865
-43.2471216545904
-42.0072606500434
-40.7574081463553
-39.7774369370571
-38.6423208347113
-36.925775188845
-34.9039565329069
-33.2761867802436
-32.2458995827826
-31.1764315141173
-29.2996223787587
-26.5845470258508
-23.672885338872
-21.0111252708863
-18.3406296742375
-15.1967271921349
-11.7091852741909
-8.59255439049538
-6.29655548847883
-4.41846224450747
-2.16186669377086
0.726593199717574
3.72314688709877
6.25151506022835
8.38468555455831
10.6125125065208
13.0272474935101
15.0529164269593
16.1093858729898
16.3432952800997
16.451279447732
16.8107853195951
17.0455260813525
16.5795760859723
15.4353361366686
14.2243863191448
13.3673711596762
12.6111326401748
11.5110864321326
10.239918399865
9.61092955205833
10.2147948982978
11.7440982394596
13.3639915362981
14.6455058392818
15.8654664742015
17.3317097924534
18.690582421572
19.1997645184476
18.6585686943491
17.779464881811
17.4719954851818
17.9125884665507
18.5565091821125
19.0304616469337
19.7114560081617
21.2306803569478
23.5714190113789
25.9770528945637
27.8233131469673
29.3284687126669
31.1652845508381
33.4663480806174
35.5163096062305
36.5433450489725
36.5993482190901
36.4097778180335
36.4212786781055
36.3148132391456
35.6218974201881
34.6083500125737
34.211772590068
35.0447917161574
36.7096298957067
38.2921796798518
39.3967317615446
40.406430757721
41.6883166814426
42.8500629887737
43.0789345265026
42.151804575941
40.7918004471376
39.8716732461814
39.4604624616465
38.9223637395488
37.9172751759419
36.9874699242551
36.9627583653672
37.9624093753979
39.2968387880169
40.3896638012564
41.4983881635962
43.2707636691027
45.7037721883908
47.8761337654042
48.8449989796621
48.6000170461253
47.8979863543586
47.2464280072193
46.3818546823021
44.9017072431139
43.1670833126756
42.2189856116014
42.7358047662781
44.3249795100616
46.0336078582478
47.4122402803269
48.7897721310436
50.4809979530781
52.0448556510738
52.6146043368992
51.877927187166
50.4087981301381
48.8998740457827
47.2928444039644
44.9387783965137
41.5610105247557
37.7357223223062
34.2506249421665
31.1975066007228
28.0131200624597
24.4161868340478
20.971681044635
18.4815367013113
16.9650834983431
15.5843187684734
13.6674274766795
11.5370642847908
10.0715377895481
9.56512081588485
9.37698847327569
8.83585860031056
8.21220069529956
8.45343738568016
9.98177470622684
12.0976815644592
13.7737164553484
14.8284169539341
15.97618977841
17.7121763781108
19.5058069672225
20.358814936534
19.9799431493244
19.0162483675063
18.0406748292012
16.6672116166948
14.0193935768036
9.97732764362139
5.55231905175978
1.8489517960021
-1.05977230943635
-3.87937515454796
-6.81975252086335
-9.04701633457631
-9.67661039616925
-9.03744415424762
-8.46836676567617
-8.77149332966105
-9.25522503150606
-8.6299799074926
-6.64810171186456
-4.38003412385071
-2.76547976408929
-1.35397301694654
1.04544280780185
4.58192616573974
7.79234171725381
9.10629124649698
8.60002671378915
7.77843394780871
7.66183426953361
7.64608868335307
6.60261767652237
4.73484628988734
3.66357446825332
4.5140031000006
6.46258417401216
7.70534487486117
7.67753490904749
7.66199642264615
8.97317789105551
11.0951593399824
12.2702417407029
11.815231947591
11.0782459775472
11.6552878127373
13.1452815924575
13.4858442949156
11.5925196614855
8.88259899720966
7.56031701633491
7.78705989195291
7.4964204226037
5.25947226193847
2.47296510578573
1.7793235818609
3.51850249923841
4.85764880754748
3.03867055089481
-1.22890899530526
-4.71967864323153
-6.02733067504533
-7.73189021644416
-13.2970452490034
-22.3301817522902
-30.2349130353228
-32.9284279959155
-30.8358703629865
-27.2863887110621
-23.8122712466683
-19.0455705701984
-12.9956942141003
-10.6391671462732
-18.7801359913579
-39.0147092334108
-65.9918712514278
-94.5528037246918
-127.585965511422
-173.818241180216
-236.379912628126
-305.310975607517
-363.691510581581
-400.215930637259
-411.802887690757
-392.288164673814
-324.127100093534
-191.614370397568
-8.78087764281781
170.125234018447
280.966594509749
302.845618950459
283.998354823628
307.41551445689
419.346484962822
584.142270731286
709.147761419053
719.313568378552
615.211528083465
465.370227727727
345.784322064105
284.313719180638
254.774689321485
214.21504335948
141.21606625465
43.6721573052319
-58.6490153473977
-150.421584658372
-221.398019295197
-260.364956135964
-257.511101271531
-215.378938408433
-154.384141418145
-103.38145492081
-82.4208422322026
-93.1728576374179
-123.58876812671
-158.960100859449
-188.09754863987
-202.533059570114
-195.524967128891
-165.786611395878
-122.234823404954
-82.4191680107993
-63.216258493511
-70.6020322602527
-96.5302560186737
-124.555241840195
-139.197089202833
-133.024685576712
-108.773175376849
-76.8818838906739
-49.9235887329062
-36.1758886421119
-35.7237767335984
-41.8547510648666
-46.8239730552463
-47.2037361671168
-44.4196916094013
-40.9384007544874
-36.8165848798501
-30.2661557686171
-20.9214713901081
-11.4838617269941
-5.67020690658576
-4.86571976394264
-7.18409231320608
-9.59444309496738
-10.42415533459
-9.7773319879346
-8.31775221696523
-6.48981111581379
-4.88269729496469
-4.47635256200606
-5.79455240834395
-7.93974440392356
-9.10227865508795
-8.33330401259999
-6.54210046823896
-5.43336886910539
-5.62467566538493
-6.21575409632121
-6.22762436409403
-5.96597080794306
-6.54533262424572
-8.26819722479857
-10.0544954311862
-10.7151920733588
-10.4280516546905
-10.5031005502392
-11.7500760659167
-13.5483623832886
-14.7546686588331
-15.1785602602724
-15.67563201044
-16.7974607418358
-17.8588852375697
-17.7053811849443
-16.1865671392649
-14.3947358789127
-13.3487140153882
-12.8333275104521
-11.86975142693
-10.1318369818809
-8.40783438271976
-7.52322306355626
-7.21286084365534
-6.49877944729505
-5.10878402361678
-4.05069943148623
-4.53164587983924
-6.57312514037184
-9.07487215815688
-11.1962726113005
-13.23384514657
-15.888740145461
-18.9746665863333
-21.3592291923368
-22.2840091724109
-22.3523446059422
-22.8649010306054
-24.3174301845861
-25.9557162297223
-26.897486146256
-27.2984702900247
-28.0137641276306
-29.204540847275
-29.7468725063517
-28.2945099786717
-24.7536396151613
-20.4323988017018
-16.784470151107
-14.2694288370742
-12.4181847264592
-10.5168109238547
-7.76212509813682
-2.94892929711514
5.18203354722045
16.6191748245185
29.1817530532222
39.5653975033181
45.7758363978391
48.564687396215
50.3492854175136
52.8597301109075
56.1277953323304
59.7138543769525
64.3463364183803
71.751401968668
82.8053466813374
96.2727211802718
109.682278113649
121.32049918225
131.118235024668
139.737908624267
147.339629820535
153.584257016781
158.542383972548
162.956122686214
167.33088527513
171.113377479821
173.248120628115
173.587831003908
173.388033847263
174.166022185929
176.24899698374
178.729417627468
180.762231240903
182.475077824948
184.349310325459
185.970106228477
185.876267802171
182.807725287184
176.841403991514
169.061982014413
160.285019581864
150.481749395846
139.520994388716
128.069073679275
117.318196614048
107.826625206122
98.9787649905782
89.7901543460463
80.0439214158735
70.3477114492023
61.1405821759165
52.0314931048557
42.3429413598336
32.0822849910798
21.9877861980131
12.5540351239422
3.33676148434361
-6.50393764359688
-17.0950241322068
-27.6055335844783
-37.169193427779
-45.7639238275374
-53.934625432588
-61.8091302897864
-68.7949974516841
-74.4062822138537
-79.1115824505433
-84.0102006056382
-89.6696108765359
-95.5795196593879
-100.897272459253
-105.492486858439
-109.94287734315
-114.555917065648
-118.800897164419
-121.983709636119
-124.303609493162
-126.851784052135
-130.449581482969
-134.745432397335
-138.688330870476
-141.743653589297
-144.293997018048
-146.774638851999
-148.77096457818
-149.347178184832
-148.227424628719
-146.28344469862
-144.641781171298
-143.495994262427
-142.084568814335
-139.792017620503
-136.917688860798
-134.161346409765
-131.596304225299
-128.55887104859
-124.628107781227
-120.386972447431
-116.917894252523
-114.64451123412
-112.989447102312
-111.244226866264
-109.46947354095
-108.248111292228
-107.679062091888
-107.027783430992
-105.563905988579
-103.49415511416
-101.717491082037
-100.662772391442
-99.6999010315223
-97.8963313800017
-95.143146217344
-92.1962409506331
-89.6107089201038
-87.009210232512
-83.6804974021397
-79.7237880447837
-76.1877954462309
-73.9373933793083
-72.6547400548646
-71.2470499991813
-69.1435625210949
-66.8413281201308
-65.0614044742418
-63.6883774497688
-61.9187890822959
-59.4181800869981
-56.9255365992111
-55.4415777771924
-54.9862877520137
-54.4944995800051
-52.9743291956509
-50.4637343369092
-47.6402194930681
-44.716615460803
-41.152041600858
-36.5706487768623
-31.6381605698285
-27.6688306289255
-25.3846502438561
-24.3507391776015
-23.7308906989435
-23.3200457659628
-23.5248641566778
-24.4122652781994
-25.1828267243607
-24.8267238569949
-23.1173374242563
-20.6408571509645
-17.8464467101239
-14.4007019048084
-9.70984940608817
-3.90665913805412
2.01634785239808
7.09904170446648
11.1458322058562
14.3691355015111
16.5289173940811
16.8640950800117
15.0348113016573
11.8666425410938
8.8548656939679
6.97383089757306
6.23993772629623
6.46888838091879
8.07369977682404
11.7124050341567
17.1972827425243
23.1806580472769
28.205162278291
31.9158866023572
34.9554413768056
37.7294071467295
39.6843111276629
40.0509345635233
39.0457123340578
37.8756320798811
37.4503266172096
37.4431017576796
36.9441779745603
35.8824915050095
35.3537872117965
36.3823611562512
38.6833566217278
41.0125660300686
42.6374032079124
44.0098963368125
45.7861379243588
47.5383941310135
47.9477963547276
46.3327862123607
43.5738857548494
41.2102472436179
39.8130305654299
38.6599400877027
37.0378379885968
35.3952112598496
34.802851175616
35.4461068806087
36.187484406712
35.8621794552084
34.6916552022661
34.0091180191511
34.6512375570926
36.0678638362118
37.2267285212161
38.0364924369339
39.3719938501324
41.6843917623172
44.0913141206671
45.2292510886307
44.8157649525492
43.9027929428954
43.4963373635463
43.3461666058262
42.4610105798057
40.6072149644739
38.7476356130366
37.8066152430847
37.4134341918516
36.3519725541798
34.1911715842868
31.9636126509512
30.9605566272049
31.1763354640253
31.4116011734392
30.8754617108167
30.1569042212943
30.2805292583479
31.1253842773079
31.3714865622222
30.1360975696553
28.191154037627
27.1370988528938
27.5565265577852
28.5088749870513
28.9690890152741
29.2569313124216
30.5324381538437
33.0312894587033
35.4419101393731
36.35415696234
35.9446276101675
35.6802814799546
36.3897170446925
37.212377602321
36.8048223533739
35.203820628505
33.8531542949303
33.7240415795487
34.0266382752702
33.2881776551102
31.4437771698813
30.1704012858298
30.9330414544837
33.2236184501178
35.2761154850387
36.3259493080456
37.4492371706999
39.8835988166137
43.0852743480811
45.1803083376944
45.3188591816742
44.8602513112772
45.762083689721
48.197339399049
50.4786049741723
51.3706497281683
51.7220453167605
53.228900440854
55.9616442021339
58.0007126895839
57.7889927538273
56.1628653718286
55.3292168029787
56.0289974149483
56.5744608590931
55.0582722910131
51.8562760871244
49.1005369302438
47.7791524461824
46.3274811682333
42.6931227296068
37.2427060141344
32.6242534347456
30.6051088170436
29.9332700699059
28.0473049947404
24.4446540671298
21.2750007542866
20.3289990376356
20.4091252431322
18.694526440725
14.4702926410115
10.3297029419628
9.11242579416748
10.4265822158085
11.2531064758858
9.83589846813993
7.72064884931396
7.24147955358107
7.86636768332739
6.45569179752704
1.2981884759672
-5.39916601737498
-9.9706736805906
-11.4152047977904
-11.502190071604
-10.7187108952278
-6.1404000450095
4.68645397893437
18.1762578950852
25.4355137241112
20.1791251591754
5.02070980646738
-12.0431226286528
-27.530792603404
-46.7587519171728
-76.6099310758808
-115.272953828389
-152.267116079602
-180.218036244538
-205.012514692803
-241.607057511468
-298.900462076699
-369.377737651398
-432.868700381949
-467.374639689055
-454.746655870973
-381.016384828781
-242.2802770948
-58.7537262690994
119.858507496168
236.884208406327
271.480976025192
263.839738895471
289.973188954108
398.212033214628
561.78694450245
694.060064123785
716.835866246605
621.821488441327
471.854261642041
345.477519166992
278.354187297322
250.352846696234
218.526216474248
156.483080072626
66.2168484429931
-35.8487271960904
-133.819126024657
-213.621175066891
-259.197727983405
-257.854483097593
-213.064310519172
-148.973848254781
-97.6824209839498
-79.4296633091953
-93.5670856999905
-125.959444778441
-161.848732987935
-191.3019692221
-206.744546700021
-201.637863788486
-174.974731834968
-135.731369370429
-99.5668545301246
-79.1811302507031
-77.544499335734
-89.6401379267542
-108.478215973443
-127.778290613258
-140.441202642137
-138.833792579733
-120.232744734195
-92.049346601752
-68.8961772220216
-61.8279412117009
-69.6716766774411
-81.2219000375127
-85.8617646922536
-81.6977947016865
-74.0295515198236
-67.8939816903733
-63.6915899322899
-59.4491594210059
-54.9715185909328
-52.0922925495039
-51.4741503251014
-51.0570787505475
-48.5389633773725
-44.482003935443
-41.7197121575516
-41.7243247203594
-42.6589784139493
-41.6158512880903
-38.0900639098003
-34.2490056173206
-31.8428219524871
-29.9259357765356
-26.3272568152494
-20.8103001187101
-15.7093730081722
-13.2167887009006
-12.8597814106822
-12.361850862069
-10.6304749115728
-8.94940874786722
-8.96131360767276
-10.2686049115129
-10.8791610543678
-9.87483121244504
-8.73184739696594
-9.51773653972866
-12.2915864443278
-15.0465539618862
-16.1948089049686
-16.331579166281
-17.0582548273692
-18.5367905638345
-19.0633026782799
-17.2352878206763
-13.8639192665407
-11.1190331666796
-9.98939920053991
-9.28172121620533
-7.34015899309541
-4.17977230785761
-1.31591301892482
0.34091042220032
1.67143876067053
4.06876469584846
7.42203051836454
10.0191695588729
10.4748351396899
9.18024229728955
7.490401216141
5.86048050379956
3.43507580355002
-0.443140178766971
-4.91725082799307
-8.30401124467654
-9.88489537770126
-10.4261607059736
-10.7669959209612
-10.4013436613372
-7.9843745432393
-3.11903558790082
2.94564296059929
8.6508303922724
13.7620434360143
19.1774639802712
25.2118414358825
30.6869719945495
34.104474173936
35.4213661894955
36.1289742940451
37.5401514319789
39.5177450573697
41.254213433053
42.9498621671592
45.9895796948757
51.1844556724737
57.3006809068151
61.9464929483084
64.0154173974678
64.8979419589903
67.0918516919687
71.8884564037199
78.7181639373366
86.5220827484764
95.1040016249677
104.789359709144
115.152987749886
124.784373658973
132.544071580448
138.674686791874
144.284912503433
149.878708135032
154.848854544239
158.540239897616
161.386913305379
164.542055322295
168.452489808208
172.264499280961
174.874130360119
176.274628300907
177.464431377058
179.070522729936
180.512309581418
180.78509733585
179.784635393209
178.385944584362
177.160944455798
175.449407062509
172.057987915991
166.724594459173
160.464661707975
154.357369638048
148.342501636773
141.550018352752
133.658007857712
125.442536077305
117.782240959685
110.442747551819
102.270703824404
92.5834390981014
81.9803912696143
71.5662740356411
61.6391250653162
51.5468213924231
40.8307865125789
30.0774129460469
20.3236277688561
11.8162846801606
3.79420371404006
-4.4044789142797
-12.3817706125937
-19.1548051529911
-24.4532956872052
-29.1334200502165
-34.173943542876
-39.6023041054792
-44.7830525767306
-49.6630202088547
-55.2486313230285
-62.5703945093762
-71.4059704933102
-80.4205210093915
-88.5908142227302
-96.130280947594
-103.789531684352
-111.524439745217
-118.334856640998
-123.515794479752
-127.671878694418
-132.109613811264
-137.31284180275
-142.405675531258
-146.252759843749
-148.769687156413
-150.804580242582
-152.84810008281
-154.338937572198
-154.499674036545
-153.588231237136
-152.883218578527
-153.367860420548
-154.76503748084
-156.103392130512
-157.007905934155
-158.019814535419
-159.593138451488
-161.181312410746
-161.685459713334
-160.70263377068
-158.935388838876
-157.226578125033
-155.492662236493
-152.947080256522
-149.288393515864
-145.261100808056
-141.851912490348
-139.206341033807
-136.70697706574
-134.076391479995
-131.971515708735
-131.202296896548
-131.562314631554
-131.82560558567
-130.960767798865
-129.018322953706
-126.586212898821
-123.617575889344
-119.2794381505
-113.101783606572
-105.916999234123
-99.2630974987768
-93.8943629438843
-89.2326304742405
-84.4133842847482
-79.5407595650479
-75.5230905336299
-72.7409072939842
-70.3460798273969
-67.1727064436659
-63.1198629004397
-59.2207718094323
-56.2983843031342
-53.9304476533436
-51.0320085797305
-47.2598752835159
-43.4020299275291
-40.2805940084793
-37.6568643177299
-34.6039746440504
-30.8519726078619
-27.3070318730106
-25.0215876418399
-23.9272094849605
-22.9558127166286
-21.3589706288622
-19.4871642044285
-18.045774145099
-16.8894811336732
-15.0340716150859
-11.9306943306929
-8.32879903367662
-5.54459973831194
-4.02904305115303
-3.05704220058227
-1.89876900224473
-0.894565383888562
-0.994834272025351
-2.37265364793662
-3.97494888796963
-4.67173494144483
-4.55688942902671
-4.71669301940487
-5.74914312372463
-6.93201032250728
-7.09231380587732
-6.02549259501671
-4.62104065165317
-3.56049903974404
-2.31667668176477
0.229089749951576
4.36024069765124
9.14439399414397
13.5711184328078
17.705860685959
22.3765832407302
27.8587893240033
33.3153456553948
37.702634675544
40.9008310696655
43.5655801475285
45.9488595266647
47.3351018180513
46.9097199233021
44.935637470601
42.667323928181
41.0903103095558
40.1238799559653
39.2848865748887
38.8290576807974
39.7265175438587
42.4064473829751
45.9289181316575
48.7739291651999
50.3398303076787
51.2830859783973
52.319452166674
53.1127941714661
52.7447845432345
51.1333569656335
49.4551965649271
48.9001043785589
49.302230112657
49.4219124532375
48.5419080764205
47.3353959439046
46.9119893228848
47.3288624823301
47.544145273305
46.871636514998
45.9899590028376
46.1226133275479
47.4189387298482
48.6540229667522
48.6725105572808
47.7312096276635
47.0310312527113
47.0993970961016
47.1731808635322
46.3781977420412
45.0953299587799
44.6362450065747
45.593352754284
47.018771692495
47.5381810006517
46.9773641960439
46.4073499394857
46.6000217601289
46.9805519416369
46.4857741619401
45.172800699029
44.3784958615477
45.1289713940299
46.8509628112349
48.1051549685659
48.4290908455483
48.8988132458028
50.6757579684233
53.4510543322368
55.8431691204274
57.2243125944209
58.5338584808219
60.9410174685477
64.0689012504039
66.1362782237808
65.9185808367586
64.0606298386716
62.0998805740841
60.5182357710497
58.3645125926799
54.8787672167908
50.8872807682024
48.0364992348362
46.806644667645
45.8997296217185
43.8354975728165
40.7198628226882
37.9501103263131
36.3452430822772
35.2298738088807
33.6604498812541
32.0621493517522
31.9555566954932
34.0085349456273
36.9514098615591
38.8366808399471
39.062120118786
38.5724177701804
38.0780993391389
36.7779476795378
33.3897803529833
28.1470044397957
23.0098919098067
19.6317220944318
17.6320828320229
15.4241451184325
12.52303738061
10.2863310285144
10.082894487896
11.3172460109334
11.9931667228865
11.1545575864496
9.98263044587932
10.0188620569554
10.7948040548515
10.0469112323656
6.37831903112631
0.982736774813642
-3.8154815644862
-7.32114900506425
-10.9245514196715
-15.67355191778
-20.2349048744764
-22.09491617568
-20.5997064327396
-17.9057612550396
-16.5072704389843
-16.4274504585628
-15.6219617795427
-12.9741994031505
-9.88936448410964
-8.36890459534368
-8.14523182262639
-6.78028325019137
-2.76329664578819
2.36901505683744
5.69316810812792
6.24466710002068
5.75529127508241
5.93194261311364
6.00202138879778
3.87992477742809
-0.575013550514171
-4.65677906777478
-5.69009211917242
-4.05707544524331
-2.40674788674757
-2.05256978465555
-1.31864059081245
1.94184791050057
7.02381644183818
10.8091165337359
11.5743242659322
11.1488537978697
12.394400414102
15.1730411117453
16.1806445822219
13.080804546506
7.62053085939105
3.5460722134662
1.92798823865695
0.0615228329912725
-4.47927062871398
-9.9562152863859
-12.1002232586633
-9.42829852046064
-5.3570071359661
-4.18557568378242
-6.05791659396354
-7.50064506529908
-6.81861229751899
-7.03347435018038
-12.1432875127526
-21.4958718911025
-29.9649393097175
-34.0413799204174
-35.6827279548549
-38.2737015265214
-39.8381725133934
-33.4642970469762
-16.2627344730508
3.72755111034549
12.5979124702711
3.53881100660607
-16.7780920453141
-36.0970758600623
-49.8625650412235
-64.9159316916954
-90.6864621489912
-129.932164374116
-179.984334355709
-240.145244228022
-312.113901120359
-390.470716247044
-456.0993527022
-484.602682442287
-463.134755970788
-396.562107838824
-296.035147823984
-166.364840673353
-11.6996666766296
146.287879056438
266.659394973896
319.6917443156
324.158991838355
345.311659717935
440.384099407988
597.059151943812
729.328256703994
745.200030960931
627.823934454276
452.779478049748
323.465950189023
285.22589851253
296.929768910418
279.754027776362
189.833258094424
47.3997885241747
-93.3483168201732
-192.281461293513
-242.357502804947
-253.928811695394
-234.495251928705
-188.304315295072
-128.804766643331
-81.1769176476689
-67.6039174509377
-90.9840572051078
-134.471482022832
-175.402731356771
-198.031149382918
-195.684790492229
-167.891487106789
-121.192574593879
-71.7562233409151
-40.6548845400014
-40.5301671027391
-65.437181519015
-95.6262736190821
-113.795265589309
-116.706942546663
-111.534159572688
-103.561774292084
-90.4953355807796
-69.0275954925339
-43.9194352740608
-27.2260675521307
-27.7156905522529
-42.3338346265235
-58.9856823840556
-67.0737183713189
-64.673077350592
-56.628706680142
-48.1569486830489
-41.4891458242311
-37.1472942218672
-35.6674624618339
-36.8647854186766
-38.6606058624994
-38.4755019919223
-36.1312160495127
-34.3443904329177
-35.6419396953271
-39.2892228717601
-42.0505992700427
-41.8074995725187
-39.5065849275936
-37.2241774700584
-35.1843640574015
-31.7213738444886
-26.0707232853863
-20.0695208434741
-16.3494665294754
-15.3096120638946
-14.7876319984968
-12.8117488362798
-9.84728431366933
-7.74956935243272
-7.03002153705161
-6.18124186664235
-3.93883393991075
-1.37657013918975
-0.92366748335132
-3.46160540145718
-7.20773644327767
-9.79154633981071
-10.8380958539697
-11.8342954568292
-13.6775401687914
-15.2768708217517
-15.050300016586
-13.2547547108686
-11.9743931797876
-12.6872205146324
-14.5092400069592
-15.3268384928362
-14.3033220643064
-12.5752206955096
-11.4334254727322
-10.5590330148945
-8.66749682930596
-5.6074052153127
-3.0015398514814
-2.46907610912174
-3.690737879359
-4.80613291997467
-4.60388725948013
-3.69474976096473
-3.28838670085397
-3.36088371638318
-2.70805156469984
-0.761635783961852
1.36178206427482
2.10357887610907
1.45983982312109
1.1463285729412
2.69462948706743
5.8863638511969
9.41597624951594
12.7318235676643
16.5411963690707
21.3653680195181
26.2118168964058
29.30698345885
30.0760478292107
29.8444960967926
30.3604025721865
32.0588705120621
34.2748521084353
36.9721222670262
41.4864412593424
49.0520543436368
58.8737623817504
68.2996062372921
75.1363040596829
79.5022706105534
83.1847516955024
87.4897196614759
92.2081828256341
96.6304639183731
100.878164289589
105.651709805158
110.86491757364
115.269630975321
117.859601480629
119.360566694261
121.814851976309
126.618680231819
133.327325845738
140.562108675329
147.714413202211
155.25367926491
163.393763639592
171.053504200355
176.62441948675
179.644415370393
181.259120212301
182.891321161554
184.780385925798
186.096890923386
186.227276083012
185.392345268771
183.839104339184
180.885588682366
175.329352240016
166.861777943769
156.699013007458
146.584301299338
137.387172341089
128.973338547548
121.273615680263
114.898104009365
110.344585590837
106.877970182675
102.749540512151
96.7223552463828
89.1019120532221
81.0157837086795
72.8878125237869
64.0453233088236
53.8743449021101
42.8948192351269
32.2553557776367
22.2814146478701
12.0312083524196
0.548357912897747
-11.7249071856282
-23.1825156991852
-32.6804186938026
-40.5546573135372
-47.8553226179325
-54.9140679789389
-61.1436269684047
-66.2575609438761
-71.1770830802351
-77.2875167298602
-84.8904189188624
-92.7994703928562
-99.6075977166198
-105.063639871855
-109.937574759781
-114.745922534772
-119.118689915556
-122.608961764899
-125.739504042835
-129.732906124655
-135.134126605755
-141.055083074492
-146.02698428631
-149.411989046049
-151.667562100088
-153.307510616881
-154.086067002058
-153.529787716996
-152.032143286541
-150.888492878878
-151.028576506698
-151.978973565382
-152.385112226604
-151.468503974165
-149.635689977707
-147.602163574793
-145.329124924893
-142.24738660631
-138.446287842346
-135.135051964763
-133.58238424128
-133.750942986959
-134.320600479426
-134.082515595734
-132.991787657776
-131.674508575316
-130.205689597825
-127.86283378594
-124.185229934824
-119.876443547688
-116.250965233709
-113.829341951874
-111.825381186106
-109.151809857358
-105.661538878197
-102.116539188915
-99.0782002212048
-96.2749748298696
-93.2628847756113
-90.3959389395567
-88.6875253581019
-88.6421712516562
-89.5539455109966
-90.2022510034521
-90.0730155870892
-89.5835212051831
-89.140654432624
-88.3974315382286
-86.740287786236
-84.3003001588379
-81.9969899195739
-80.3917059423233
-78.7826639960954
-75.777618433161
-70.720870120273
-64.2470456573581
-57.3554429268194
-50.2976806602095
-42.7563518551301
-35.0137052331027
-28.4173471825418
-24.3149175809005
-22.6578661215342
-22.0087516878001
-20.9859131543116
-19.4148707113732
-17.8948494055516
-16.5411680761092
-14.6577715426543
-11.7662465268484
-8.5500569732791
-6.33713071254339
-5.65737333373082
-5.65743207088929
-5.09434502346976
-3.64585611526915
-1.94448095436225
-0.456039105353501
1.19768224706416
3.55594034369104
6.25376197446349
8.11439157601161
8.4130872424106
7.73768239165494
7.33840763913214
7.78272182015626
8.58736788285439
9.17873427795564
9.79658348782542
11.0987030252347
13.0311450355414
14.5718891129676
14.8240579819749
14.1177927371906
13.6985281003778
14.3705772868646
15.7854183922392
17.1842365494292
18.4973326947836
20.29168572235
22.6705080380638
24.6981459144764
25.2682806763123
24.4013939173102
23.3177068147776
23.1643096111394
23.9833959703562
25.1477459772012
26.5428207434925
28.8229057250384
32.3703201834688
36.3982190996202
39.520239217168
41.182627265779
42.164742953995
43.5096746356823
45.2585969628848
46.5858146252325
47.0669636244151
47.3249268088692
48.1624550739124
49.3611992397788
49.8329636629661
49.0354114352468
47.8393009604593
47.6712781956022
48.9677400402782
50.8663423237646
52.4424198820504
53.7864660348743
55.4750757964381
57.1871358572683
57.4414142464891
55.0115847421328
50.3342113425229
45.1251889575907
40.653174844248
36.8039688304279
33.0044865579037
29.6404208496119
27.9825156836587
28.648473915891
30.6281624682437
32.2404384093098
32.9019707958881
33.5162041593141
35.0472672218008
37.1510763437419
38.5998504012887
38.8619252473218
38.7093780160186
39.0572259505143
39.6065984319821
39.1342296506151
37.0902589730955
34.4223931855863
32.5422809748423
31.7698256463165
31.2408029291047
30.3024623457258
29.4664666142272
29.6321797170677
30.6616946470832
31.3030088732401
30.6739394766128
29.4014395974108
28.9007679325686
29.697924904294
30.9501271986733
31.7276370009997
32.2857647220039
33.5892922876009
35.7280865513827
37.4152867312101
37.3758641787637
35.9046335811293
34.5652730387018
34.3824852974926
34.8374824039044
34.9103814618299
34.7036811013858
35.4144696008057
37.643698386139
40.3103393786923
41.7187362764978
41.5012350924063
40.9495675107863
41.302027864452
42.207813689231
42.3442574238581
41.3141552435163
40.2517898699258
40.2856452598839
40.8911871786132
40.380830788163
37.9843380655321
34.8390756885302
32.5876265057542
31.3987786912175
29.9785476979208
27.5033594294875
24.8551428618071
23.4657379785616
23.28860215491
22.647178101227
20.2730803120898
16.9251902084276
14.4638141398427
13.5656041909278
13.052287581202
11.6765096423466
9.94618576751809
9.50628601771303
10.8604600665039
12.4895368107762
12.641345004659
11.5269104639927
11.0561618544921
12.4429496508901
14.8117135681034
16.6087898509455
17.8790947002971
20.2873145558468
24.7711830848073
29.9486154499005
33.5049113987239
34.8555552899094
35.6193616173422
37.2702842170697
39.0800578012218
39.116822594585
36.993589820788
34.6490826447577
33.9903216635132
34.4455751500603
33.7260615174293
30.9011100467067
27.7505074411761
26.5315231488265
27.0409503836223
26.8758149226144
24.6092958525425
21.6686229958101
20.3291901156751
20.4174165654376
19.1820151005436
14.7035878697998
8.45280020660719
3.56576355733327
1.00682561385838
-1.33311407974746
-5.36866641983168
-9.74810627726775
-11.2297294696722
-8.86635725003985
-5.44421506450423
-4.09109355574532
-4.43896210403992
-3.5280275038916
-0.392331508255296
1.86635935472794
-0.366948941287298
-6.49362704349198
-12.2202562496144
-14.9951853517381
-17.2014599214716
-22.4179075477665
-29.2461146183167
-31.1348135138194
-23.4876591088933
-9.76206439966419
1.18420696035098
3.61321256268904
-0.931999231376611
-8.43483869788393
-19.2725050996329
-37.9349509119232
-66.5448109490418
-102.105004367341
-142.395077837412
-192.350712479936
-259.709628431629
-341.875989992542
-419.344734713264
-465.808354650611
-465.378933547907
-417.867316427379
-327.973906025986
-196.242434179536
-28.8220779789873
143.873598142285
269.909997139524
312.837713504679
293.229854657314
286.496912162394
364.331749329473
526.670959389255
690.441089626205
752.946986374194
675.975730689304
514.688521499407
367.1398603172
293.918819347173
279.97701062365
264.231362749524
198.944713050099
82.983022251367
-50.3147498005703
-165.071393498306
-241.104241537003
-271.57635442795
-256.707373103391
-205.914150697957
-141.771163970704
-93.4037647075786
-80.6567678218079
-103.641767634664
-147.253162277045
-193.89391251893
-230.84967737302
-248.758925668174
-239.901350325452
-203.35005830622
-151.558717413724
-107.271542905586
-89.3815966749986
-99.9240265714403
-124.751525829805
-146.571737316332
-156.981897232498
-157.232705328802
-150.751891394402
-138.001718691459
-118.666032179548
-96.1552674803964
-77.4016623324707
-67.863746985643
-67.6643124527936
-72.7047723671825
-78.3655601689785
-81.42077517452
-79.6248447185573
-71.7895626237798
-59.3807828825431
-46.9606738551965
-39.2340814555203
-37.0037878833946
-36.6966707277994
-34.4400951074827
-30.1941881599892
-27.2337009797969
-27.8556178504677
-30.6467407149168
-32.4403240688317
-32.1574425228337
-31.6194365464806
-32.5912359494042
-34.1721646324454
-33.9636313825488
-31.3484315240006
-28.4775628706008
-27.6489902664687
-28.4890956184513
-28.5336533590676
-26.3442343101578
-23.0973857775575
-20.7322874309487
-19.2694775248701
-16.8729354456689
-12.5009363755138
-7.58023399079377
-4.47756943303404
-3.75447254286399
-3.71896191882294
-2.72835133432345
-1.16250451608839
-0.572064561695342
-1.30157859053062
-1.83663576284323
-0.741468338638978
1.41090977147176
2.6848063575669
2.16684915785827
1.0020654337259
0.809778542960963
1.62121061221089
2.00530211540179
1.0933895529923
-0.257299407037491
-0.691003412662852
-0.287999552352291
-0.598177395502749
-2.69483031219767
-5.76383539729719
-8.00910687600109
-8.636205076374
-8.36925115008784
-8.00174951457416
-7.08292041209529
-4.56018667831228
-0.49446987723768
3.511746689974
5.83682795875639
6.40261186923817
6.33705861403847
6.30711395251487
5.77926463101418
4.11821009864909
1.90956666283781
0.590832999156409
0.789665717984981
1.5774604974333
1.69313970501169
1.17869369082834
1.27729153104704
2.71453116958331
4.65797514647964
5.84174764937151
6.53379560691123
8.82170049049812
14.6716714279699
23.9000577529576
34.2657538043338
43.3799866867283
50.2346409965255
55.0520500973341
58.3719149564411
60.8584884003785
63.7499456978163
68.621044753622
76.0709356100064
84.7849642591836
92.4551413256025
97.9264657880073
102.297792756049
107.760173297946
115.526038355625
125.139308203851
135.645326808908
146.865041395809
159.123483920217
171.940168764398
183.551104573527
192.014921676366
196.617889808482
197.979064279819
196.959144417341
193.89310870902
189.015496804388
183.238733481681
178.001290349999
174.239264392619
171.772240824098
169.863312811123
168.176436794148
166.900709375515
166.009793019635
164.801957167023
162.423851255643
158.66513144398
153.898302414839
148.216130728113
140.972261900172
131.44338496139
119.814339656091
107.18978858209
94.5748718603714
82.1172857786493
69.547396624736
57.1381954695797
45.7897784783157
36.0177781060627
27.1570370485883
17.9201885848084
7.73854279924911
-2.71996498719701
-12.4431812048574
-21.1990242097882
-29.4875160400182
-37.5064746065213
-44.6226448158284
-50.1457788699858
-54.4307893745647
-58.8263316978583
-64.4297705720218
-71.1258189817276
-78.0112450894218
-84.5483196281944
-90.9402080731965
-97.3490887249802
-103.150443378342
-107.353707342208
-109.728884603051
-111.184806636216
-112.866840168128
-115.067777899168
-117.251684718371
-119.035740592867
-120.784648368268
-123.07708361204
-125.847193517229
-128.422281122906
-130.44287212892
-132.43688791426
-135.247282850979
-139.006198462402
-142.929803789879
-146.131697879445
-148.368100521251
-149.819402355625
-150.367223474754
-149.494774189285
-147.033156281069
-143.74640112006
-140.878202175233
-139.120311948678
-138.222253124456
-137.627742009742
-137.210789834575
-137.142280472203
-137.178564775891
-136.502107314557
-134.503607069984
-131.559398205355
-128.74742641506
-126.764484730563
-125.336109178086
-123.777406550804
-121.88626470041
-119.973611218703
-118.05063388617
-115.374501506819
-111.109425712322
-105.35500440055
-99.2243075152939
-93.8072491167773
-89.2507202034454
-85.0128190159813
-80.8396611059491
-77.1403650676297
-74.3127938303969
-72.0067481735469
-69.3977312789537
-66.1825840774362
-63.0156767611701
-60.7984217040134
-59.6982576950749
-59.0861697217751
-58.3630592506655
-57.5287778920037
-56.7896741279604
-55.8570042646496
-54.011512586702
-50.9363565434624
-47.2179071651898
-43.7920684995765
-40.9867278440089
-38.343206236651
-35.372584048674
-32.1885591426154
-29.1829487412431
-26.2625408014434
-22.8047412891581
-18.5196112328891
-14.1118261454539
-10.7855043583836
-9.09475808056165
-8.50753197326219
-8.15633018833623
-7.74690227435183
-7.45657074501919
-7.0600288127782
-5.60136747554453
-2.22880337369638
2.77428726882432
8.09455896482635
12.5865969622646
16.1645575518945
19.4066280091641
22.5292556077811
25.115420734866
26.8857802614427
28.3674837017409
30.4452176480091
33.2849343450242
35.995801583719
37.4814604888375
37.4375898326178
36.3333728939314
34.581652709949
32.1128154366669
28.9027498601638
25.6175602658072
23.3366792873544
22.5819306094564
22.8856666387192
23.4811929887091
24.2353255370291
25.6333691973014
27.9081486440002
30.5627231842501
32.992783743305
35.3755970748197
38.5443670109872
42.8773728189406
47.5951546300977
51.4268735934061
53.8739290534464
55.5160440452799
57.0261884304672
58.2160687426893
58.3601473423287
57.335212734615
56.013642703758
55.3184361962516
55.1233572055535
54.4276479712822
52.615436790765
50.232909957947
48.3644642610456
47.4876698763066
47.277549512361
47.4850395767289
48.5655200526935
51.112050326207
54.8183808394128
58.3967717267296
60.6552392027781
61.4283016173621
61.2719599256286
60.4734606614274
58.777294522473
56.1550722281566
53.4287352413431
51.6943125594071
51.1451231264945
50.8216122713557
49.6971376704018
47.7752982376674
45.8468939034361
44.3196131620837
42.7574998672769
40.7858181113606
39.1068887018717
39.1117957330294
41.3928112637274
44.9900528298374
48.3687289482391
50.939663777553
53.2506377430662
55.7180457699882
57.6727186061891
58.0485842296352
56.8193561996356
55.2292312789988
54.4061373619965
54.0868377805491
53.0876558520764
50.9102203444232
48.4111293826189
46.7113871111604
45.8340420725508
44.8809826721962
43.4695622083466
42.4343835786222
42.7643235148646
44.1286997149783
44.9684833905855
44.1191212457061
41.9270684633451
39.4880007576884
37.1058070835064
34.0675261047869
30.0138970892369
25.9778071894828
23.5426214618339
23.0829622739816
23.3530212963513
22.9937760614406
22.0359072721372
21.4912347924668
21.6632599864802
21.5072914177887
19.9490741358364
17.4000290322038
15.3711090858838
14.5940393917275
14.0953176754879
12.4777157730507
9.76500185097656
7.4032852900789
6.44220669383908
6.33523315416183
5.95934804116757
5.44290185639022
6.24113337628512
9.21851454631442
13.2347887187978
16.1835344426785
17.2318240979527
17.3930320386163
17.7493340153002
17.774238877421
16.0805826664753
12.6234961069951
9.31199321154968
8.00341160951263
8.38052649710954
8.5066762104844
7.38591362017998
6.16877474871403
6.39461892916177
7.63176703501612
7.76608402814806
5.68047511980591
2.76553077883305
1.11437619120525
0.670844200685941
-0.851908006204297
-5.02466238832166
-10.5446922110785
-14.7786019165807
-17.0396949084852
-19.2241777122382
-22.8627108260803
-26.5132575916903
-27.1655396701199
-24.0425202670299
-19.8163586784204
-17.4900720356339
-16.9617829628059
-15.8540784331415
-13.5197059463307
-12.6746456854623
-16.0838223948083
-22.5058129209284
-27.5462043888353
-28.7319843632835
-28.1580103310832
-28.8296119460716
-29.3473598302537
-24.575508641743
-12.5699040628221
0.769004883617058
6.18908547255492
0.418832645447267
-10.802605818712
-20.1616922873702
-27.9309937050684
-41.5554435599854
-66.104663624127
-97.6912508808718
-128.485735126124
-157.223385312241
-191.763331089748
-240.035902332599
-300.207925738139
-361.149060601522
-409.966159913864
-434.303891742494
-417.06569144624
-337.378075373015
-188.97132127508
-2.75087959984023
156.818217336434
233.57091953472
229.549013133215
212.70076116369
264.371058746808
407.380811413577
580.465983327787
685.460978855822
665.877674108675
546.948767057556
405.851498536066
306.096480190542
256.896682415548
225.382992819187
177.078564444055
101.912090610379
9.66982269514484
-86.7849180325221
-177.327794575352
-248.557414943303
-282.39716357938
-267.793013063374
-214.131538629089
-149.766154000143
-104.597120963952
-92.5175292498997
-108.304020892779
-137.596908800049
-167.407026439621
-188.963971240441
-195.976693591922
-184.954577491241
-158.068256383106
-123.586358381327
-91.6835275541324
-69.5518230086115
-60.2348953132845
-64.1052415924035
-78.7071282698957
-96.5760428181394
-105.912027086069
-97.2640786621379
-71.6083172429089
-41.264237525577
-21.1551212140267
-17.8668375684887
-26.3688785215656
-36.2987928109297
-40.5119767392067
-38.1011604543644
-31.4850440198606
-22.9694128198747
-14.3830312390975
-8.01261197360016
-5.70276874686433
-6.71985567904829
-7.77757090694842
-6.1767006562594
-2.62899558346057
-0.224473467419809
-0.669295770203219
-2.36161737944274
-2.54446323885434
-0.648468467930977
1.39602131913631
2.03736287718035
2.25193663177554
4.18388507448008
8.18550341823882
12.204678933058
14.2889296730448
14.8866373877988
15.9841624775401
18.3275942348856
20.4341974610589
20.638413937515
19.3882593481664
18.7277493953258
19.654972166547
20.8308296254174
20.3024447341165
17.9573230597899
15.5363931486309
14.290912668195
13.4225165578825
11.3216798594799
7.89403102618533
4.87048014680633
3.70097944991921
3.80054910733701
3.39945282220186
1.81522509675737
0.171049337196056
-0.276359829372728
0.119472741392579
-0.0951550212064571
-1.44682821017833
-2.74133826434831
-2.58034386295848
-1.18694395711726
-0.152910819231799
-0.491411034598423
-1.58935682814588
-2.38861632528649
-3.11971067017816
-5.18649904606812
-9.3017348983123
-14.3459423832439
-18.4991991471214
-21.204144615326
-23.4302247438593
-25.9616881249646
-28.0346678252714
-28.1596631987922
-26.0465532121409
-23.0727447574185
-20.6515376967367
-18.6248513587053
-15.7637371437887
-11.6748015088338
-7.56866155616896
-4.87522968891737
-3.55105542922624
-2.31625100213584
-0.456808142635282
1.30877775865167
2.1904614649249
3.17991583338402
6.79943635645475
14.688512042818
25.7370257022325
36.9499852426227
46.052811131485
52.9601273898742
58.8405324278127
64.397413667036
69.5259299093486
74.3147906580347
79.5539725226914
85.8373505092673
92.5557144753877
98.4143537229456
103.054241846674
107.707024938424
113.900430762246
121.726474956078
129.812382829658
137.006488216818
143.630251135099
150.744033807596
158.442524513579
165.407326818999
170.270436367093
173.008679628004
174.622425646419
175.636890030229
175.465422945855
173.456230014101
170.172750168261
167.141845699067
165.325222596779
164.235701654362
162.756495799218
160.513844627661
158.020087107382
155.525447084363
152.25348509013
147.141391302814
140.141140815238
132.342785416487
124.716856630759
117.083490980295
108.592844146666
98.9921777227554
88.9477838319112
79.0166388768387
68.7267854071135
57.110456787982
44.0742013651639
30.8052398449256
18.6176732366935
7.67426624829151
-2.80912508080517
-13.2066497575436
-22.8049107238631
-30.717506461791
-37.1698861415654
-43.403168947949
-50.2389079510884
-57.1200110908802
-62.8638429779413
-67.1741102068948
-71.0041121001803
-75.3702583853537
-80.1994594498473
-84.6826919560431
-88.5930028196268
-92.7749520810611
-98.1416981377742
-104.499765247427
-110.742880521737
-116.154990502191
-121.134696236785
-126.457917306804
-132.122967189201
-137.312820949182
-141.457810267823
-144.900983241002
-148.238257719014
-151.236719322819
-152.848152207774
-152.392685539546
-150.414072219646
-148.114137363074
-146.127521132124
-144.228637917438
-142.263738670795
-140.918320718774
-141.137502050713
-142.863748094951
-144.77240723894
-145.467747664112
-144.716691963421
-143.23631562489
-141.422753689985
-138.760187777743
-134.692980261352
-129.742022257449
-125.262425545338
-122.017086355747
-119.351975113889
-116.055700384932
-111.846050596051
-107.631747760867
-104.290303666202
-101.606663230129
-98.752826794689
-95.6221890289409
-93.1897900817784
-92.3529800180853
-92.7248450378301
-92.9504687786051
-92.1641643980895
-90.7590602941169
-89.5732349119322
-88.6539924555581
-87.2392127181535
-84.9063047527516
-82.2618031423208
-80.1765111548683
-78.5523894018621
-76.2796753490735
-72.4948246692771
-67.5341100336751
-62.3797369715043
-57.3864788658922
-52.007570782195
-45.8644974148995
-39.6595769695443
-34.5983240651551
-30.9858634906298
-27.839410479202
-24.1057584175484
-19.9874011569242
-16.7045416597728
-15.019629554534
-14.4301976134059
-14.0277184042076
-13.8141546801609
-14.6649442126702
-16.9301828022116
-19.5106521960925
-20.6959253981142
-19.802656986727
-17.6265889728676
-15.2475517184323
-12.8010667668384
-9.75987689384989
-6.19691750827457
-3.19047741700531
-1.70756513897447
-1.38394303926357
-0.831050475432605
0.855096265764431
3.25551685810413
5.43711771468128
7.24018219388225
9.31646446609979
11.9341129707762
14.2670607140208
15.2573821133955
15.0020315745397
14.8255136252679
15.8515686604903
17.8334479709902
19.6752639371309
20.8897375522175
22.0611857264139
23.7602594509305
25.4567415948402
26.0036332455068
25.1636873529733
24.195066829349
24.655545333409
26.8581861558793
29.8461953534612
32.7850549027434
35.8816242881527
39.6634530425706
43.6961716556166
46.591483867729
47.4335682448589
46.8208931126538
46.1583373488805
46.0812458037611
45.9908874075201
45.1907271381215
44.019116485524
43.4469666186774
43.7256636121348
43.9828796258897
43.399694497945
42.4422898782021
42.4716069383245
44.1597788302541
46.7251193586432
48.9390708767729
50.5414374422674
52.2003701238548
54.1451526047051
55.4247814629141
54.9342211739961
52.9426112120956
51.0706091402201
50.6148260008632
51.277645165606
51.861156916045
51.9393604528149
52.2769215289713
53.4784036327317
54.7674084637074
54.6783771123749
52.8936625815186
50.8387169718881
50.1623566096882
50.9540650947703
51.9090098834616
52.1327438566635
52.1669762348847
52.900216234729
53.8879288944896
53.4525823337117
50.5985716669416
46.3139550878599
42.5244077469006
39.970372958142
37.6733382940877
34.587555327075
31.1931907347445
28.9081313736901
28.1251365497148
27.5468227302055
25.7978759748768
23.249248188527
21.6286390320769
21.844937022847
22.7969612308666
22.6739331020818
21.0245889272578
18.9187150157954
17.1021412289957
14.7354818267873
10.5243381999525
4.81001857414696
-0.197850709076805
-2.50858358347025
-2.19255143834396
-0.724007227515479
1.16718126000809
4.22482602618347
9.05377622701776
14.4688804839055
18.2355157810349
19.4295831128737
19.3740496835526
19.8711334600282
20.9856625318486
21.2440091731048
19.9162563473068
18.2614935621254
17.9932867750885
18.9939956884845
19.423247636835
18.2254170617151
16.7552032329415
17.2603367060986
20.0767447781283
23.1755596156274
24.6788535329215
25.0395716013178
25.997291542338
27.7352077517161
28.1685243868871
25.5358343852918
20.9809240720017
17.6106249235049
17.0537813459008
17.904350780932
18.0465443278137
17.7343239266307
19.2377335101258
23.4450746307857
28.0292427431855
29.8915773648361
28.88058286853
27.846920994571
28.7822263111149
30.0784221672731
28.6716375782994
24.3672239390145
20.4965412777171
19.7273540537256
20.4508884489769
18.7940579638147
13.9610532134883
9.81365900447993
10.1109245286587
13.2609062470676
13.665827468824
8.52012011143643
1.56122230983966
-1.314381670076
0.71127778044989
2.52915300373738
-0.210428979993424
-5.74729886453072
-9.6411842983734
-12.7389790529703
-22.678745413499
-45.8078984226977
-79.477867746473
-115.479625529241
-151.363891639907
-194.948880058959
-254.352291145762
-324.160394779699
-384.716946519787
-416.242088348618
-410.776786025384
-367.630080188403
-280.841689739799
-141.024360070216
42.7678101622522
226.176051088969
347.839149232762
378.217070728413
353.932058502748
355.57905327411
439.078594866764
581.224526912761
693.33813885307
694.38420780904
577.842518403469
412.885260894176
283.228614053928
222.794782198255
202.921294153843
171.853460217992
101.55022011389
1.2044035675145
-102.661234564851
-189.939666324852
-252.292980080357
-285.016587370989
-283.342552001638
-249.322100157696
-198.358121167544
-153.935834045775
-133.632182927101
-139.769786459147
-162.36225580108
-188.787267802347
-209.838349088199
-219.148600258634
-211.573649882255
-185.599682419225
-147.482688307237
-110.861877306485
-89.8391468725843
-90.4602420954567
-107.25454802571
-126.944370418273
-136.094988896661
-127.909160219144
-105.042002025509
-77.5153846661868
-56.74011078707
-48.8123917239537
-51.4758499391235
-57.1032943782312
-59.206048029772
-56.7654548848697
-52.9135229334292
-50.2341554884223
-48.0422254892416
-44.109087392317
-38.0234442140937
-31.9054280217612
-27.8871964923638
-25.7622582145291
-23.6521380134909
-20.5428881610796
-17.3600035193831
-15.4444179885182
-14.7115791826503
-13.948291191583
-12.6497609553966
-11.7372796783799
-12.118555240203
-13.0630825373051
-12.6876394305116
-10.0651191098887
-6.29778458388364
-3.20222903242204
-1.30218242135653
0.36713483028203
2.56068298172013
4.57557834316557
5.09451049180827
3.95026319083795
2.44821717980982
1.81547718914821
1.79515785791647
1.1691301460128
-0.542833806322808
-2.43435344683137
-3.38367118540522
-3.4262426660596
-3.5295235003958
-4.14647394580267
-4.52436205924247
-3.69085094276205
-1.79597154201981
-0.0368401729113046
0.723993299619504
0.848424106860917
1.23118124196872
2.03485507004087
2.5526136166534
2.32707431800789
1.96214139844146
2.49580372253706
4.13584054889345
6.00607180147577
7.21279266469615
7.82837464502885
8.55954589112926
9.64067553446118
10.4832012711867
10.5360149332593
10.1554210646719
10.271086229069
11.2567639305061
12.4818152482735
13.112512140276
13.0819283477931
12.9604547796664
12.9646063333051
12.5062870752274
10.9466410553331
8.57293124206119
6.47596803259266
5.44047223945076
5.26950039742702
5.40143632619272
5.97724349972964
7.92116216154977
11.8972097344729
17.4878408684723
23.6602198931317
29.9127948695352
36.6243023062258
44.1878826187952
52.1024934091866
59.2375858764216
64.9508057480223
69.6417265804417
74.0789719199641
78.4254973753416
82.23271749104
85.3627410470035
88.5703733667598
92.9201717118231
98.7156927123685
105.22598766053
111.475856289373
117.09294930613
122.285961914698
127.232881753553
131.834012950506
136.105404501685
140.492825663586
145.485005205225
150.945349489434
156.087154927732
160.233163725251
163.448871618023
166.253115510084
168.785876556688
170.516237896243
170.866949159866
169.932715047276
168.346393848029
166.457163833923
163.871982377768
159.92827145498
154.465651706787
147.917982503687
140.673784330842
132.604617121511
123.395998427786
113.222955694421
102.853831889845
93.0261023101639
83.8824909678918
75.1409054450669
66.6887231700801
58.7689116760609
51.5346736559554
44.6349581945095
37.4545402433042
29.7380212933099
21.7970405129185
14.047594920837
6.50510576467544
-1.10473896410548
-8.80899482734684
-16.1883190357248
-22.8109737518008
-28.7266232745159
-34.3555426407547
-39.9172778238194
-45.1590022635347
-49.7392690626182
-53.746007111511
-57.6582036272456
-61.8184247823923
-66.1377543467051
-70.4220309740902
-74.8452466312515
-79.8800460871823
-85.7287123521241
-91.9929968028349
-98.0306191765171
-103.548297592779
-108.679290742118
-113.496662861198
-117.677087677111
-120.820506287678
-123.022258874566
-124.911746892726
-127.04785407734
-129.408004710075
-131.593430684315
-133.440485459684
-135.213648318894
-137.142541059145
-138.964065700793
-140.132463508872
-140.456141343967
-140.322578859663
-140.194921630024
-140.023145837494
-139.330948682323
-137.850969510148
-135.863447479276
-133.802632941022
-131.684976594717
-129.156916367193
-126.122698411999
-123.108021056207
-120.828487919002
-119.466583598316
-118.552993873152
-117.573718234843
-116.500617729946
-115.583328872981
-114.747058310202
-113.46978336531
-111.360492299263
-108.697961870511
-106.20257026016
-104.293282173606
-102.73865177766
-101.085893381428
-99.2502203028137
-97.4887305947537
-95.852409221086
-93.9255085182943
-91.2670109793922
-88.0040371139582
-84.7923954147802
-82.1708318525062
-80.1095332107733
-78.2671544648561
-76.5272879323968
-75.0565897394436
-73.8352019426125
-72.3697562987371
-70.0635493388414
-66.8061488180974
-63.009018259981
-59.0335057613536
-54.7691595749664
-49.9145857402202
-44.5530687015108
-39.2044796058224
-34.2530277826146
-29.5367621944071
-24.7119286934963
-19.9576251090491
-16.0632168527842
-13.6934546072155
-12.7057005151227
-12.3674806381414
-12.1847888079515
-12.2765770183631
-12.8464481192599
-13.5122396327772
-13.4604105862521
-12.3033809097621
-10.5555178558696
-9.08358645427111
-8.17507562143702
-7.33468187210476
-5.97134731888404
-4.02804447945948
-1.77281051421222
0.853586602866114
4.34211370096509
8.95273766812594
14.1481562864699
18.9120325828006
22.5984797795026
25.28049718794
27.2535730284601
28.4693788320219
28.7085528403237
28.2121822152164
27.781668463453
28.0360151952631
28.7009714150169
28.8742161773697
28.0012812486651
26.3796968090033
24.6195407202566
22.8487122529745
20.7608140678051
18.4340304408708
16.7509024277521
16.7138670946628
18.4091811569697
20.9023893511041
23.2157653767092
25.1934016227388
27.251921053022
29.4826665287422
31.3790741532401
32.5583533582147
33.455117050047
34.9597092769379
37.3773127070911
40.0255393469648
41.9956740919071
43.1092943968184
43.8830384966323
44.6535557610812
45.1172073990783
44.9277037315904
44.4978820894796
44.8067510637757
46.3259898450009
48.411868081318
49.9802064213589
50.6448825465235
50.9109226598149
51.2674278824009
51.4691713860472
51.0037944606338
50.0954532189102
49.8044970487559
50.9425368858336
53.1214936281175
55.1549105469095
56.3198919988723
56.9050378354049
57.4423047030288
57.7576070130155
57.1668345606114
55.5424459756981
53.7403785956119
52.6937221699163
52.2823350828467
51.4541687830572
49.4714005801385
46.6915560239673
43.9276133279163
41.3298245213471
38.3518141246266
34.8532941620093
31.7752179035122
30.317359008222
30.5580777212844
31.300680982354
31.4128008605738
30.9948491658196
30.9339814292327
31.5201259156471
32.0249476494441
31.8252651373302
31.5237101093499
32.441229698011
34.9959450212742
38.0267702236714
39.9772283217842
40.4750233332428
40.3530997755773
40.2198448367246
39.5770050367806
37.6873887195064
34.969432568437
32.9048364903075
32.4015291682211
32.6785873669705
32.1591944723892
30.2706746817508
27.8705224294376
25.8436880911295
23.8464024779641
20.9490943885252
17.3131015898335
14.5278893224566
13.9362698806224
14.9982023008329
15.8394618251097
15.3633928819441
14.2725963404066
13.770177050843
13.7599581154865
13.0066367175197
11.0568139463357
9.2739042628236
9.41428537660904
11.4304509438468
13.3226832653271
13.2929466109555
11.5033543024182
9.29844670235223
7.10280860393435
3.91723659887113
-0.880967797480012
-5.92542002085609
-8.79520309090956
-8.49425066220604
-6.34215080910465
-4.14517324255199
-2.05641226642415
1.10107616347828
5.61086451111965
9.88821936918402
12.2198595151358
12.9356470794744
13.9912334056196
16.3400044572838
18.5238275315152
18.4326615470662
15.9987257104302
13.2738128753989
11.7733829054147
10.6601987589321
8.27756743132558
5.00036691305155
3.41801914203829
5.29724649406998
9.1734376323919
11.8390848744705
11.9721866131841
11.2595255991354
11.5963498628305
12.1656164655084
10.4392111275131
5.8903493410646
1.37654046877879
0.0288909160272945
1.47980946061007
2.38798642045716
0.715039141180992
-1.79401989465985
-2.2080641792704
-0.610772706708716
-0.161993987134452
-2.76052027057143
-6.14056535214618
-6.60866658750438
-4.0862397123645
-2.67878473854473
-5.6395004408534
-11.1713967888474
-14.7551952205835
-15.094867904481
-15.6242385969402
-19.158650202613
-22.7417022320741
-20.2367479363151
-10.2260204013239
0.920811073748418
5.55873185735778
3.2159766084504
0.0977215710473018
-0.123834570411368
-2.28218303576216
-13.9262688530902
-34.5329501951401
-54.1183751910534
-64.6212577887487
-70.7140543148817
-85.9748754020212
-118.016146067723
-160.611185071543
-203.009261301846
-245.032442760254
-298.124977969374
-368.902103252856
-443.508357225656
-491.275245933447
-484.312476230955
-412.864558834517
-284.686535770492
-117.52248396129
61.8111473593686
215.886964014694
309.600591078039
338.626566779215
345.405234110737
393.298057498053
509.457558234554
648.697955041649
721.753521565232
670.664613629707
522.264847802177
366.669136971527
279.870941703588
264.056674663271
259.011305109086
205.783001214512
96.5054338939867
-31.9649261965004
-140.673736512137
-216.581962054851
-263.204029032785
-278.04308834187
-251.117310946715
-185.877278008756
-112.449767481902
-71.621741377133
-83.5138160319522
-133.302914510124
-187.011523142272
-218.465008388514
-221.163227722553
-200.512064723461
-163.161873348363
-116.816452974619
-74.9708789530121
-53.5269479826855
-58.9282455457364
-81.5565233776102
-103.802649514567
-114.766294859073
-115.649118130649
-111.699694992195
-102.795925622825
-84.9582514037035
-59.7739078000989
-37.9871983648133
-30.9545257011815
-39.3897201928161
-52.7504223642005
-60.02192609047
-59.4760101635038
-57.1510771882757
-57.6740556407877
-59.1360170603098
-57.0671438079759
-50.8746929365834
-44.1976359829645
-39.6147626512859
-35.4370114699143
-28.7748741048755
-20.2965363919973
-14.0058861629859
-12.3152022833764
-13.0083228864025
-12.0512206139783
-8.44344438207425
-4.81744929896696
-3.32938378067669
-2.55635522271437
0.485248292074019
6.05573838473245
10.9704573516395
12.4476659831326
11.4838641603881
11.4163188755535
13.6785112325547
16.2873430438329
16.8124752004794
15.6736557753629
15.3829851265937
16.8921599889981
18.0428939412406
16.242040650159
11.8510689897714
7.86946326540707
6.38698915051333
6.42419739496427
5.78565247840918
4.22521295028255
3.65206145905947
5.22623892648438
7.39009718781703
7.58907183344151
5.47294375563285
3.37961359457157
3.47975736347998
5.30122158020267
6.73649061144266
6.9852536974261
7.41441598484217
9.24029358871849
11.2712037558974
10.9032893016577
7.22632141150123
2.24661980391767
-1.36101194934618
-3.09206837461404
-4.49702562316506
-6.505808710434
-7.88800383150501
-6.90455692193856
-3.88419870111786
-1.19716604116282
-0.526545920259975
-0.894859740152375
0.0728245219990624
3.33616547342768
7.64720416038671
11.5758347083323
15.4769849764347
20.7644156930629
27.559731075684
33.9668690015015
38.0326383888337
39.8797610525371
41.2928999421716
43.4066977423441
45.5684459394126
46.7520272911136
47.4335597625102
49.2622255471152
52.9083716946852
57.0191248952518
59.8152462890282
61.3582978482277
63.5684336142952
67.9647330389395
74.0316295486624
80.2382064421193
86.236082641005
93.2626765960169
102.227835999545
112.086565016038
120.755998209144
127.479272036094
133.600900996693
140.746703977476
148.732710060401
155.819970719701
160.858019547055
164.473331585594
167.834997542238
170.772701144705
171.843525371716
170.316776328518
167.481109721074
165.539368785036
165.462185138332
166.436957664826
167.390211335336
168.400281000741
170.137704125339
172.236991541438
172.97309888128
170.855373947648
166.15487738152
160.418010006316
154.621256191809
148.326669785229
140.784615253667
132.335396734633
124.14343631252
116.627771924986
108.768830403531
99.3320221203321
88.4800867688849
77.6815386114896
68.0216110426345
59.0759179062235
49.7181195275935
39.6815526369184
29.7694556411999
20.4966086372989
11.0893513352082
0.303784991409778
-11.9228429353706
-24.1307589260209
-34.7794623849636
-43.6609798940032
-51.579327188728
-58.9040496582448
-65.0332813033758
-69.4764304157524
-73.0077996533879
-77.1960007449753
-82.7811942278
-88.9537468367656
-94.460274680621
-99.1080341252525
-103.767265514953
-108.988491035226
-114.166198190226
-118.392194479786
-121.826949942154
-125.679258716542
-130.719273748967
-136.223085637466
-140.731978346648
-143.673642495031
-145.807955923354
-148.034080250407
-150.225466241979
-151.63763741509
-152.264110310854
-153.213662242245
-155.484771930118
-158.679438172867
-161.33800397441
-162.492874803629
-162.483689036699
-162.091933626686
-161.271886259578
-159.23154135654
-155.74176655782
-151.846563313542
-148.902112544372
-147.097725241689
-145.35098905004
-142.721714245723
-139.541010088655
-136.856361390451
-135.004573508479
-133.229239389635
-130.825941669486
-128.246539174003
-126.639077859749
-126.371169003437
-126.442007750661
-125.550260261826
-123.459363317491
-120.967795662519
-118.64231866955
-116.042431778496
-112.418640162355
-107.85932078976
-103.279193987686
-99.2286154320759
-95.1084085798098
-89.8567356569235
-83.2389158671077
-76.0978668990699
-69.3163900874285
-62.9202731557352
-56.4847806497519
-50.1926366316946
-44.990420901556
-41.5181935014462
-39.190519220444
-36.6850661647102
-33.2837784742044
-29.4083746030354
-25.7590854960426
-22.2833353585049
-18.3614814859269
-13.9085265480052
-9.82472939971345
-7.08362016400328
-5.58520592082719
-4.26744859801626
-2.35730659280073
-0.176914822857958
1.46974928031971
2.44014358958399
3.38832276613794
4.75687613201839
6.04955326197784
6.43467398370993
5.92415334802407
5.55423510986268
6.2705146619171
7.91072120609551
9.54659583732865
10.669450825409
11.6368362090452
12.841449548273
13.8098363607132
13.5491244367008
11.7790111400587
9.4500583799736
7.81802431930336
7.19422634986209
6.89786854930775
6.37168249884992
5.94697643428115
6.27912459514356
7.27926155190807
8.04392173783802
7.95026835579531
7.51937335538911
7.92053286943968
9.7285034870097
12.4676540506337
15.4074039774692
18.462789647112
22.0152756799267
25.9867456070101
29.5095613954783
31.7070461140574
32.5823706837897
32.8561270381846
32.9881608493993
32.6805137313255
31.4739380371198
29.5688235224709
27.7272380229398
26.3977015462423
25.2858420875466
23.9909440882363
22.8514489400314
22.8050251228853
24.3612748782862
26.9901623593601
29.7173299208037
32.1482748751358
34.6040860902372
37.2656010766848
39.5670623408895
40.745248047458
40.869211716524
40.965542084507
41.9910835251274
43.9047160013529
45.9656924072881
47.7941809924738
49.7714244503926
52.2905405167881
54.9371371084687
56.783179256229
57.4748812230142
57.6922581058386
58.3393863638776
59.4719636180589
60.3075235513363
60.2483119129202
59.5493880267928
58.7867992675795
57.9034491982131
56.166200015301
53.1290002530712
49.329808842441
45.7795829084865
42.8843095552232
40.1693994353531
37.0979640299957
33.8472575932878
31.0279324382684
28.8000571914885
26.6554614879107
24.2004911976285
21.8695803070791
20.5503130931322
20.5588509179548
21.3038342433179
22.0813930193035
22.9367133103594
24.4400764148996
26.6966583647443
28.9679775580397
30.4796987605787
31.3705396051983
32.4781597078444
34.1572246657086
35.6256469936993
35.6998989835937
34.011210013656
31.1999340646749
27.9380673958673
24.1432437349893
19.4359471928829
14.1900924457521
9.70122788109131
7.13688617240621
6.52531513704321
6.9885465122095
7.82913391037738
9.05772810644231
10.8080813202055
12.6131557802161
13.6509782873355
13.6751035194287
13.3515159639533
13.4898361916775
14.1354439586646
14.6682051497115
14.6951847260473
14.4836585483145
14.3705301110516
14.0440567123413
12.798322142863
10.5025541482476
7.9680661688116
6.13383151892144
5.07691607697095
4.12882612771342
2.91888264853761
1.91730583541832
1.72792107808798
2.10480774305376
2.09467406492779
1.19969005352035
0.0164475525232888
-0.575056517552021
-0.673108216126458
-1.4021784875406
-3.63109101072381
-6.99682090489368
-10.4776607982752
-13.7045611689057
-17.2125783781571
-21.2677932455103
-24.8737702183282
-26.4108424880412
-25.2304800882462
-22.2259810140383
-18.6878454258566
-14.953166412519
-10.5588121494936
-5.54568485740773
-1.00417233096171
1.99860393576594
3.71849847104298
5.47376084372994
8.07752969389847
10.9715718835122
13.1525266491886
14.5930263284254
16.2175834868062
18.4888730826745
20.5988382791307
21.4700303365494
21.271733987921
21.3495893914315
22.5406242384715
24.0569647735929
24.4390279989508
23.3340326970922
21.7339287984746
20.3871517658442
18.6148047544064
15.2575564338233
10.5438314550938
6.27872859466793
3.91450661459007
2.95746761854591
1.82819384503671
0.0400956344976144
-1.24945351148509
-1.07384265892285
-0.315441486621658
-0.744967575444655
-2.57425250538259
-3.8712843660956
-2.84273218176817
-0.0645195274069295
2.37331970657205
3.72354061931638
5.48918580657587
8.94226477551927
12.5805005622928
13.3024771324018
10.1623896635128
5.71297744772629
2.74768729172489
0.508050925528931
-4.27946664507297
-12.2494564536109
-18.7288693451522
-17.7338588093789
-8.47818591677789
3.37911416800754
11.2720200813759
13.1579284215797
10.3825059880414
2.46141099341188
-14.2318781902996
-41.6346523999336
-76.2749403031464
-113.523254858219
-155.468036131094
-210.837885752063
-283.715939410757
-362.902932664448
-425.632240378461
-452.937102140971
-438.909292748302
-383.365557995212
-280.462734938028
-124.595570886907
66.6490010845786
241.600871453148
341.863770136441
353.336343858418
330.26608033712
357.165728387746
473.79704268626
632.483149394462
733.053203353445
707.123546682753
574.280250446909
419.749579683832
318.998199003515
281.808792188268
261.807887114775
210.360667888728
117.276451210474
6.2881718597754
-95.7089797620578
-177.060304760944
-234.276534534443
-259.40457319833
-243.427357561052
-191.491353776984
-128.306940757887
-83.8777263606983
-73.6098941524445
-92.5950005682618
-126.239299906474
-162.012478276199
-190.544670830715
-201.259781260537
-184.768101177933
-142.843363920372
-93.2677265383297
-59.9785428802521
-55.7040254525122
-73.8967766105109
-97.2599626699251
-112.848473297141
-118.664444679784
-118.266248135175
-113.068280154362
-101.771153372224
-85.4039898942691
-69.5953470261288
-60.5075170941091
-59.5744576920216
-63.2945960865773
-67.4595182202684
-70.1201993149229
-70.5263757438917
-67.25980556939
-59.3592330403914
-49.0606477292119
-41.5469591092993
-40.6364396887562
-44.9840002866713
-49.397270180874
-49.9356820624604
-47.0753636519945
-43.8522122200398
-41.9650377212683
-40.6448571212081
-38.8724228077094
-37.2242428717245
-36.7577790040952
-36.8553020230654
-35.4513444281714
-31.6262481868709
-27.067264517811
-24.252908663439
-23.5979726104021
-23.2452824735434
-21.7093743854951
-19.824189746303
-19.441199124138
-20.7088345692011
-21.6552859686517
-20.6793531884092
-18.6229877331895
-17.6216246012073
-18.2091671490295
-18.486681768577
-16.4472361126579
-12.4009005519453
-8.36174967980105
-5.31804240978011
-2.09474350315188
2.65669226244702
8.02950119788009
11.3324595140533
11.0058242123329
8.30253974644791
5.64488900174403
3.85984194735511
1.84927074870372
-1.05879724226176
-3.38716251322936
-2.84515992835109
0.947342742886946
5.90237168943817
9.82935060412969
12.7098306343481
16.0616490595234
20.4073399185384
24.2630282347984
25.9379996184209
25.6807508060808
25.2941238476322
25.7431008608024
25.936151060812
24.2790639613286
20.9310486739096
17.8026691045571
16.3450765360874
16.0547602993083
15.5787904923145
14.8113890144042
15.100187577264
17.2812971892369
20.2189783809918
21.8872750920951
21.6645592642856
20.9040527335038
21.1128164390772
22.1827774939579
22.9548086557034
23.2295092552094
24.4136262118778
27.8563795143906
33.0651735817093
38.2003171577972
42.2549943610199
46.1146263530501
51.186612612606
57.4868252314675
63.7185897783911
69.1575049119231
74.7251927955029
81.7428135366754
90.0041716084447
97.7724963274523
103.777532923994
108.630246964342
113.829604301776
119.712857301316
125.075178388518
128.928791922465
131.99377460877
135.859002288061
140.88013382524
145.627132037135
148.698029665221
150.584282623907
153.152388624393
157.39068020676
162.316740697233
166.393816984393
169.501879631998
172.804274007287
176.674032114271
179.470450321623
178.911558541491
174.422262018976
167.552778578191
160.031060444629
152.002218272899
142.637823381068
132.11613229941
122.186639785177
114.455188573007
108.579992934382
102.725625383646
95.7033574058337
88.0849823419245
80.9892189295036
74.2861123419214
66.6310886087974
57.2221450154698
46.8699066881261
36.9248575480653
27.4943860613424
17.3336600441114
5.55971514995685
-7.08209989386156
-19.0565217220256
-29.8349957862131
-40.2604568622285
-51.0487984079409
-61.5133195081392
-70.2948582262222
-77.1584102410873
-83.4269682923438
-90.386791662673
-97.6945540504312
-103.854922066277
-108.13705364417
-111.419987718428
-114.888592173988
-118.354758632348
-120.476736711721
-120.626846752636
-119.946178400943
-120.15373800066
-121.60386196938
-123.066662911244
-123.463629524914
-123.278645397158
-123.860774237712
-125.635812340617
-127.6367626913
-128.947226157139
-130.08013935303
-132.403259087816
-136.325653670164
-140.603273324436
-143.642205862817
-145.071675801884
-145.587269024363
-145.442632684944
-143.777322662705
-139.785490331863
-134.164610179616
-128.810072052825
-125.011242618881
-122.407774045618
-119.98430657898
-117.699140259896
-116.534507146187
-116.917573281058
-117.711019378545
-117.273019797609
-115.320162538807
-113.171442411284
-112.001100825504
-111.326268707226
-109.666815573675
-106.481193392726
-102.816232168616
-99.8142223603276
-97.0645795463004
-93.0194159199808
-86.9872887310845
-80.1250613024188
-74.1251532927691
-69.2809040635751
-64.3998399853069
-58.6063420600499
-52.6296610699514
-47.9056366893119
-44.7292867722943
-41.931354053768
-38.5053962259266
-35.0158528540468
-32.9093429284643
-32.628941278715
-33.0073182891452
-32.7127745761733
-31.8155963589425
-31.4208277124882
-31.918814486438
-32.2548885876323
-31.2464045010137
-29.2090303307133
-27.6904452096817
-27.5906517931086
-28.0935113496879
-27.7874096388226
-26.4823430429499
-25.3313151813373
-25.1300401537295
-25.0998747722472
-23.8257211484024
-21.1495649891904
-18.5130138630451
-17.2475588278694
-16.9998588422914
-16.3074894626755
-14.5315155685549
-12.6039528352685
-11.6515178068792
-11.3769182079719
-10.3856833242395
-8.04663303287482
-5.41893411811744
-3.98975799058681
-3.83940788105218
-3.59098421095397
-2.14861315631787
0.090577943112264
2.09552073352465
3.87766565714918
6.64603348312968
11.166732024314
16.4965698117206
20.8092706659828
23.2798038171972
24.6080142991142
25.5950216675375
25.7848011549454
24.0662436485966
20.4455818787656
16.550337954677
14.0628933412565
13.0552711459029
12.387142019523
11.6226985916355
11.8917958115786
14.5015788140628
19.1129529734908
23.9353408256334
27.7593766589623
31.1933489617425
35.4748467874421
40.4242774039176
44.2829439691706
45.7345211653035
45.520431110446
45.5399594154741
46.5858370598866
47.639730749528
47.5940915142573
47.0663052384224
47.842978867058
50.6247989930181
54.0208419459254
56.1497172406071
56.8122834135386
57.4596790449001
59.0698838593478
60.7701254027297
61.0211696873264
59.7672141741496
58.6598446095688
59.0022482599155
60.0838350888002
60.0882444569222
58.3919075481906
56.2608639973852
55.0835350692665
54.5271709806302
53.0787846393133
50.2381120034984
47.4107719845786
46.2589023233705
46.647862928328
46.8913159391412
45.9752937249859
44.8286252935485
44.9756405745423
46.3892022163786
47.4345873544931
47.0116702064935
46.0460836101267
46.2991135582011
48.0168170149014
49.5200396422223
49.3117945662846
47.9511567084732
47.2267639462013
47.7228660992946
48.0127839545343
46.5758852723998
43.9098840996412
42.0046299825238
41.8085830267639
42.000878373998
40.7079253711353
37.937621638663
35.5422666345095
34.7652854946973
34.6188354547656
33.2499569400875
30.4901259646959
28.1809644000435
27.7823566007415
28.381881221015
27.7484274280476
25.0905514142647
21.9289985482936
19.9680796734737
18.8113675653825
16.57450751681
12.5964760299796
8.62296008356063
6.80760759561497
7.08633589721333
7.35818161801285
6.24342079262453
4.79411677801596
4.91225683774684
6.59988323209049
7.74365371454904
6.78895797776599
4.78525828545268
4.04711564259897
5.13337952970055
6.11771602130671
5.144199185955
2.91423259117137
1.80192229094125
2.7430707680235
4.0277052901003
3.64220257542799
2.07708002234641
1.81986803410202
4.10238163545878
7.16190228996653
8.36429583343399
7.45700816849511
6.68151064463144
7.5976010854088
8.86122857180236
7.99100408410155
4.84968897232557
2.17426791006882
2.29765354581247
4.28091380024649
5.25406078227375
4.25677120600187
3.50484306864308
5.34310860228827
8.89864908934958
10.9769741139481
10.1791995325617
8.83159112058477
10.0367278836602
13.5816604045422
16.0980829428779
15.3820502621037
13.2421768181926
13.0511595841722
15.1456829661485
16.2002219564245
13.5728693035487
8.97866765441212
6.5311500334065
7.54040884498639
8.85566132669642
7.00207431276611
2.67784355838025
-0.429389740026215
-1.01246030924586
-2.4207033204296
-8.46586552382355
-18.1122794849841
-26.2680416971574
-29.9297399471613
-31.4849868956392
-34.3889434297226
-36.8444823949716
-32.6532915395975
-19.4061670794581
-3.74749602056838
4.13758065444168
1.14032727228443
-6.2932106786907
-11.7578903865792
-18.8605205123902
-38.048655535913
-72.7140626111613
-111.610676273429
-138.693799397577
-150.630432256711
-161.749622086657
-190.020790617316
-239.730585468582
-299.61626673373
-355.179774185626
-396.326641086129
-409.953295748383
-371.759227746679
-258.896041496053
-80.3214698569375
108.220163547913
232.860746482322
259.227632539925
226.993850049923
222.467686659704
307.118875763328
464.34627839506
612.104170162004
668.6036496623
612.038247206889
486.504585376084
358.783372419344
270.214155891268
220.796830434221
185.788562803562
139.862193392962
69.6800125484809
-24.474724145192
-129.378715204337
-220.848103760441
-272.471260273912
-270.43046053073
-223.585074862062
-158.996262444626
-105.991021042025
-81.9449041283446
-89.0415618866281
-119.325606773742
-159.830847122679
-194.93434335823
-209.750348852552
-196.708078543239
-160.563676275292
-115.73448163412
-77.185087536403
-53.1031584554231
-45.0559391465727
-52.2762543836361
-72.7671660644478
-99.9809079308362
-121.607070172354
-125.680312216306
-109.76847016347
-83.426123434278
-60.2444099779986
-47.0735458259936
-41.0382788348101
-36.1233340936642
-30.817234378359
-28.3823425723725
-30.8669739278995
-35.1126971751186
-35.6560454071718
-30.5970723438251
-23.2621630474325
-18.1462537500982
-16.4713093141045
-16.373029404123
-16.4516409171982
-17.5757852441114
-20.8848182219095
-25.2490393417792
-27.9452588019553
-27.7144128402104
-26.0756523707194
-25.1138000335891
-24.6606389135798
-22.5763105109008
-17.7435719444895
-11.858553531234
-7.70851817525505
-6.16313175952976
-5.65017786592324
-4.56767388500366
-3.34982529056313
-3.56146957195638
-5.40320748988211
-7.04311626866871
-6.68528246733059
-4.65704491312245
-2.81037163837648
-2.07149324189641
-1.33945210205001
0.911956430246612
4.51546567970227
7.75138455760212
9.48695868719622
10.4483890281258
11.9757993305687
13.9650286490775
14.7565237470916
13.1501404110615
9.94012220134377
7.01006486298163
5.19861803139354
3.67403257456677
1.50040118855035
-0.795965403386559
-1.78100525971555
-1.05337382598996
0.0126913412495746
-0.258051653165186
-2.01359324648249
-3.98244935487174
-5.26833583245632
-6.43885777502953
-8.53851725762866
-11.4302169885057
-13.724773399427
-14.4127490525922
-14.0411974489578
-13.876716345326
-14.1506971716591
-13.6841356975999
-11.3718901306014
-7.580458534822
-3.66246867644873
-0.287774401694577
3.17066718505031
7.39459817211856
11.7188682794711
14.5219283260028
15.0229635638446
14.2322171987577
13.8514886563567
14.5260558685454
15.6244957015834
16.6870775972566
18.5147862364276
22.3904012905095
28.4220663273717
35.1969946791387
41.2687423816405
46.6503149385857
52.4939901277561
59.4653549493589
66.931093206406
73.9271856306642
80.5223975722488
87.7214822514378
96.0293195051624
104.58666222153
112.046832457282
118.090530335237
123.658182940758
129.659732710146
135.871459166026
141.40936858927
146.050895820434
150.575887056076
155.645521508268
160.721116515415
164.508436884176
166.418071473905
167.190843949658
167.91342606614
168.724474248602
168.866050015357
167.927030781942
166.5539401363
165.637673672466
165.040098183467
163.577609139178
160.355932524041
155.778131567926
150.954073708623
146.297019322254
141.115160478917
134.671671957971
127.261377771517
119.859190952635
112.809046270006
105.315067936494
96.4650367055653
86.5088039340354
76.7568261407044
68.2217585314219
60.7088473150756
53.4272574715064
46.2053414131185
39.6555946849502
34.0847402176207
28.6468301132465
21.9508786637205
13.4434360027998
3.87043912304837
-5.70285005789857
-15.0189143853254
-24.5045884217576
-34.19436517874
-43.2365546600718
-50.6968427296922
-56.6181306261188
-61.9362967625598
-67.3451134268169
-72.5642279204358
-76.9110316037024
-80.3692870051228
-83.7419069882107
-87.7336448260883
-92.2241718953978
-96.6880073535228
-101.138752272484
-106.259078888419
-112.485565773712
-119.254288140256
-125.439758101864
-130.454528673509
-134.60929795881
-138.329145528086
-141.351194345536
-143.034907580558
