Value(μV)
-10.2999963760376
-0.667592406272888
2.76573991775513
-1.71666610240936
-9.15555286407471
-11.2537002563477
-19.6462898254395
-28.8972129821777
-18.8833274841309
-7.82036781311035
-8.29721927642822
-7.24814605712891
-3.71944332122803
-10.0138854980469
-16.6898097991943
-10.0138854980469
-1.81203651428223
3.5287024974823
7.43888664245605
3.8148136138916
-1.9074068069458
-4.10092449188232
-4.00555419921875
-1.71666610240936
0.858333051204681
-4.10092449188232
-15.2592544555664
-13.8286991119385
-3.24259161949158
-2.47962880134583
-4.00555419921875
0.47685170173645
2.5749990940094
4.95925760269165
6.48518323898315
1.62129580974579
4.00555419921875
1.81203651428223
-10.3953666687012
-9.25092315673828
1.04907369613647
9.25092315673828
11.1583299636841
6.48518323898315
2.76573991775513
2.95648050308228
2.95648050308228
1.62129580974579
-3.43333220481873
-8.3925895690918
-4.1962947845459
0.9537034034729
0.286111027002335
1.04907369613647
4.10092449188232
8.96481227874756
17.6435127258301
17.6435127258301
5.43610954284668
2.47962880134583
3.5287024974823
-4.7685170173645
-3.43333220481873
2.09814739227295
-10.0138854980469
-17.5481433868408
-14.4009208679199
-20.409252166748
-23.9379558563232
-20.3138828277588
-22.7935104370117
-30.5185089111328
-36.1453590393066
-36.8129501342773
-33.6657295227051
-31.2814712524414
-28.7064723968506
-18.3111057281494
-9.34629344940186
-10.1092557907104
-14.4009208679199
-19.4555492401123
-20.8861045837402
-21.839807510376
-19.1694374084473
-4.86388731002808
-1.04907369613647
-13.8286991119385
-20.0277709960938
-8.3925895690918
12.588885307312
18.1203651428223
11.7305517196655
9.82314491271973
7.82036781311035
12.0166625976563
20.5999927520752
20.5046234130859
11.2537002563477
8.10647869110107
12.6842555999756
1.81203651428223
-1.81203651428223
-1.33518481254578
0.572222054004669
-6.00833129882813
-11.8259220123291
-9.9185152053833
-8.48795986175537
-12.588885307312
-20.1231422424316
-23.4611034393311
-19.1694374084473
-9.82314491271973
-4.48240613937378
-6.86666440963745
-6.86666440963745
-8.77407169342041
-9.34629344940186
0.381481349468231
4.00555419921875
-4.48240613937378
-10.204626083374
-10.8722190856934
-11.0629596710205
-6.77129411697388
3.5287024974823
11.4444408416748
19.1694374084473
22.2212886810303
10.7768487930298
6.48518323898315
23.4611034393311
34.6194343566895
32.3305435180664
39.864803314209
47.8759117126465
43.2027626037598
32.04443359375
27.8481388092041
30.70924949646
26.0361022949219
32.1398048400879
48.1620216369629
45.1101722717285
28.4203605651855
18.1203651428223
15.2592544555664
7.82036781311035
-1.43055510520935
-1.52592539787292
-1.9074068069458
-8.20184898376465
-9.34629344940186
-13.7333288192749
-29.8509159088135
-43.3935050964355
-47.6851692199707
-43.4888763427734
-35.4777679443359
-36.3360977172852
-36.7175827026367
-32.4259147644043
-40.8185043334961
-50.9277610778809
-48.6388740539551
-50.9277610778809
-54.7425765991211
-43.2027626037598
-32.1398048400879
-26.6083240509033
-15.35462474823
-17.2620315551758
-28.8972129821777
-23.3657341003418
-15.5453653335571
-21.0768451690674
-25.3685111999512
-25.6546211242676
-20.8861045837402
-6.6759238243103
0
-2.8611102104187
-3.71944332122803
-4.00555419921875
-1.14444410800934
-1.52592539787292
-10.4907369613647
-18.0249938964844
-25.9407329559326
-55.6009063720703
-95.4657135009766
-119.022186279297
-143.818466186523
-191.026794433594
-231.940673828125
-233.561965942383
-187.593460083008
-96.6101531982422
3.8148136138916
122.264778137207
289.639709472656
474.181335449219
657.9599609375
815.225646972656
942.16357421875
1074.25146484375
1117.07275390625
988.704284667969
810.743286132813
651.284057617188
445.951721191406
162.41569519043
-120.83422088623
-297.841583251953
-407.612823486328
-500.789642333984
-560.109985351563
-599.497985839844
-615.234069824219
-603.217407226563
-570.79150390625
-513.473937988281
-461.687805175781
-439.943389892578
-430.501708984375
-410.378570556641
-372.516540527344
-324.735992431641
-279.244354248047
-225.646224975586
-164.60920715332
-122.93236541748
-105.384223937988
-108.149963378906
-131.706436157227
-160.794387817383
-179.58235168457
-183.77864074707
-172.524948120117
-146.488845825195
-111.297187805176
-76.8684921264648
-48.3527641296387
-34.1425819396973
-37.4805450439453
-49.4018363952637
-61.2277565002441
-62.1814613342285
-52.1675758361816
-41.7722091674805
-22.6981410980225
2.47962880134583
18.1203651428223
25.4638805389404
24.5101776123047
20.3138828277588
19.6462898254395
17.6435127258301
19.6462898254395
34.9055442810059
51.1185035705566
56.2685012817383
62.6583137512207
69.8110885620117
69.5249786376953
71.2416458129883
69.7157211303711
65.5194244384766
60.0833129882813
49.4018363952637
50.9277610778809
56.936092376709
63.6120147705078
78.012939453125
76.4870147705078
73.8166427612305
79.1573791503906
67.5222015380859
53.121280670166
42.7259140014648
31.0907306671143
26.4175834655762
17.8342533111572
14.0194396972656
28.4203605651855
38.2435073852539
40.1509132385254
45.0148010253906
40.2462844848633
31.3768424987793
36.9083213806152
43.679615020752
39.3879508972168
37.4805450439453
42.9166526794434
48.8296127319336
53.2166481018066
52.6444282531738
57.0314636230469
68.6666412353516
70.9555358886719
67.903678894043
55.5055389404297
37.3851737976074
41.1999855041504
49.2110939025879
53.9796104431152
62.8490524291992
58.1759071350098
53.121280670166
54.2657241821289
45.7777633666992
35.9546165466309
35.2870254516602
38.9110984802246
36.8129501342773
33.4749908447266
40.7231369018555
60.9416465759277
60.5601654052734
46.5407257080078
45.4916534423828
38.0527648925781
23.2703628540039
27.0851764678955
25.2731399536133
15.0685138702393
26.8944358825684
41.5814666748047
33.6657295227051
20.5999927520752
25.4638805389404
26.7990646362305
13.0657367706299
17.738883972168
39.5786895751953
48.734245300293
39.197208404541
37.3851737976074
47.017578125
39.1018409729004
34.3333206176758
36.7175827026367
23.4611034393311
21.4583263397217
25.8453617095947
17.0712909698486
25.2731399536133
48.734245300293
49.8786888122559
38.3388748168945
46.9222068786621
54.6472053527832
43.8703575134277
33.4749908447266
24.891658782959
20.5999927520752
21.4583263397217
24.0333251953125
26.8944358825684
18.8833274841309
9.537034034729
15.35462474823
18.6925868988037
6.6759238243103
-6.19907188415527
-8.86944198608398
-5.62685012817383
-4.29166507720947
-5.43610954284668
-5.43610954284668
-2.5749990940094
-2.1935179233551
-10.8722190856934
-15.35462474823
-9.82314491271973
-5.24536848068237
-7.34351634979248
-13.5425882339478
-18.1203651428223
-17.6435127258301
-9.44166374206543
-13.5425882339478
-30.3277683258057
-35.7638778686523
-37.9573936462402
-33.6657295227051
-23.3657341003418
-21.9351787567139
-16.9759197235107
-11.2537002563477
-10.2999963760376
-12.7796258926392
-18.8833274841309
-22.5074005126953
-27.2759170532227
-33.3796195983887
-28.7064723968506
-23.3657341003418
-27.5620288848877
-28.4203605651855
-24.4148063659668
-15.6407356262207
-4.38703584671021
-10.4907369613647
-16.8805503845215
-9.537034034729
-11.9212923049927
-15.2592544555664
-11.0629596710205
-6.6759238243103
-4.1962947845459
-13.5425882339478
-22.8888816833496
-24.7009181976318
-25.4638805389404
-20.3138828277588
-23.7472152709961
-37.5759124755859
-41.3907279968262
-43.2981338500977
-45.1101722717285
-42.1536903381348
-45.8731346130371
-50.832389831543
-49.3064651489258
-40.3416519165039
-38.3388748168945
-42.7259140014648
-37.4805450439453
-37.3851737976074
-43.7749862670898
-37.2898025512695
-23.8425846099854
-24.3194370269775
-28.4203605651855
-23.3657341003418
-18.5972156524658
-1.62129580974579
-8.48795986175537
-5.34073925018311
-8.29721927642822
-15.2592544555664
-15.6407356262207
-9.15555286407471
-7.91573810577393
-11.1583299636841
-10.0138854980469
-8.67870044708252
-5.1499981880188
-4.10092449188232
-12.9703664779663
-19.2648086547852
-20.409252166748
-19.5509204864502
-20.1231422424316
-27.5620288848877
-34.3333206176758
-35.6685066223145
-28.6111011505127
-24.891658782959
-33.4749908447266
-32.3305435180664
-23.4611034393311
-17.6435127258301
-8.20184898376465
-3.8148136138916
-3.05185079574585
5.05462789535522
4.29166507720947
-5.24536848068237
-1.14444410800934
3.43333220481873
-5.05462789535522
-11.9212923049927
-12.9703664779663
-7.0574049949646
-0.9537034034729
-13.256477355957
-30.8046188354492
-33.0935096740723
-29.7555465698242
-22.125919342041
-4.57777643203735
-5.81759071350098
-1.71666610240936
-2.1935179233551
2.47962880134583
6.58055353164673
10.6814785003662
13.9240694046021
18.4064750671387
26.7990646362305
35.1916542053223
39.5786895751953
46.2546157836914
44.7286911010742
29.3740653991699
27.3712882995605
37.9573936462402
35.0009155273438
19.074068069458
3.91018390655518
-2.09814739227295
-1.43055510520935
1.52592539787292
-4.29166507720947
-11.2537002563477
-7.82036781311035
-10.2999963760376
-19.1694374084473
-20.3138828277588
-11.8259220123291
-6.86666440963745
-12.0166625976563
-15.4499950408936
-15.35462474823
-15.4499950408936
-13.7333288192749
-2.5749990940094
7.15277528762817
7.34351634979248
7.91573810577393
3.147221326828
2.28888821601868
8.29721927642822
2.28888821601868
-6.1037015914917
-3.91018390655518
4.7685170173645
3.8148136138916
-6.48518323898315
-5.53147983551025
1.04907369613647
-0.572222054004669
-6.86666440963745
-11.1583299636841
-8.0111083984375
1.33518481254578
5.91296100616455
-0.286111027002335
-9.15555286407471
-9.25092315673828
1.04907369613647
7.15277528762817
-0.9537034034729
-3.62407302856445
2.28888821601868
-1.81203651428223
-10.3953666687012
-13.5425882339478
-29.5648059844971
-66.4731292724609
-101.283302307129
-129.131439208984
-167.565689086914
-214.869369506836
-242.812881469727
-238.998077392578
-193.411056518555
-99.8527450561523
8.0111083984375
144.962921142578
333.414703369141
543.992431640625
742.934936523438
887.611755371094
1007.20617675781
1121.65051269531
1110.4921875
954.657104492188
781.559936523438
603.312744140625
366.126739501953
73.0536804199219
-193.315673828125
-347.434143066406
-435.556335449219
-509.182250976563
-560.109985351563
-598.544250488281
-617.427551269531
-601.786865234375
-550.477600097656
-491.538726806641
-452.150787353516
-419.820220947266
-389.778564453125
-359.260070800781
-313.768432617188
-261.028625488281
-218.493453979492
-180.631423950195
-143.436996459961
-121.024963378906
-110.629592895508
-107.387001037598
-113.681442260742
-120.73885345459
-128.845321655273
-127.986999511719
-105.956443786621
-77.1546020507813
-49.0203552246094
-25.7499923706055
-13.3518476486206
-18.9786968231201
-38.5296173095703
-54.0749816894531
-62.7536849975586
-64.8518295288086
-57.4129447937012
-43.1073951721191
-21.7444381713867
0.9537034034729
15.4499950408936
19.4555492401123
18.1203651428223
16.9759197235107
12.0166625976563
8.0111083984375
7.53425693511963
11.4444408416748
28.3249912261963
43.679615020752
39.0064697265625
30.8999900817871
29.8509159088135
26.1314735412598
24.7009181976318
23.9379558563232
23.8425846099854
30.70924949646
34.2379531860352
39.6740608215332
50.0694274902344
59.1296119689941
61.8953514099121
55.1240577697754
48.5435028076172
43.3935050964355
35.2870254516602
34.6194343566895
47.017578125
60.1786842346191
65.7101669311523
63.2305335998535
59.0342407226563
61.99072265625
67.1407165527344
63.2305335998535
58.5573883056641
57.6036834716797
51.404613494873
49.3064651489258
53.3120193481445
51.7860946655273
48.4481315612793
53.3120193481445
66.0916442871094
71.1462707519531
62.6583137512207
52.2629470825195
42.1536903381348
32.9027671813965
34.5240631103516
46.5407257080078
53.121280670166
54.5518341064453
59.0342407226563
57.6036834716797
49.8786888122559
48.4481315612793
55.7916488647461
61.99072265625
61.7999801635742
63.6120147705078
67.4268264770508
62.1814613342285
55.887020111084
56.1731300354004
50.2601699829102
42.9166526794434
41.3907279968262
40.6277656555176
35.7638778686523
18.787956237793
4.10092449188232
9.06018257141113
17.1666603088379
19.5509204864502
25.3685111999512
30.6138782501221
34.2379531860352
33.8564720153809
21.4583263397217
9.9185152053833
10.2999963760376
18.5972156524658
35.6685066223145
50.6416511535645
50.355541229248
45.0148010253906
41.8675804138184
30.70924949646
12.302773475647
0.0953703373670578
-5.7222204208374
-14.3055505752563
-14.8777732849121
-0.286111027002335
14.1148099899292
19.4555492401123
17.9296245574951
11.7305517196655
1.52592539787292
-6.86666440963745
-13.1611070632935
-23.3657341003418
-31.6629524230957
-28.9925842285156
-16.022216796875
-3.8148136138916
0.0953703373670578
2.00277709960938
2.95648050308228
0
-4.29166507720947
-12.588885307312
-20.8861045837402
-15.5453653335571
-2.00277709960938
0.572222054004669
-4.1962947845459
-0.47685170173645
3.91018390655518
0.667592406272888
2.09814739227295
8.29721927642822
10.8722190856934
15.7361059188843
19.9324016571045
10.1092557907104
-4.29166507720947
-8.48795986175537
-7.15277528762817
-9.9185152053833
-8.29721927642822
-0.47685170173645
-5.53147983551025
-16.1175880432129
-15.35462474823
-19.074068069458
-27.2759170532227
-21.6490669250488
-15.0685138702393
-11.635181427002
-11.7305517196655
-25.2731399536133
-33.6657295227051
-24.2240657806396
-14.9731435775757
-14.5916624069214
-14.5916624069214
-16.7851791381836
-21.6490669250488
-23.2703628540039
-29.1833248138428
-37.1944313049316
-33.1888771057129
-27.657398223877
-29.1833248138428
-26.4175834655762
-25.7499923706055
-39.197208404541
-49.783317565918
-51.4999847412109
-58.7481307983398
-57.3175735473633
-45.9685020446777
-47.8759117126465
-46.5407257080078
-30.1370277404785
-27.8481388092041
-32.6166572570801
-30.5185089111328
-32.7120246887207
-32.7120246887207
-34.810173034668
-41.7722091674805
-43.2981338500977
-45.6823921203613
-48.5435028076172
-48.9249839782715
-39.1018409729004
-23.1749935150146
-22.8888816833496
-25.4638805389404
-23.7472152709961
-22.4120292663574
-12.6842555999756
-5.91296100616455
-6.48518323898315
-9.9185152053833
-15.5453653335571
-12.7796258926392
0.286111027002335
11.3490705490112
7.53425693511963
0.9537034034729
4.48240613937378
6.6759238243103
10.6814785003662
12.7796258926392
1.04907369613647
-3.33796191215515
4.00555419921875
0
-4.10092449188232
-1.62129580974579
-2.5749990940094
0.0953703373670578
0.762962698936462
-0.47685170173645
-3.147221326828
-11.7305517196655
-10.2999963760376
-5.7222204208374
-6.00833129882813
1.04907369613647
6.86666440963745
4.10092449188232
1.9074068069458
2.95648050308228
6.38981294631958
9.63240432739258
4.7685170173645
-3.33796191215515
0.47685170173645
14.2101802825928
25.4638805389404
26.1314735412598
17.1666603088379
8.86944198608398
3.91018390655518
0
2.38425850868225
10.9675893783569
12.3981437683105
10.1092557907104
15.2592544555664
16.2129573822021
8.48795986175537
4.1962947845459
0.286111027002335
-11.2537002563477
-14.8777732849121
-3.24259161949158
3.05185079574585
2.47962880134583
4.48240613937378
4.10092449188232
6.1037015914917
7.82036781311035
6.58055353164673
5.81759071350098
-0.667592406272888
0
22.8888816833496
17.0712909698486
28.5157318115234
34.0472106933594
18.0249938964844
-1.71666610240936
-1.81203651428223
10.3953666687012
16.9759197235107
18.1203651428223
15.8314762115479
10.6814785003662
14.3055505752563
14.8777732849121
10.1092557907104
12.302773475647
6.19907188415527
-0.286111027002335
-0.0953703373670578
-2.00277709960938
-3.43333220481873
-9.537034034729
-14.4962921142578
-16.2129573822021
-21.6490669250488
-24.9870281219482
-23.8425846099854
-27.4666576385498
-37.7666549682617
-47.8759117126465
-54.6472053527832
-48.9249839782715
-31.7583236694336
-21.0768451690674
-11.7305517196655
-1.43055510520935
2.8611102104187
8.77407169342041
4.1962947845459
-12.4935140609741
-11.5398111343384
1.04907369613647
3.43333220481873
0.47685170173645
-4.86388731002808
-6.58055353164673
-4.48240613937378
-5.34073925018311
-11.3490705490112
-20.7907333374023
-21.5536975860596
-11.5398111343384
-4.95925760269165
-3.91018390655518
0.190740674734116
4.57777643203735
8.86944198608398
18.8833274841309
18.9786968231201
6.38981294631958
-1.9074068069458
-13.0657367706299
-35.8592491149902
-42.2490615844727
-76.0101623535156
-109.485153198242
-135.711990356445
-161.080505371094
-198.370300292969
-234.992523193359
-235.469375610352
-182.634201049805
-95.4657135009766
-13.6379585266113
91.1740417480469
259.216583251953
458.254486083984
667.973876953125
847.079345703125
972.491333007813
1093.61169433594
1137.1005859375
1013.02374267578
831.629333496094
663.682189941406
452.150787353516
167.947174072266
-121.311073303223
-304.994354248047
-412.476715087891
-510.326690673828
-570.123901367188
-597.209045410156
-620.670166015625
-619.62109375
-577.944274902344
-520.912780761719
-463.976715087891
-422.681335449219
-407.994323730469
-382.244323730469
-331.793426513672
-285.157318115234
-241.859176635742
-197.988830566406
-169.949951171875
-146.393478393555
-127.128662109375
-127.700881958008
-133.899963378906
-151.066619873047
-167.661056518555
-162.224945068359
-150.685134887695
-127.510147094727
-87.6453399658203
-52.8351669311523
-35.1916542053223
-25.8453617095947
-27.4666576385498
-42.3444290161133
-49.1157264709473
-48.066650390625
-44.5379486083984
-33.6657295227051
-12.8749961853027
16.022216796875
34.2379531860352
29.278694152832
19.5509204864502
17.9296245574951
13.5425882339478
11.3490705490112
23.0796222686768
32.2351760864258
37.099063873291
51.4999847412109
60.9416465759277
58.0805358886719
53.0259094238281
49.9740562438965
44.5379486083984
31.9490642547607
24.9870281219482
30.0416564941406
35.9546165466309
38.3388748168945
44.6333198547363
59.1296119689941
72.1953506469727
71.5277557373047
61.1323890686035
51.6907234191895
54.3610954284668
66.3777542114258
65.3286819458008
51.6907234191895
44.4425773620605
40.2462844848633
44.7286911010742
63.5166473388672
69.1434936523438
60.5601654052734
63.5166473388672
65.0425720214844
60.274055480957
65.9009017944336
62.5629425048828
52.0722045898438
57.6990547180176
61.7046089172363
67.903678894043
75.9147872924805
69.6203460693359
65.3286819458008
61.99072265625
56.7453536987305
59.8925743103027
65.805534362793
69.9064559936523
70.4786834716797
67.4268264770508
63.6120147705078
59.9879455566406
52.9305381774902
45.0148010253906
37.0036926269531
28.5157318115234
24.2240657806396
22.6981410980225
26.8944358825684
30.1370277404785
23.1749935150146
17.2620315551758
14.1148099899292
11.1583299636841
7.43888664245605
2.38425850868225
-1.52592539787292
-7.0574049949646
-0.858333051204681
16.4990692138672
32.3305435180664
44.9194297790527
48.3527641296387
45.1101722717285
39.864803314209
33.0935096740723
26.8944358825684
25.9407329559326
31.9490642547607
32.8073959350586
33.761100769043
41.0092468261719
40.1509132385254
35.382396697998
24.7962875366211
26.6083240509033
20.9814739227295
10.8722190856934
11.8259220123291
14.2101802825928
15.1638841629028
23.6518440246582
35.0962867736816
40.2462844848633
36.9083213806152
33.5703582763672
25.0823993682861
4.29166507720947
-4.57777643203735
7.24814605712891
12.4935140609741
8.10647869110107
10.9675893783569
14.3055505752563
9.15555286407471
1.33518481254578
-4.7685170173645
-10.3953666687012
-12.6842555999756
-10.6814785003662
-4.29166507720947
1.14444410800934
-0.667592406272888
-4.1962947845459
-2.76573991775513
-2.28888821601868
2.5749990940094
9.25092315673828
3.05185079574585
-2.8611102104187
1.04907369613647
0
-8.86944198608398
-14.9731435775757
-17.9296245574951
-21.4583263397217
-23.9379558563232
-28.7064723968506
-30.1370277404785
-19.9324016571045
-17.738883972168
-29.0879535675049
-40.5323944091797
-39.5786895751953
-23.6518440246582
-16.2129573822021
-16.30832862854
-9.15555286407471
-6.00833129882813
-9.25092315673828
-9.537034034729
-9.9185152053833
-17.2620315551758
-24.7009181976318
-23.4611034393311
-23.1749935150146
-23.8425846099854
-20.409252166748
-22.7935104370117
-29.278694152832
-28.4203605651855
-27.657398223877
-33.1888771057129
-32.5212860107422
-27.1805477142334
-25.7499923706055
-23.0796222686768
-22.6981410980225
-21.9351787567139
-15.2592544555664
-12.9703664779663
-14.7824029922485
-17.1666603088379
-12.8749961853027
-2.38425850868225
-4.48240613937378
-12.6842555999756
-13.6379585266113
-14.4962921142578
-16.4036979675293
-21.4583263397217
-29.3740653991699
-26.4175834655762
-14.1148099899292
-13.9240694046021
-20.5046234130859
-16.022216796875
-14.8777732849121
-22.3166599273682
-25.7499923706055
-22.8888816833496
-18.5018463134766
-15.7361059188843
-15.2592544555664
-22.8888816833496
-32.1398048400879
-33.0935096740723
-31.8536930084229
-28.0388793945313
-28.0388793945313
-32.9981384277344
-20.2185115814209
-10.7768487930298
-19.9324016571045
-17.1666603088379
-10.4907369613647
-12.4935140609741
-8.58333015441895
0.47685170173645
-2.09814739227295
-16.5944385528564
-25.4638805389404
-19.7416610717773
-7.72499752044678
0.190740674734116
-0.190740674734116
-2.47962880134583
1.9074068069458
2.67036962509155
-2.28888821601868
-2.38425850868225
-5.24536848068237
-13.3518476486206
-19.6462898254395
-23.1749935150146
-25.0823993682861
-26.7036952972412
-27.7527694702148
-26.0361022949219
-26.6083240509033
-35.0962867736816
-37.0036926269531
-30.8999900817871
-32.5212860107422
-37.3851737976074
-34.9055442810059
-29.0879535675049
-25.9407329559326
-20.3138828277588
-10.8722190856934
-14.1148099899292
-26.1314735412598
-28.9925842285156
-24.6055469512939
-14.3055505752563
-4.38703584671021
-3.71944332122803
-0.762962698936462
1.62129580974579
2.8611102104187
12.588885307312
19.4555492401123
21.9351787567139
20.8861045837402
14.687032699585
11.8259220123291
11.9212923049927
11.1583299636841
10.3953666687012
9.9185152053833
1.14444410800934
-9.44166374206543
-1.43055510520935
2.28888821601868
-11.4444408416748
-8.29721927642822
3.71944332122803
4.95925760269165
2.76573991775513
-10.2999963760376
-16.7851791381836
-7.53425693511963
-8.58333015441895
-13.0657367706299
-7.72499752044678
0.667592406272888
-1.23981440067291
-15.4499950408936
-17.738883972168
-15.6407356262207
-19.074068069458
-9.9185152053833
-1.23981440067291
5.91296100616455
8.3925895690918
-7.24814605712891
-15.9268465042114
-14.2101802825928
-4.29166507720947
18.6925868988037
35.0962867736816
47.017578125
45.8731346130371
30.5185089111328
26.9898052215576
27.1805477142334
26.3222141265869
37.099063873291
40.4370231628418
29.8509159088135
27.8481388092041
28.0388793945313
27.3712882995605
40.2462844848633
44.8240585327148
23.9379558563232
7.53425693511963
11.635181427002
13.9240694046021
2.09814739227295
-14.3055505752563
-20.9814739227295
-17.1666603088379
-11.0629596710205
-7.43888664245605
-6.77129411697388
-2.1935179233551
6.6759238243103
12.8749961853027
12.7796258926392
14.2101802825928
25.0823993682861
30.2323970794678
26.9898052215576
27.943510055542
20.9814739227295
10.1092557907104
6.00833129882813
5.43610954284668
16.2129573822021
31.2814712524414
39.197208404541
36.8129501342773
27.2759170532227
28.7064723968506
28.8972129821777
16.1175880432129
9.44166374206543
0.858333051204681
-4.7685170173645
7.34351634979248
10.7768487930298
0.9537034034729
1.9074068069458
17.0712909698486
24.0333251953125
6.58055353164673
-17.9296245574951
-37.2898025512695
-59.9879455566406
-85.0703430175781
-110.248115539551
-139.717544555664
-169.663833618164
-205.904556274414
-235.373992919922
-234.515670776367
-181.394393920898
-81.9231185913086
16.5944385528564
140.003662109375
324.831390380859
520.340576171875
695.154418945313
838.114562988281
968.676513671875
1096.09130859375
1100.09692382813
950.84228515625
783.085876464844
612.754455566406
377.857299804688
78.5851593017578
-191.217529296875
-342.856384277344
-436.891540527344
-524.346130371094
-579.660949707031
-600.260925292969
-604.838684082031
-598.830383300781
-569.551696777344
-520.149841308594
-466.170227050781
-430.501708984375
-408.852661132813
-378.23876953125
-341.425811767578
-300.321197509766
-256.164733886719
-212.580490112305
-170.903656005859
-137.142547607422
-117.114776611328
-122.550888061523
-139.145324707031
-150.112915039063
-164.704574584961
-168.424026489258
-154.881439208984
-130.657363891602
-90.220344543457
-63.8981285095215
-59.3203506469727
-53.0259094238281
-51.5953521728516
-64.5657196044922
-76.8684921264648
-70.9555358886719
-59.701831817627
-50.2601699829102
-31.1861019134521
-4.38703584671021
13.8286991119385
17.6435127258301
23.2703628540039
28.8018417358398
20.7907333374023
12.302773475647
17.5481433868408
31.9490642547607
45.8731346130371
56.8407211303711
70.6694183349609
70.0971984863281
53.7888717651367
50.4509086608887
45.2055397033691
28.8018417358398
23.2703628540039
24.9870281219482
27.3712882995605
36.431468963623
45.7777633666992
44.3472061157227
44.8240585327148
55.5055389404297
56.936092376709
48.4481315612793
41.1999855041504
37.6712837219238
39.2925796508789
44.9194297790527
58.4620170593262
69.0481262207031
58.9388694763184
46.4453544616699
52.3583183288574
67.4268264770508
77.8221969604492
77.9175643920898
66.0916442871094
58.0805358886719
57.7944259643555
53.0259094238281
58.9388694763184
70.8601608276367
73.8166427612305
78.394416809082
82.3999710083008
77.345344543457
73.6259002685547
78.6805267333984
75.247200012207
57.4129447937012
49.0203552246094
47.6851692199707
45.300910949707
55.4101676940918
61.2277565002441
50.4509086608887
47.1129493713379
54.9333152770996
61.2277565002441
55.7916488647461
43.4888763427734
42.1536903381348
45.4916534423828
41.7722091674805
37.1944313049316
35.2870254516602
31.5675830841064
22.8888816833496
4.29166507720947
-8.29721927642822
1.04907369613647
11.3490705490112
14.4009208679199
13.9240694046021
14.1148099899292
27.4666576385498
43.679615020752
42.4398002624512
30.0416564941406
30.4231376647949
31.4722118377686
23.6518440246582
27.7527694702148
34.810173034668
30.70924949646
23.4611034393311
22.125919342041
23.8425846099854
19.8370304107666
17.4527721405029
11.9212923049927
6.96203470230103
16.9759197235107
20.6953639984131
14.7824029922485
15.9268465042114
22.2212886810303
24.7962875366211
16.4036979675293
10.5861072540283
10.2999963760376
9.15555286407471
15.1638841629028
23.9379558563232
24.891658782959
23.9379558563232
24.4148063659668
22.4120292663574
17.0712909698486
10.204626083374
7.72499752044678
6.96203470230103
4.38703584671021
1.81203651428223
-0.286111027002335
1.71666610240936
3.71944332122803
-1.43055510520935
-9.72777462005615
-16.1175880432129
-13.8286991119385
-9.06018257141113
-10.8722190856934
-12.8749961853027
-9.537034034729
-9.06018257141113
-6.86666440963745
3.33796191215515
2.09814739227295
-9.25092315673828
-15.5453653335571
-21.839807510376
-29.1833248138428
-28.5157318115234
-16.8805503845215
-10.204626083374
-13.5425882339478
-19.2648086547852
-24.5101776123047
-26.0361022949219
-32.9027671813965
-41.2953567504883
-38.3388748168945
-41.5814666748047
-45.8731346130371
-30.2323970794678
-18.4064750671387
-25.177770614624
-33.5703582763672
-39.864803314209
-43.0120239257813
-28.6111011505127
-16.022216796875
-21.4583263397217
-28.1342506408691
-36.1453590393066
-39.7694320678711
-34.810173034668
-32.6166572570801
-34.6194343566895
-40.6277656555176
-40.7231369018555
-37.6712837219238
-42.8212814331055
-41.3907279968262
-34.9055442810059
-37.2898025512695
-37.6712837219238
-42.5351715087891
-53.0259094238281
-43.5842437744141
-32.4259147644043
-35.8592491149902
-30.70924949646
-21.1722145080566
-11.635181427002
-7.53425693511963
-15.9268465042114
-19.9324016571045
-18.1203651428223
-16.9759197235107
-14.0194396972656
-14.2101802825928
-18.6925868988037
-26.6083240509033
-25.7499923706055
-16.2129573822021
-18.8833274841309
-24.9870281219482
-20.8861045837402
-16.1175880432129
-18.3111057281494
-24.3194370269775
-22.9842510223389
-16.8805503845215
-23.4611034393311
-37.2898025512695
-36.431468963623
-30.6138782501221
-24.9870281219482
-10.9675893783569
-4.95925760269165
-9.72777462005615
-14.2101802825928
-13.8286991119385
-8.48795986175537
-13.7333288192749
-22.3166599273682
-13.1611070632935
-1.71666610240936
0.9537034034729
5.53147983551025
2.28888821601868
-8.58333015441895
-9.82314491271973
-1.14444410800934
6.1037015914917
9.82314491271973
15.0685138702393
11.3490705490112
3.147221326828
-0.9537034034729
-9.44166374206543
-10.204626083374
-13.0657367706299
-23.3657341003418
-15.1638841629028
-5.05462789535522
-3.62407302856445
1.71666610240936
-0.47685170173645
3.91018390655518
0.572222054004669
8.48795986175537
15.4499950408936
25.3685111999512
23.8425846099854
9.9185152053833
1.71666610240936
0.47685170173645
3.62407302856445
11.635181427002
25.3685111999512
36.2407302856445
24.0333251953125
-0.286111027002335
-10.2999963760376
-5.7222204208374
-1.43055510520935
-7.15277528762817
-17.9296245574951
-24.0333251953125
-18.5018463134766
-6.19907188415527
2.47962880134583
10.8722190856934
15.35462474823
10.0138854980469
10.6814785003662
14.9731435775757
12.3981437683105
13.9240694046021
22.125919342041
23.7472152709961
12.588885307312
7.15277528762817
17.2620315551758
21.2675857543945
15.7361059188843
19.4555492401123
22.3166599273682
21.9351787567139
28.9925842285156
33.761100769043
33.9518394470215
26.1314735412598
23.1749935150146
35.2870254516602
34.6194343566895
24.5101776123047
23.6518440246582
23.9379558563232
21.839807510376
23.8425846099854
31.2814712524414
34.0472106933594
25.9407329559326
17.8342533111572
13.9240694046021
16.7851791381836
23.6518440246582
18.5018463134766
10.8722190856934
12.0166625976563
10.2999963760376
2.00277709960938
-5.81759071350098
-8.86944198608398
-12.302773475647
-17.6435127258301
-18.0249938964844
-11.8259220123291
0.9537034034729
12.588885307312
16.9759197235107
15.0685138702393
10.8722190856934
9.72777462005615
4.95925760269165
-1.33518481254578
0.9537034034729
5.1499981880188
7.6296272277832
7.72499752044678
1.43055510520935
-2.8611102104187
0.9537034034729
0.0953703373670578
-1.9074068069458
3.05185079574585
-2.8611102104187
-20.7907333374023
-33.6657295227051
-38.4342460632324
-36.431468963623
-30.995361328125
-26.4175834655762
-13.3518476486206
3.62407302856445
1.04907369613647
-7.43888664245605
-6.6759238243103
-8.0111083984375
-6.19907188415527
-3.91018390655518
-4.95925760269165
0.858333051204681
1.71666610240936
0.47685170173645
7.34351634979248
9.537034034729
2.00277709960938
-0.47685170173645
5.81759071350098
6.38981294631958
4.67314672470093
7.53425693511963
13.8286991119385
18.5018463134766
14.1148099899292
11.4444408416748
11.1583299636841
7.15277528762817
8.48795986175537
12.1120328903198
11.1583299636841
8.10647869110107
5.34073925018311
5.91296100616455
0.190740674734116
-15.6407356262207
-27.0851764678955
-49.4018363952637
-87.0731201171875
-117.973114013672
-141.052734375
-166.516616821289
-209.52864074707
-245.197143554688
-234.420288085938
-174.527725219727
-82.3999710083008
14.5916624069214
135.902740478516
314.531372070313
535.409057617188
744.365478515625
879.219177246094
988.132080078125
1113.63940429688
1115.2607421875
957.232116699219
783.467346191406
609.893310546875
365.649871826172
51.404613494873
-219.542526245117
-366.031372070313
-467.696136474609
-557.91650390625
-607.890563964844
-636.40625
-650.616455078125
-640.030334472656
-595.683166503906
-527.97021484375
-476.374847412109
-452.532257080078
-436.605407714844
-413.716522216797
-374.519317626953
-317.201751708984
-256.069366455078
-214.297149658203
-178.056427001953
-134.472183227539
-114.444404602051
-119.880516052246
-131.134216308594
-149.731430053711
-163.560134887695
-159.173095703125
-133.518478393555
-94.7981185913086
-70.3833084106445
-51.9768333435059
-27.1805477142334
-27.8481388092041
-43.7749862670898
-45.6823921203613
-47.9712791442871
-54.2657241821289
-49.6879463195801
-35.4777679443359
-15.0685138702393
11.9212923049927
28.8972129821777
35.382396697998
29.3740653991699
5.81759071350098
-6.77129411697388
-7.82036781311035
-18.2157344818115
-14.9731435775757
11.8259220123291
28.4203605651855
33.6657295227051
45.7777633666992
54.5518341064453
47.3036880493164
31.8536930084229
30.0416564941406
39.0064697265625
45.7777633666992
52.5490570068359
63.7073860168457
80.3971939086914
74.7703475952148
74.0073852539063
75.9147872924805
73.3397903442383
67.0453491210938
63.039794921875
65.137939453125
68.3805313110352
60.4647941589355
47.4944305419922
51.4999847412109
61.323127746582
60.7509078979492
56.2685012817383
53.5027618408203
52.2629470825195
40.3416519165039
30.8046188354492
39.0064697265625
37.2898025512695
25.4638805389404
25.9407329559326
31.0907306671143
35.5731353759766
43.9657249450684
54.3610954284668
58.9388694763184
53.7888717651367
50.9277610778809
48.4481315612793
40.6277656555176
40.0555419921875
40.0555419921875
40.913875579834
42.5351715087891
37.2898025512695
41.5814666748047
47.3990592956543
44.9194297790527
43.1073951721191
40.5323944091797
44.1564674377441
52.8351669311523
52.2629470825195
49.1157264709473
51.3092422485352
62.2768325805664
71.5277557373047
61.0370178222656
47.1129493713379
43.2027626037598
42.0583190917969
38.9110984802246
38.9110984802246
46.6360969543457
42.5351715087891
34.4286918640137
42.5351715087891
36.3360977172852
16.4036979675293
20.9814739227295
35.8592491149902
40.0555419921875
39.6740608215332
36.7175827026367
41.4860992431641
48.6388740539551
41.4860992431641
26.226842880249
16.9759197235107
18.2157344818115
19.074068069458
19.1694374084473
32.6166572570801
43.2027626037598
42.7259140014648
49.5925750732422
55.9823913574219
46.8268356323242
36.1453590393066
33.8564720153809
26.8944358825684
18.5972156524658
20.5046234130859
23.0796222686768
21.6490669250488
16.8805503845215
12.588885307312
11.1583299636841
5.53147983551025
-0.286111027002335
-2.67036962509155
-11.3490705490112
-20.7907333374023
-15.35462474823
-5.43610954284668
-2.95648050308228
-2.28888821601868
-1.43055510520935
-1.14444410800934
0.667592406272888
-0.0953703373670578
-4.1962947845459
-7.15277528762817
-11.635181427002
-10.204626083374
-12.7796258926392
-21.0768451690674
-15.6407356262207
-18.2157344818115
-36.9083213806152
-51.8814659118652
-56.3638725280762
-51.0231323242188
-44.9194297790527
-45.1101722717285
-48.3527641296387
-46.5407257080078
-38.5296173095703
-26.226842880249
-24.9870281219482
-38.0527648925781
-37.6712837219238
-37.9573936462402
-46.9222068786621
-44.1564674377441
-38.5296173095703
-35.4777679443359
-39.7694320678711
-40.4370231628418
-32.9981384277344
-32.04443359375
-28.4203605651855
-32.9027671813965
-45.2055397033691
-42.630542755127
-41.7722091674805
-44.5379486083984
-44.9194297790527
-56.0777587890625
-57.9851684570313
-46.8268356323242
-47.2083168029785
-45.0148010253906
-39.0064697265625
-45.0148010253906
-46.6360969543457
-35.4777679443359
-20.5046234130859
-13.8286991119385
-10.6814785003662
-4.29166507720947
-11.1583299636841
-24.3194370269775
-25.177770614624
-22.0305480957031
-17.8342533111572
-11.2537002563477
-6.19907188415527
3.43333220481873
8.96481227874756
0.0953703373670578
-7.82036781311035
-8.67870044708252
-12.2074031829834
-12.588885307312
-2.5749990940094
0.858333051204681
1.04907369613647
8.58333015441895
6.6759238243103
0.858333051204681
5.05462789535522
6.19907188415527
11.635181427002
23.8425846099854
20.6953639984131
17.6435127258301
19.4555492401123
9.9185152053833
3.147221326828
-0.47685170173645
-6.38981294631958
-12.7796258926392
-17.4527721405029
-16.1175880432129
-17.0712909698486
-18.8833274841309
-14.8777732849121
-16.2129573822021
-32.04443359375
-35.8592491149902
-17.357400894165
-7.43888664245605
-3.71944332122803
9.06018257141113
24.4148063659668
28.8972129821777
17.9296245574951
15.1638841629028
22.5074005126953
25.4638805389404
21.3629570007324
13.8286991119385
10.1092557907104
9.34629344940186
11.9212923049927
14.7824029922485
18.5972156524658
18.9786968231201
9.72777462005615
10.4907369613647
17.357400894165
16.2129573822021
17.357400894165
15.7361059188843
4.67314672470093
-4.38703584671021
-2.8611102104187
-2.38425850868225
-6.29444265365601
-8.3925895690918
-15.5453653335571
-17.738883972168
-2.67036962509155
10.2999963760376
5.81759071350098
-5.1499981880188
-19.074068069458
-26.5129547119141
-18.1203651428223
-11.8259220123291
-6.77129411697388
-0.667592406272888
6.00833129882813
20.0277709960938
31.7583236694336
32.4259147644043
25.0823993682861
22.5074005126953
19.7416610717773
7.82036781311035
5.34073925018311
7.82036781311035
5.62685012817383
11.9212923049927
14.4962921142578
5.24536848068237
-0.47685170173645
-6.19907188415527
-11.0629596710205
-5.05462789535522
0
-2.76573991775513
-0.667592406272888
1.43055510520935
-0.190740674734116
1.81203651428223
-6.48518323898315
-21.4583263397217
-18.2157344818115
-6.96203470230103
-12.588885307312
-24.4148063659668
-20.409252166748
-13.3518476486206
-17.6435127258301
-17.9296245574951
-7.91573810577393
-0.572222054004669
1.43055510520935
6.86666440963745
4.1962947845459
-6.77129411697388
-8.67870044708252
-7.6296272277832
-2.1935179233551
-0.381481349468231
-3.5287024974823
4.38703584671021
11.635181427002
21.2675857543945
33.5703582763672
35.382396697998
33.5703582763672
30.6138782501221
26.7990646362305
22.5074005126953
18.6925868988037
22.0305480957031
29.0879535675049
24.7962875366211
12.8749961853027
8.58333015441895
4.38703584671021
-1.23981440067291
5.43610954284668
17.5481433868408
12.7796258926392
-1.81203651428223
-10.9675893783569
-22.3166599273682
-29.7555465698242
-23.6518440246582
-17.5481433868408
-10.3953666687012
1.9074068069458
2.38425850868225
-14.2101802825928
-31.8536930084229
-34.1425819396973
-29.0879535675049
-29.4694347381592
-32.04443359375
-32.1398048400879
-22.125919342041
-6.86666440963745
-7.0574049949646
-17.357400894165
-17.4527721405029
-14.1148099899292
-13.9240694046021
-11.3490705490112
-5.62685012817383
5.05462789535522
7.0574049949646
1.9074068069458
7.34351634979248
11.8259220123291
7.34351634979248
0.381481349468231
-3.05185079574585
-0.667592406272888
-1.81203651428223
-3.147221326828
9.72777462005615
16.9759197235107
9.06018257141113
3.43333220481873
-3.8148136138916
-16.30832862854
-29.0879535675049
-53.2166481018066
-82.6860809326172
-100.901817321777
-120.73885345459
-157.361053466797
-192.743453979492
-205.713821411133
-183.397171020508
-117.210144042969
-36.6222114562988
51.2138710021973
181.489761352539
361.548950195313
573.271118164063
746.272888183594
838.114562988281
930.528381347656
1032.00244140625
1003.67742919922
844.981201171875
684.663696289063
507.751678466797
246.818435668945
-37.2898025512695
-243.385101318359
-378.906372070313
-486.865570068359
-557.439636230469
-598.925720214844
-606.650756835938
-581.091491699219
-554.578552246094
-518.433166503906
-463.88134765625
-418.866546630859
-402.748931884766
-399.983215332031
-383.960998535156
-348.769317626953
-301.370269775391
-251.491592407227
-206.190673828125
-165.658279418945
-129.894409179688
-105.86107635498
-104.239784240723
-120.357368469238
-133.518478393555
-129.512924194336
-117.59162902832
-101.950889587402
-73.7212753295898
-42.8212814331055
-28.5157318115234
-31.8536930084229
-36.9083213806152
-46.1592445373535
-58.2712783813477
-55.9823913574219
-51.7860946655273
-39.9601707458496
-14.7824029922485
4.10092449188232
28.3249912261963
41.5814666748047
33.2842483520508
31.6629524230957
28.5157318115234
18.1203651428223
12.8749961853027
14.4009208679199
16.9759197235107
19.074068069458
26.8944358825684
34.4286918640137
38.2435073852539
40.8185043334961
38.9110984802246
35.6685066223145
35.0962867736816
36.6222114562988
38.4342460632324
40.5323944091797
46.7314682006836
54.4564628601074
56.1731300354004
43.8703575134277
26.6083240509033
26.6083240509033
37.099063873291
42.630542755127
47.017578125
57.9851684570313
70.0018310546875
77.5360870361328
80.778678894043
82.0184936523438
85.2610855102539
84.1166381835938
75.6286773681641
70.6694183349609
73.7212753295898
76.2009048461914
71.4323883056641
66.854606628418
69.0481262207031
72.0999755859375
71.5277557373047
71.6231231689453
76.7731246948242
75.8194198608398
64.8518295288086
59.1296119689941
61.8953514099121
65.6147918701172
66.0916442871094
61.8953514099121
65.0425720214844
78.394416809082
85.0703430175781
82.3999710083008
70.1925735473633
53.5027618408203
48.1620216369629
43.2027626037598
35.9546165466309
40.2462844848633
46.2546157836914
54.0749816894531
59.701831817627
54.2657241821289
49.5925750732422
45.0148010253906
39.7694320678711
35.5731353759766
19.1694374084473
6.58055353164673
16.6898097991943
22.5074005126953
18.5018463134766
24.6055469512939
29.5648059844971
22.6981410980225
13.5425882339478
11.2537002563477
9.72777462005615
2.47962880134583
8.0111083984375
28.8972129821777
36.2407302856445
33.761100769043
36.1453590393066
32.04443359375
17.4527721405029
5.43610954284668
-1.62129580974579
-6.19907188415527
-3.5287024974823
9.25092315673828
21.2675857543945
24.6055469512939
28.6111011505127
28.2296199798584
14.3055505752563
4.38703584671021
9.82314491271973
13.7333288192749
6.19907188415527
1.14444410800934
1.71666610240936
6.48518323898315
14.0194396972656
7.53425693511963
-3.43333220481873
-5.7222204208374
-7.0574049949646
-8.67870044708252
-18.2157344818115
-31.4722118377686
-29.8509159088135
-19.1694374084473
-13.6379585266113
-17.9296245574951
-19.4555492401123
-14.3055505752563
-19.360179901123
-27.943510055542
-25.3685111999512
-20.409252166748
-23.9379558563232
-30.8999900817871
-35.4777679443359
-33.2842483520508
-29.3740653991699
-28.8018417358398
-24.891658782959
-30.6138782501221
-44.6333198547363
-48.5435028076172
-52.2629470825195
-60.274055480957
-55.6009063720703
-47.7805404663086
-48.1620216369629
-47.1129493713379
-49.0203552246094
-55.9823913574219
-54.8379440307617
-50.7370223999023
-50.832389831543
-37.4805450439453
-40.7231369018555
-39.2925796508789
-37.6712837219238
-35.1916542053223
-35.382396697998
-29.9462871551514
-26.8944358825684
-26.7990646362305
-12.0166625976563
5.24536848068237
8.77407169342041
7.24814605712891
8.48795986175537
10.5861072540283
10.4907369613647
0.667592406272888
-13.5425882339478
-13.5425882339478
-14.8777732849121
-23.9379558563232
-18.4064750671387
-6.6759238243103
-5.7222204208374
-7.24814605712891
-2.09814739227295
-1.04907369613647
0.47685170173645
12.302773475647
10.3953666687012
-4.00555419921875
-17.4527721405029
-25.3685111999512
-19.8370304107666
-21.7444381713867
-31.0907306671143
-29.4694347381592
-28.8972129821777
-31.8536930084229
-24.891658782959
-13.8286991119385
-8.48795986175537
-4.7685170173645
-5.62685012817383
-8.29721927642822
1.04907369613647
8.0111083984375
4.1962947845459
0.762962698936462
-4.57777643203735
-5.81759071350098
-1.52592539787292
-2.47962880134583
2.67036962509155
17.738883972168
22.4120292663574
25.7499923706055
42.5351715087891
49.6879463195801
41.962947845459
38.4342460632324
31.0907306671143
16.022216796875
8.58333015441895
8.10647869110107
-0.286111027002335
-15.8314762115479
-13.1611070632935
1.52592539787292
-1.33518481254578
-9.537034034729
-9.44166374206543
-5.43610954284668
-4.86388731002808
-19.5509204864502
-34.3333206176758
-35.0009155273438
-30.70924949646
-23.3657341003418
-19.2648086547852
-21.9351787567139
-19.360179901123
-15.5453653335571
-19.2648086547852
-13.256477355957
0.190740674734116
0.762962698936462
0.572222054004669
11.7305517196655
11.9212923049927
-3.24259161949158
-6.38981294631958
-2.00277709960938
-15.6407356262207
-28.3249912261963
-18.4064750671387
-10.9675893783569
-16.7851791381836
-13.8286991119385
-11.2537002563477
-22.125919342041
-20.3138828277588
-10.0138854980469
-7.91573810577393
0.572222054004669
7.24814605712891
2.67036962509155
0
4.86388731002808
10.2999963760376
12.1120328903198
15.5453653335571
14.687032699585
13.8286991119385
15.4499950408936
12.2074031829834
16.4036979675293
21.2675857543945
15.2592544555664
10.1092557907104
9.537034034729
10.9675893783569
10.5861072540283
0.762962698936462
-11.7305517196655
-9.15555286407471
-3.8148136138916
-5.7222204208374
0.667592406272888
10.2999963760376
10.6814785003662
8.0111083984375
9.06018257141113
11.5398111343384
5.05462789535522
-2.00277709960938
4.95925760269165
6.77129411697388
-1.9074068069458
-2.47962880134583
-3.05185079574585
-2.38425850868225
4.1962947845459
0.762962698936462
1.43055510520935
12.1120328903198
9.06018257141113
-0.47685170173645
3.5287024974823
14.687032699585
16.6898097991943
12.8749961853027
13.9240694046021
14.4009208679199
10.3953666687012
11.7305517196655
11.3490705490112
-0.190740674734116
-9.15555286407471
-8.86944198608398
-9.82314491271973
-9.537034034729
0
6.19907188415527
4.7685170173645
5.1499981880188
0.572222054004669
-6.77129411697388
-9.15555286407471
-8.67870044708252
-4.38703584671021
0.381481349468231
6.96203470230103
11.635181427002
13.3518476486206
24.7009181976318
33.9518394470215
28.0388793945313
24.1286964416504
27.3712882995605
32.5212860107422
40.6277656555176
38.8157272338867
22.4120292663574
4.86388731002808
-3.62407302856445
-4.1962947845459
-4.1962947845459
5.91296100616455
24.5101776123047
24.3194370269775
13.6379585266113
19.074068069458
30.0416564941406
32.6166572570801
24.6055469512939
5.05462789535522
-3.5287024974823
8.0111083984375
11.2537002563477
6.00833129882813
6.19907188415527
-0.381481349468231
-13.1611070632935
-18.5972156524658
-16.30832862854
-8.48795986175537
3.24259161949158
5.05462789535522
1.71666610240936
5.81759071350098
5.53147983551025
1.52592539787292
-2.8611102104187
-9.63240432739258
-9.537034034729
-11.1583299636841
-18.5972156524658
-22.9842510223389
-30.4231376647949
-35.5731353759766
-33.4749908447266
-33.761100769043
-36.0499877929688
-32.9981384277344
-24.4148063659668
-20.0277709960938
-17.357400894165
-11.4444408416748
-15.35462474823
-27.657398223877
-36.8129501342773
-39.5786895751953
-53.5981292724609
-88.5990447998047
-117.49626159668
-140.385147094727
-185.399948120117
-239.856399536133
-256.927703857422
-223.834182739258
-150.875885009766
-52.8351669311523
62.5629425048828
218.398071289063
406.945251464844
605.506286621094
789.284912109375
931.195983886719
1055.17749023438
1119.93395996094
1029.14135742188
849.654357910156
681.421081542969
482.7646484375
204.950866699219
-101.855522155762
-312.242492675781
-420.964691162109
-514.141479492188
-583.09423828125
-621.71923828125
-646.801635742188
-651.570190429688
-629.825744628906
-573.938720703125
-507.084106445313
-457.014678955078
-424.398010253906
-402.272094726563
-372.230438232422
-331.316558837891
-289.830474853516
-245.006408691406
-201.326782226563
-162.892547607422
-126.747184753418
-104.62126159668
-110.438850402832
-134.853652954102
-156.02587890625
-159.936065673828
-146.298095703125
-123.027740478516
-86.5009002685547
-44.7286911010742
-17.4527721405029
1.14444410800934
6.58055353164673
-13.9240694046021
-41.6768379211426
-53.2166481018066
-48.4481315612793
-37.9573936462402
-22.8888816833496
-3.71944332122803
10.3953666687012
23.6518440246582
33.5703582763672
25.5592517852783
12.4935140609741
8.29721927642822
4.67314672470093
8.67870044708252
23.3657341003418
34.2379531860352
46.7314682006836
65.3286819458008
69.7157211303711
60.0833129882813
63.8027572631836
73.6259002685547
69.3342361450195
63.8981285095215
63.4212760925293
64.5657196044922
72.8629379272461
78.8712692260742
75.6286773681641
65.5194244384766
56.7453536987305
60.0833129882813
64.4703521728516
57.0314636230469
52.3583183288574
63.6120147705078
68.4759063720703
60.274055480957
68.6666412353516
76.4870147705078
66.9499816894531
66.854606628418
73.3397903442383
75.6286773681641
70.0018310546875
57.6036834716797
50.7370223999023
47.7805404663086
46.5407257080078
49.6879463195801
55.7916488647461
58.2712783813477
55.6009063720703
51.9768333435059
53.2166481018066
66.4731292724609
73.3397903442383
66.7592391967773
63.6120147705078
63.5166473388672
72.1953506469727
83.1629333496094
84.5934906005859
77.4407196044922
62.5629425048828
50.0694274902344
47.9712791442871
53.5981292724609
51.404613494873
46.5407257080078
56.4592399597168
61.0370178222656
52.6444282531738
45.300910949707
35.9546165466309
21.1722145080566
12.1120328903198
8.0111083984375
-2.67036962509155
-7.91573810577393
-1.04907369613647
7.0574049949646
13.8286991119385
16.1175880432129
14.7824029922485
18.1203651428223
25.7499923706055
25.9407329559326
22.2212886810303
27.5620288848877
34.4286918640137
37.4805450439453
36.7175827026367
29.8509159088135
27.4666576385498
31.6629524230957
35.4777679443359
23.8425846099854
1.62129580974579
-0.858333051204681
6.96203470230103
6.58055353164673
12.2074031829834
23.5564746856689
34.810173034668
42.0583190917969
34.1425819396973
22.125919342041
10.1092557907104
-5.05462789535522
-7.24814605712891
-9.44166374206543
-18.5018463134766
-6.48518323898315
12.8749961853027
15.6407356262207
16.9759197235107
12.8749961853027
1.52592539787292
3.33796191215515
9.537034034729
4.95925760269165
2.09814739227295
2.95648050308228
-2.38425850868225
-2.47962880134583
-2.1935179233551
-13.7333288192749
-14.0194396972656
-9.15555286407471
-16.022216796875
-16.6898097991943
-10.2999963760376
-10.6814785003662
-12.302773475647
-11.4444408416748
-11.3490705490112
-9.44166374206543
-7.0574049949646
-13.4472179412842
-22.7935104370117
-28.3249912261963
-28.3249912261963
-25.177770614624
-28.4203605651855
-32.8073959350586
-31.0907306671143
-27.2759170532227
-27.3712882995605
-30.1370277404785
-33.9518394470215
-39.6740608215332
-43.8703575134277
-38.3388748168945
-19.4555492401123
-4.86388731002808
-2.1935179233551
-5.43610954284668
-15.0685138702393
-23.8425846099854
-24.891658782959
-32.3305435180664
-43.3935050964355
-37.3851737976074
-28.6111011505127
-26.5129547119141
-27.5620288848877
-29.9462871551514
-35.5731353759766
-44.251838684082
-33.0935096740723
-16.4036979675293
-20.5999927520752
-20.1231422424316
-11.2537002563477
-11.1583299636841
-12.1120328903198
-17.4527721405029
-26.6083240509033
-22.7935104370117
-18.9786968231201
-21.0768451690674
-13.6379585266113
-14.0194396972656
-25.177770614624
-20.1231422424316
-9.15555286407471
-5.91296100616455
-4.67314672470093
-9.537034034729
-18.3111057281494
-24.6055469512939
-32.3305435180664
-32.7120246887207
-28.8018417358398
-40.1509132385254
-50.9277610778809
-45.2055397033691
-36.9083213806152
-27.657398223877
-19.6462898254395
-14.2101802825928
-5.81759071350098
-2.76573991775513
-4.57777643203735
-8.48795986175537
-8.67870044708252
0.762962698936462
1.81203651428223
-3.8148136138916
-3.43333220481873
-2.38425850868225
-3.05185079574585
-15.0685138702393
-30.5185089111328
-30.995361328125
-28.6111011505127
-28.6111011505127
-25.9407329559326
-26.6083240509033
-27.3712882995605
-24.7009181976318
-19.2648086547852
-8.0111083984375
5.24536848068237
5.53147983551025
-2.28888821601868
4.67314672470093
12.2074031829834
-0.0953703373670578
-11.0629596710205
-14.1148099899292
-19.8370304107666
-21.9351787567139
-18.8833274841309
-10.9675893783569
0.667592406272888
6.29444265365601
6.6759238243103
12.1120328903198
19.4555492401123
21.839807510376
28.9925842285156
38.3388748168945
31.1861019134521
20.3138828277588
16.30832862854
7.24814605712891
2.47962880134583
6.86666440963745
9.537034034729
11.9212923049927
18.0249938964844
13.0657367706299
-3.71944332122803
-8.77407169342041
-4.1962947845459
-3.62407302856445
-5.05462789535522
1.43055510520935
7.72499752044678
-0.190740674734116
6.86666440963745
28.0388793945313
28.8018417358398
22.9842510223389
23.6518440246582
21.4583263397217
20.5046234130859
17.357400894165
7.43888664245605
-0.381481349468231
1.23981440067291
15.4499950408936
22.3166599273682
16.1175880432129
13.0657367706299
5.34073925018311
-5.1499981880188
-13.3518476486206
-14.0194396972656
-7.24814605712891
-11.0629596710205
-14.687032699585
-10.8722190856934
-11.635181427002
-12.588885307312
-9.25092315673828
-3.71944332122803
2.76573991775513
10.3953666687012
20.0277709960938
25.2731399536133
21.2675857543945
17.1666603088379
14.9731435775757
13.3518476486206
8.77407169342041
0.190740674734116
-8.20184898376465
-12.588885307312
-11.2537002563477
-13.6379585266113
-17.357400894165
-17.5481433868408
-15.7361059188843
-11.635181427002
-15.5453653335571
-15.9268465042114
-12.2074031829834
-19.1694374084473
-20.3138828277588
-12.1120328903198
-2.76573991775513
6.1037015914917
10.0138854980469
6.77129411697388
2.00277709960938
1.62129580974579
-1.04907369613647
-3.71944332122803
1.33518481254578
7.0574049949646
6.58055353164673
-3.5287024974823
-11.8259220123291
-10.0138854980469
-9.06018257141113
-9.25092315673828
-12.2074031829834
-15.0685138702393
-14.4962921142578
-12.4935140609741
-4.67314672470093
-1.33518481254578
-4.86388731002808
-8.10647869110107
-18.5018463134766
-24.3194370269775
-12.8749961853027
-2.38425850868225
-5.43610954284668
-4.38703584671021
11.3490705490112
20.1231422424316
18.1203651428223
21.2675857543945
26.0361022949219
28.1342506408691
29.1833248138428
27.1805477142334
28.0388793945313
32.6166572570801
36.431468963623
43.8703575134277
49.4018363952637
46.5407257080078
41.1046180725098
35.2870254516602
26.1314735412598
15.6407356262207
10.204626083374
7.82036781311035
4.48240613937378
6.1037015914917
11.2537002563477
12.588885307312
13.6379585266113
17.4527721405029
21.3629570007324
17.2620315551758
3.5287024974823
-4.1962947845459
-1.43055510520935
-1.62129580974579
-6.77129411697388
-6.29444265365601
-4.95925760269165
-3.05185079574585
5.7222204208374
11.635181427002
10.8722190856934
14.7824029922485
9.63240432739258
-9.82314491271973
-17.5481433868408
-23.8425846099854
-29.278694152832
-27.0851764678955
-14.0194396972656
-4.38703584671021
0
6.77129411697388
0.9537034034729
-20.409252166748
-28.2296199798584
-30.70924949646
-42.7259140014648
-57.0314636230469
-78.012939453125
-102.237007141113
-122.455513000488
-146.202728271484
-181.394393920898
-224.978637695313
-244.911026000977
-215.918441772461
-146.679580688477
-59.4157218933105
49.3064651489258
203.329559326172
383.198028564453
580.042419433594
770.496948242188
899.246948242188
1014.26354980469
1119.07556152344
1087.12646484375
928.907104492188
757.431213378906
569.551696777344
313.100830078125
3.24259161949158
-242.812881469727
-375.186920166016
-474.085968017578
-553.815551757813
-599.593322753906
-633.545166015625
-656.910888671875
-652.142395019531
-599.784057617188
-525.967407226563
-472.369293212891
-441.087829589844
-426.019317626953
-403.798004150391
-357.924896240234
-310.621185302734
-265.701751708984
-212.199005126953
-166.135131835938
-129.131439208984
-100.711082458496
-101.855522155762
-120.071258544922
-129.894409179688
-130.752731323242
-125.507369995117
-103.381446838379
-67.8083114624023
-43.2027626037598
-25.2731399536133
-7.53425693511963
-6.1037015914917
-16.6898097991943
-22.9842510223389
-29.278694152832
-39.1018409729004
-37.0036926269531
-22.7935104370117
-6.1037015914917
14.687032699585
30.8999900817871
32.4259147644043
23.1749935150146
7.72499752044678
-7.82036781311035
-5.43610954284668
15.4499950408936
31.4722118377686
36.5268402099609
32.1398048400879
29.3740653991699
39.864803314209
39.197208404541
22.6027698516846
18.9786968231201
36.0499877929688
25.9407329559326
19.8370304107666
27.5620288848877
35.5731353759766
30.995361328125
27.8481388092041
30.0416564941406
29.0879535675049
24.2240657806396
22.6981410980225
23.7472152709961
23.3657341003418
30.4231376647949
40.6277656555176
50.355541229248
62.5629425048828
63.5166473388672
58.5573883056641
60.7509078979492
59.8925743103027
54.9333152770996
56.936092376709
63.9934997558594
66.0916442871094
72.5768280029297
90.1249694824219
97.3731155395508
91.5555267333984
89.3620071411133
94.416633605957
94.7981185913086
84.7842330932617
77.5360870361328
77.8221969604492
73.3397903442383
70.4786834716797
74.4842376708984
69.2388687133789
67.0453491210938
72.6721954345703
73.4351654052734
75.9147872924805
67.903678894043
49.2110939025879
43.8703575134277
37.0036926269531
46.4453544616699
47.5897979736328
45.6823921203613
49.783317565918
49.9740562438965
37.6712837219238
27.1805477142334
21.0768451690674
16.8805503845215
13.4472179412842
8.3925895690918
12.8749961853027
26.226842880249
34.3333206176758
32.4259147644043
24.7009181976318
25.4638805389404
29.4694347381592
30.1370277404785
33.0935096740723
28.4203605651855
28.2296199798584
39.5786895751953
42.3444290161133
38.4342460632324
37.0036926269531
27.0851764678955
11.8259220123291
12.9703664779663
11.4444408416748
-5.91296100616455
-8.20184898376465
-1.52592539787292
1.23981440067291
7.82036781311035
8.3925895690918
1.62129580974579
0.47685170173645
-3.05185079574585
-16.5944385528564
-18.9786968231201
-9.9185152053833
-11.8259220123291
-11.3490705490112
3.8148136138916
19.2648086547852
19.6462898254395
6.00833129882813
5.7222204208374
12.588885307312
3.24259161949158
-2.09814739227295
-3.24259161949158
-13.3518476486206
-13.4472179412842
-8.77407169342041
-12.6842555999756
-9.44166374206543
-3.43333220481873
-8.48795986175537
-15.7361059188843
-17.357400894165
-10.5861072540283
-8.67870044708252
-16.4990692138672
-12.8749961853027
-11.9212923049927
-19.074068069458
-10.0138854980469
-9.34629344940186
-31.5675830841064
-37.8620262145996
-22.125919342041
-23.8425846099854
-36.9083213806152
-26.8944358825684
-18.5972156524658
-26.1314735412598
-26.8944358825684
-24.7009181976318
-28.5157318115234
-32.1398048400879
-33.9518394470215
-32.9027671813965
-28.4203605651855
-26.3222141265869
-25.177770614624
-25.8453617095947
-27.4666576385498
-26.6083240509033
-33.4749908447266
-43.2027626037598
-43.8703575134277
-41.7722091674805
-38.6249885559082
-31.4722118377686
-26.7036952972412
-25.3685111999512
-26.9898052215576
-26.7036952972412
-16.7851791381836
-15.8314762115479
-26.7990646362305
-28.2296199798584
-29.1833248138428
-33.5703582763672
-27.8481388092041
-22.4120292663574
-26.5129547119141
-24.6055469512939
-17.357400894165
-18.6925868988037
-22.2212886810303
-26.3222141265869
-31.6629524230957
-31.9490642547607
-24.9870281219482
-15.0685138702393
-21.7444381713867
-32.04443359375
-21.6490669250488
-14.5916624069214
-18.4064750671387
-22.2212886810303
-28.9925842285156
-42.8212814331055
-51.6907234191895
-38.3388748168945
-30.2323970794678
-44.251838684082
-45.8731346130371
-37.2898025512695
-35.2870254516602
-25.3685111999512
-10.204626083374
0
8.29721927642822
11.635181427002
10.9675893783569
10.8722190856934
8.86944198608398
6.1037015914917
6.86666440963745
12.8749961853027
15.7361059188843
4.38703584671021
-9.15555286407471
-14.7824029922485
-12.9703664779663
-7.34351634979248
-13.5425882339478
-13.8286991119385
-4.38703584671021
-9.44166374206543
-2.95648050308228
15.7361059188843
18.8833274841309
20.5046234130859
23.5564746856689
22.6027698516846
18.0249938964844
16.7851791381836
27.7527694702148
28.8018417358398
13.4472179412842
10.4907369613647
18.2157344818115
19.9324016571045
17.738883972168
10.3953666687012
13.4472179412842
10.7768487930298
6.6759238243103
14.1148099899292
19.5509204864502
18.6925868988037
16.1175880432129
8.67870044708252
9.82314491271973
20.1231422424316
19.074068069458
10.204626083374
6.19907188415527
1.14444410800934
0
7.0574049949646
8.29721927642822
8.20184898376465
15.35462474823
15.6407356262207
10.0138854980469
13.4472179412842
17.5481433868408
16.9759197235107
17.357400894165
15.0685138702393
6.86666440963745
0
4.10092449188232
10.1092557907104
3.43333220481873
-4.95925760269165
-2.09814739227295
7.6296272277832
14.0194396972656
6.1037015914917
-4.48240613937378
-3.71944332122803
5.43610954284668
12.3981437683105
6.1037015914917
3.5287024974823
17.6435127258301
21.9351787567139
14.687032699585
10.1092557907104
2.8611102104187
-0.572222054004669
5.91296100616455
9.63240432739258
1.43055510520935
-9.63240432739258
-9.25092315673828
-8.67870044708252
-10.1092557907104
0.9537034034729
7.6296272277832
6.1037015914917
6.38981294631958
3.5287024974823
2.09814739227295
0.286111027002335
-0.286111027002335
8.77407169342041
13.6379585266113
12.0166625976563
7.34351634979248
-3.43333220481873
-12.6842555999756
-20.1231422424316
-26.9898052215576
-29.7555465698242
-20.1231422424316
-6.48518323898315
-17.2620315551758
-34.0472106933594
-28.3249912261963
-21.1722145080566
-20.1231422424316
-15.8314762115479
-21.6490669250488
-26.4175834655762
-17.357400894165
-14.0194396972656
-17.4527721405029
-13.7333288192749
-3.71944332122803
2.28888821601868
-6.38981294631958
-15.5453653335571
-12.8749961853027
-11.635181427002
-11.8259220123291
-4.1962947845459
5.7222204208374
2.1935179233551
-9.63240432739258
-14.7824029922485
-16.30832862854
-12.4935140609741
-3.71944332122803
1.81203651428223
4.67314672470093
3.5287024974823
-0.190740674734116
2.5749990940094
4.7685170173645
-3.147221326828
-7.43888664245605
1.14444410800934
13.8286991119385
21.6490669250488
26.6083240509033
34.1425819396973
41.6768379211426
36.9083213806152
25.6546211242676
24.7009181976318
20.6953639984131
4.86388731002808
6.29444265365601
18.787956237793
13.3518476486206
7.15277528762817
10.2999963760376
10.8722190856934
10.4907369613647
19.2648086547852
31.7583236694336
31.3768424987793
22.5074005126953
7.72499752044678
-1.04907369613647
-0.47685170173645
-5.7222204208374
-4.86388731002808
1.9074068069458
5.91296100616455
6.96203470230103
1.52592539787292
0.381481349468231
0.286111027002335
-6.38981294631958
-12.588885307312
-11.635181427002
-4.86388731002808
-1.52592539787292
2.28888821601868
8.77407169342041
4.7685170173645
-5.62685012817383
-7.34351634979248
2.38425850868225
15.7361059188843
21.3629570007324
21.5536975860596
19.1694374084473
13.4472179412842
8.0111083984375
6.19907188415527
12.0166625976563
18.3111057281494
17.1666603088379
10.7768487930298
7.0574049949646
2.09814739227295
-11.5398111343384
-55.7916488647461
-34.7148017883301
-74.3888626098633
-107.387001037598
-135.044403076172
-181.68049621582
-228.60270690918
-252.540664672852
-244.815658569336
-186.639755249023
-90.8879318237305
17.4527721405029
166.135131835938
353.442474365234
544.75537109375
725.768310546875
863.769165039063
987.941345214844
1106.67736816406
1087.50793457031
920.60986328125
748.943298339844
591.296081542969
370.227661132813
65.805534362793
-208.384185791016
-362.788787841797
-459.589660644531
-538.556335449219
-594.729431152344
-628.776672363281
-642.319213867188
-635.929443359375
-591.582214355469
-520.817443847656
-464.072082519531
-436.033203125
-424.779479980469
-403.225799560547
-353.347106933594
-301.27490234375
-264.748077392578
-223.166595458984
-177.770309448242
-152.497177124023
-147.34716796875
-147.53791809082
-151.63883972168
-168.519393920898
-185.590682983398
-182.824935913086
-166.039764404297
-137.047180175781
-103.095336914063
-76.9638671875
-48.734245300293
-34.3333206176758
-42.630542755127
-46.8268356323242
-55.6009063720703
-68.1897964477539
-61.7999801635742
-44.9194297790527
-21.839807510376
3.33796191215515
19.8370304107666
24.1286964416504
16.4990692138672
4.00555419921875
-6.86666440963745
-12.0166625976563
-11.4444408416748
-4.86388731002808
11.7305517196655
34.4286918640137
52.2629470825195
58.9388694763184
57.3175735473633
50.832389831543
49.5925750732422
52.5490570068359
53.7888717651367
64.4703521728516
73.5305328369141
73.5305328369141
85.8333053588867
97.6592254638672
97.0870056152344
95.751823425293
85.9286727905273
76.4870147705078
82.0184936523438
86.5009002685547
85.4518280029297
83.7351608276367
81.5416412353516
84.8796005249023
88.3129348754883
83.7351608276367
80.2064590454102
88.0268249511719
95.2749710083008
89.2666397094727
76.9638671875
70.1925735473633
69.2388687133789
67.7129440307617
68.4759063720703
75.6286773681641
70.9555358886719
57.4129447937012
50.4509086608887
45.1101722717285
47.3990592956543
52.9305381774902
49.9740562438965
45.8731346130371
45.6823921203613
49.8786888122559
59.4157218933105
68.8573837280273
73.6259002685547
74.8657150268555
71.6231231689453
66.4731292724609
63.9934997558594
57.0314636230469
43.4888763427734
45.2055397033691
59.8925743103027
56.936092376709
44.7286911010742
37.5759124755859
29.7555465698242
31.2814712524414
33.0935096740723
23.3657341003418
15.6407356262207
14.4009208679199
23.1749935150146
28.6111011505127
16.5944385528564
8.29721927642822
8.48795986175537
2.09814739227295
-4.67314672470093
-6.1037015914917
-5.24536848068237
1.52592539787292
13.0657367706299
33.0935096740723
54.8379440307617
57.6036834716797
51.1185035705566
40.7231369018555
25.0823993682861
12.2074031829834
0.762962698936462
-5.24536848068237
-4.29166507720947
-2.28888821601868
-2.47962880134583
-0.858333051204681
5.53147983551025
9.44166374206543
11.2537002563477
7.91573810577393
1.81203651428223
3.8148136138916
5.24536848068237
5.53147983551025
9.15555286407471
0.762962698936462
-8.29721927642822
-4.67314672470093
-14.0194396972656
-34.3333206176758
-32.1398048400879
-17.6435127258301
-11.9212923049927
-9.537034034729
-1.33518481254578
10.8722190856934
9.9185152053833
-0.0953703373670578
-5.24536848068237
-15.6407356262207
-24.3194370269775
-25.2731399536133
-26.7036952972412
-22.7935104370117
-15.7361059188843
-8.77407169342041
-2.67036962509155
-12.302773475647
-27.7527694702148
-39.0064697265625
-55.6009063720703
-63.039794921875
-55.887020111084
-50.9277610778809
-42.0583190917969
-34.2379531860352
-38.9110984802246
-38.6249885559082
-29.1833248138428
-24.1286964416504
-26.0361022949219
-25.9407329559326
-24.3194370269775
-27.657398223877
-26.1314735412598
-22.7935104370117
-22.6027698516846
-17.2620315551758
-14.3055505752563
-21.1722145080566
-27.657398223877
-25.2731399536133
-16.022216796875
-8.58333015441895
-7.72499752044678
-11.3490705490112
-17.9296245574951
-19.360179901123
-13.7333288192749
0.381481349468231
8.10647869110107
-5.1499981880188
-12.7796258926392
-12.3981437683105
-13.256477355957
-8.10647869110107
-2.09814739227295
3.147221326828
-4.00555419921875
-16.2129573822021
-12.9703664779663
-5.1499981880188
0.762962698936462
1.71666610240936
0
-1.52592539787292
-8.67870044708252
-6.19907188415527
-9.06018257141113
-21.1722145080566
-12.6842555999756
-2.95648050308228
-10.8722190856934
-25.2731399536133
-37.5759124755859
-39.5786895751953
-38.4342460632324
-33.1888771057129
-25.4638805389404
-24.6055469512939
-13.256477355957
-1.43055510520935
-15.35462474823
-30.2323970794678
-27.5620288848877
-24.7962875366211
-30.0416564941406
-32.1398048400879
-24.2240657806396
-19.1694374084473
-18.6925868988037
-12.9703664779663
-14.1148099899292
-24.0333251953125
-25.4638805389404
-10.2999963760376
-0.0953703373670578
-10.0138854980469
-7.72499752044678
1.81203651428223
-6.6759238243103
-6.48518323898315
-0.286111027002335
-6.29444265365601
-6.96203470230103
-13.256477355957
-26.226842880249
-29.1833248138428
-33.5703582763672
-35.382396697998
-27.3712882995605
-22.7935104370117
-27.0851764678955
-27.5620288848877
-20.409252166748
-18.5018463134766
-15.7361059188843
-10.6814785003662
-5.81759071350098
9.537034034729
22.4120292663574
17.5481433868408
12.2074031829834
14.5916624069214
9.25092315673828
6.77129411697388
19.5509204864502
16.30832862854
-7.82036781311035
-21.839807510376
-17.9296245574951
-6.00833129882813
1.43055510520935
7.15277528762817
21.5536975860596
31.6629524230957
27.2759170532227
14.5916624069214
5.91296100616455
5.62685012817383
6.58055353164673
11.9212923049927
20.5046234130859
22.125919342041
26.1314735412598
31.8536930084229
25.6546211242676
23.3657341003418
23.7472152709961
7.43888664245605
-2.38425850868225
0.0953703373670578
-4.57777643203735
-10.7768487930298
-16.1175880432129
-20.3138828277588
-16.1175880432129
-7.91573810577393
-0.47685170173645
3.33796191215515
6.6759238243103
13.5425882339478
19.6462898254395
23.9379558563232
25.5592517852783
22.6027698516846
20.3138828277588
23.6518440246582
26.7990646362305
19.360179901123
15.8314762115479
19.1694374084473
20.7907333374023
26.1314735412598
25.7499923706055
21.6490669250488
18.2157344818115
3.8148136138916
-5.91296100616455
0.762962698936462
10.0138854980469
14.8777732849121
15.1638841629028
13.4472179412842
12.8749961853027
10.3953666687012
4.48240613937378
3.05185079574585
7.53425693511963
2.5749990940094
-8.96481227874756
-12.0166625976563
-8.86944198608398
-2.1935179233551
0.0953703373670578
-5.24536848068237
-7.6296272277832
-7.24814605712891
-7.53425693511963
-5.81759071350098
-4.10092449188232
-11.3490705490112
-18.5972156524658
-7.24814605712891
6.29444265365601
3.62407302856445
-5.81759071350098
15.35462474823
7.0574049949646
11.1583299636841
13.256477355957
13.1611070632935
5.81759071350098
5.81759071350098
4.10092449188232
-3.24259161949158
-4.86388731002808
-2.47962880134583
-1.14444410800934
0.9537034034729
11.9212923049927
25.3685111999512
33.2842483520508
42.0583190917969
42.8212814331055
32.5212860107422
25.8453617095947
22.4120292663574
16.5944385528564
13.8286991119385
16.6898097991943
18.9786968231201
16.1175880432129
10.6814785003662
5.1499981880188
2.95648050308228
7.6296272277832
12.302773475647
14.4009208679199
22.2212886810303
21.839807510376
5.34073925018311
-2.00277709960938
-1.33518481254578
-6.77129411697388
-3.43333220481873
14.3055505752563
24.9870281219482
27.8481388092041
27.5620288848877
8.3925895690918
-9.06018257141113
-4.7685170173645
-7.6296272277832
-18.4064750671387
-19.2648086547852
-22.7935104370117
-26.0361022949219
-21.839807510376
-24.7009181976318
-31.1861019134521
-28.3249912261963
-21.7444381713867
-14.8777732849121
-6.58055353164673
-6.1037015914917
-5.34073925018311
-0.0953703373670578
-2.00277709960938
-8.10647869110107
-13.256477355957
-11.1583299636841
-5.24536848068237
-13.256477355957
-20.5046234130859
-7.0574049949646
5.53147983551025
-0.47685170173645
-9.25092315673828
-12.302773475647
-12.8749961853027
-9.25092315673828
-14.9731435775757
-24.891658782959
-20.6953639984131
-17.0712909698486
-16.5944385528564
-12.2074031829834
-10.6814785003662
-7.34351634979248
2.8611102104187
8.77407169342041
-0.190740674734116
-7.91573810577393
-18.2157344818115
-35.4777679443359
-41.8675804138184
-62.8490524291992
-97.0870056152344
-113.013854980469
-133.804580688477
-179.773086547852
-229.365661621094
-249.774917602539
-220.686965942383
-137.524032592773
-40.0555419921875
59.9879455566406
221.545303344727
431.932281494141
636.883117675781
808.072875976563
934.533935546875
1065.09594726563
1147.68664550781
1057.27563476563
873.59228515625
704.786804199219
507.942443847656
238.521224975586
-71.4323883056641
-293.263793945313
-396.931365966797
-479.808166503906
-547.711853027344
-582.426635742188
-602.645202636719
-613.32666015625
-604.36181640625
-562.303527832031
-508.800750732422
-469.603546142578
-439.561889648438
-417.626708984375
-397.598937988281
-361.16748046875
-315.771209716797
-271.710083007813
-220.496231079102
-174.336975097656
-146.202728271484
-125.698104858398
-113.586074829102
-116.542556762695
-132.56477355957
-146.011993408203
-145.344390869141
-133.518478393555
-107.768486022949
-74.4842376708984
-50.1647987365723
-39.6740608215332
-39.197208404541
-41.1999855041504
-48.9249839782715
-66.0916442871094
-70.0018310546875
-53.0259094238281
-33.6657295227051
-14.3055505752563
3.147221326828
15.8314762115479
20.409252166748
10.7768487930298
-0.286111027002335
3.71944332122803
18.0249938964844
23.5564746856689
28.6111011505127
48.3527641296387
63.1351661682129
61.1323890686035
57.3175735473633
53.6935005187988
39.864803314209
22.4120292663574
18.787956237793
29.7555465698242
35.8592491149902
40.7231369018555
52.7397994995117
58.2712783813477
55.887020111084
52.7397994995117
50.832389831543
52.9305381774902
54.2657241821289
55.5055389404297
55.3147964477539
55.9823913574219
69.3342361450195
73.5305328369141
62.5629425048828
68.5712738037109
81.2555313110352
81.4462738037109
78.7759017944336
76.9638671875
72.6721954345703
66.6638641357422
62.4675712585449
57.2222023010254
53.5027618408203
55.219425201416
56.1731300354004
59.8925743103027
67.2360916137695
62.4675712585449
48.6388740539551
44.7286911010742
37.6712837219238
22.125919342041
23.9379558563232
35.6685066223145
40.6277656555176
44.6333198547363
38.3388748168945
32.3305435180664
42.8212814331055
50.355541229248
42.1536903381348
29.1833248138428
32.7120246887207
30.3277683258057
42.1536903381348
47.5897979736328
50.5462799072266
58.3666496276855
54.170352935791
39.6740608215332
32.5212860107422
37.3851737976074
47.8759117126465
48.4481315612793
41.962947845459
42.1536903381348
42.5351715087891
42.1536903381348
45.4916534423828
43.4888763427734
31.7583236694336
24.6055469512939
28.3249912261963
30.8046188354492
31.8536930084229
36.1453590393066
41.6768379211426
41.1046180725098
31.3768424987793
20.6953639984131
15.1638841629028
10.0138854980469
4.29166507720947
4.48240613937378
7.53425693511963
8.10647869110107
12.588885307312
19.7416610717773
26.5129547119141
32.7120246887207
32.5212860107422
25.8453617095947
22.125919342041
24.5101776123047
25.9407329559326
20.5046234130859
12.588885307312
6.77129411697388
6.00833129882813
13.5425882339478
18.4064750671387
14.2101802825928
6.48518323898315
-2.38425850868225
-10.2999963760376
-15.5453653335571
-8.0111083984375
0.858333051204681
-0.47685170173645
5.34073925018311
2.95648050308228
-10.6814785003662
-18.5972156524658
-29.1833248138428
-28.6111011505127
-20.6953639984131
-26.6083240509033
-35.0962867736816
-32.8073959350586
-19.074068069458
-19.7416610717773
-39.6740608215332
-38.8157272338867
-19.4555492401123
-12.302773475647
-16.022216796875
-14.2101802825928
-6.00833129882813
-1.14444410800934
0.762962698936462
1.04907369613647
-5.53147983551025
-18.8833274841309
-29.0879535675049
-30.1370277404785
-28.8972129821777
-25.3685111999512
-18.5972156524658
-12.7796258926392
-8.48795986175537
-5.43610954284668
4.95925760269165
13.5425882339478
3.91018390655518
-8.96481227874756
-20.6953639984131
-25.5592517852783
-12.6842555999756
-3.91018390655518
-9.44166374206543
-10.6814785003662
-6.6759238243103
-7.34351634979248
-10.204626083374
-15.1638841629028
-20.8861045837402
-14.3055505752563
-6.48518323898315
-10.9675893783569
-10.5861072540283
-5.1499981880188
-6.00833129882813
-3.147221326828
0
-5.34073925018311
-10.5861072540283
-11.4444408416748
-10.0138854980469
-11.5398111343384
-16.5944385528564
-23.3657341003418
-30.995361328125
-35.5731353759766
-43.5842437744141
-49.2110939025879
-39.197208404541
-31.7583236694336
-35.5731353759766
-39.197208404541
-39.2925796508789
-30.3277683258057
-20.5046234130859
-18.3111057281494
-13.8286991119385
-5.43610954284668
-6.58055353164673
-19.4555492401123
-25.8453617095947
-20.7907333374023
-19.7416610717773
-26.9898052215576
-33.8564720153809
-39.197208404541
-43.0120239257813
-35.4777679443359
-17.4527721405029
-4.57777643203735
-8.96481227874756
-15.2592544555664
-15.8314762115479
-19.6462898254395
-15.7361059188843
-3.5287024974823
3.43333220481873
5.81759071350098
4.7685170173645
5.7222204208374
12.4935140609741
12.3981437683105
-1.04907369613647
-15.0685138702393
-15.8314762115479
-4.7685170173645
-3.43333220481873
-18.1203651428223
-29.3740653991699
-26.7990646362305
-17.738883972168
-9.63240432739258
-5.24536848068237
-9.15555286407471
-10.204626083374
-1.52592539787292
-6.19907188415527
-10.0138854980469
-10.204626083374
-11.0629596710205
-10.7768487930298
-9.25092315673828
-4.86388731002808
-3.24259161949158
-2.28888821601868
6.48518323898315
16.8805503845215
22.125919342041
27.1805477142334
26.7036952972412
14.7824029922485
5.62685012817383
1.14444410800934
-5.24536848068237
-6.29444265365601
-5.43610954284668
-9.06018257141113
-10.7768487930298
-7.72499752044678
-7.91573810577393
-14.5916624069214
-15.0685138702393
-4.95925760269165
-7.72499752044678
-19.1694374084473
-23.3657341003418
-30.70924949646
-30.4231376647949
-18.4064750671387
-11.0629596710205
-7.53425693511963
-6.00833129882813
0.190740674734116
10.7768487930298
11.5398111343384
4.29166507720947
-2.28888821601868
-4.10092449188232
-1.04907369613647
5.81759071350098
14.4009208679199
9.15555286407471
-4.86388731002808
-8.29721927642822
1.71666610240936
8.29721927642822
1.81203651428223
3.33796191215515
11.4444408416748
11.3490705490112
13.256477355957
16.6898097991943
9.9185152053833
-2.28888821601868
-10.0138854980469
-12.6842555999756
-4.7685170173645
-4.10092449188232
-17.4527721405029
-16.9759197235107
-4.00555419921875
0.572222054004669
-0.9537034034729
-4.29166507720947
-7.34351634979248
-9.25092315673828
-6.19907188415527
2.38425850868225
0
-1.52592539787292
10.7768487930298
16.6898097991943
8.58333015441895
-0.762962698936462
-2.38425850868225
-4.67314672470093
-6.00833129882813
2.67036962509155
5.53147983551025
6.00833129882813
16.5944385528564
13.5425882339478
-1.04907369613647
-2.47962880134583
2.00277709960938
11.8259220123291
19.6462898254395
15.1638841629028
14.7824029922485
14.4009208679199
10.9675893783569
12.4935140609741
9.44166374206543
14.7824029922485
23.5564746856689
7.53425693511963
-1.9074068069458
10.9675893783569
18.2157344818115
19.360179901123
20.6953639984131
24.1286964416504
26.226842880249
22.6027698516846
25.8453617095947
30.2323970794678
24.0333251953125
24.0333251953125
32.4259147644043
25.9407329559326
12.0166625976563
7.6296272277832
4.10092449188232
-1.04907369613647
5.24536848068237
27.0851764678955
44.3472061157227
48.5435028076172
50.6416511535645
47.8759117126465
49.783317565918
54.4564628601074
37.099063873291
19.8370304107666
24.5101776123047
33.6657295227051
35.1916542053223
30.3277683258057
20.6953639984131
6.96203470230103
0.190740674734116
-0.572222054004669
0.190740674734116
1.04907369613647
0
12.6842555999756
20.6953639984131
1.52592539787292
-20.1231422424316
-25.2731399536133
-14.9731435775757
-5.53147983551025
-3.62407302856445
-1.62129580974579
-0.190740674734116
-1.62129580974579
-5.1499981880188
-7.53425693511963
-10.8722190856934
-10.7768487930298
-1.14444410800934
9.44166374206543
13.1611070632935
8.58333015441895
0.381481349468231
-2.28888821601868
-0.0953703373670578
-5.91296100616455
-19.7416610717773
-29.278694152832
-31.0907306671143
-24.6055469512939
-19.360179901123
-25.0823993682861
-30.8999900817871
-28.0388793945313
-25.7499923706055
-27.2759170532227
-26.6083240509033
-27.1805477142334
-18.1203651428223
-4.48240613937378
-16.4990692138672
-29.1833248138428
-29.6601753234863
-51.3092422485352
-81.6370086669922
-105.193481445313
-133.232360839844
-172.238830566406
-214.774002075195
-231.463821411133
-198.65641784668
-115.874961853027
-15.4499950408936
99.6620025634766
263.412872314453
460.352630615234
664.25439453125
827.337707519531
934.724670410156
1065.09594726563
1145.01635742188
1037.82006835938
849.177490234375
680.276611328125
471.987823486328
187.784194946289
-116.542556762695
-324.068420410156
-434.697998046875
-527.779479980469
-601.119262695313
-642.891479492188
-653.000732421875
-648.518310546875
-630.779418945313
-574.892395019531
-518.337768554688
-458.349853515625
-454.248931884766
-421.536895751953
-391.685974121094
-346.861938476563
-293.645263671875
-243.385101318359
-200.9453125
-161.080505371094
-122.169403076172
-106.147186279297
-121.406440734863
-146.870330810547
-157.170318603516
-147.728652954102
-132.46940612793
-112.155517578125
-84.4981231689453
-55.1240577697754
-28.8018417358398
-17.1666603088379
-19.074068069458
-24.891658782959
-28.6111011505127
-39.4833221435547
-55.219425201416
-46.6360969543457
-23.6518440246582
-6.1037015914917
15.8314762115479
34.5240631103516
33.761100769043
21.4583263397217
14.2101802825928
11.0629596710205
7.72499752044678
7.34351634979248
19.074068069458
39.4833221435547
47.3990592956543
43.7749862670898
41.4860992431641
33.5703582763672
16.2129573822021
10.6814785003662
17.2620315551758
16.2129573822021
16.5944385528564
24.891658782959
33.2842483520508
34.2379531860352
34.1425819396973
39.5786895751953
41.0092468261719
38.6249885559082
34.7148017883301
29.4694347381592
27.0851764678955
39.6740608215332
56.3638725280762
58.1759071350098
62.9444236755371
65.6147918701172
51.6907234191895
47.6851692199707
52.3583183288574
45.8731346130371
36.2407302856445
31.8536930084229
29.8509159088135
30.8046188354492
35.8592491149902
45.6823921203613
64.5657196044922
73.1490478515625
62.7536849975586
56.8407211303711
58.2712783813477
55.887020111084
49.4018363952637
46.4453544616699
42.8212814331055
41.1999855041504
47.2083168029785
55.219425201416
66.1870193481445
67.4268264770508
61.2277565002441
64.6610870361328
67.3314590454102
65.2333145141602
63.039794921875
57.8897972106934
54.170352935791
55.219425201416
53.7888717651367
55.6009063720703
58.8434982299805
46.0638732910156
26.4175834655762
21.6490669250488
32.5212860107422
37.7666549682617
28.5157318115234
28.7064723968506
40.3416519165039
47.017578125
50.832389831543
47.1129493713379
43.1073951721191
47.2083168029785
43.0120239257813
39.4833221435547
43.679615020752
43.5842437744141
42.5351715087891
40.8185043334961
36.5268402099609
30.0416564941406
23.0796222686768
20.5046234130859
17.5481433868408
12.7796258926392
11.7305517196655
10.1092557907104
5.81759071350098
8.3925895690918
17.1666603088379
17.9296245574951
11.1583299636841
6.86666440963745
0.381481349468231
-3.5287024974823
1.62129580974579
11.2537002563477
15.7361059188843
14.1148099899292
6.00833129882813
-5.91296100616455
-5.1499981880188
-6.19907188415527
-15.9268465042114
-19.7416610717773
-22.3166599273682
-7.24814605712891
20.3138828277588
22.5074005126953
13.0657367706299
14.1148099899292
-0.190740674734116
-20.2185115814209
-15.6407356262207
-15.1638841629028
-24.891658782959
-19.074068069458
-5.24536848068237
5.43610954284668
7.82036781311035
5.81759071350098
4.1962947845459
-3.5287024974823
-9.44166374206543
-8.58333015441895
-11.1583299636841
-14.4962921142578
-18.8833274841309
-23.1749935150146
-13.6379585266113
-5.34073925018311
-10.9675893783569
-13.7333288192749
-10.9675893783569
-9.44166374206543
-9.06018257141113
-9.25092315673828
-8.0111083984375
-3.43333220481873
5.34073925018311
4.57777643203735
-7.53425693511963
-12.588885307312
-16.9759197235107
-21.4583263397217
-20.5999927520752
-25.2731399536133
-29.3740653991699
-26.8944358825684
-22.5074005126953
-24.2240657806396
-26.1314735412598
-19.6462898254395
-26.8944358825684
-42.4398002624512
-41.6768379211426
-30.4231376647949
-24.9870281219482
-33.5703582763672
-40.4370231628418
-33.4749908447266
-25.5592517852783
-20.8861045837402
-17.2620315551758
-14.2101802825928
-12.6842555999756
-15.4499950408936
-19.9324016571045
-21.839807510376
-23.6518440246582
-30.4231376647949
-34.9055442810059
-33.2842483520508
-27.8481388092041
-23.8425846099854
-22.4120292663574
-18.2157344818115
-15.35462474823
-11.4444408416748
-8.96481227874756
-12.0166625976563
-5.7222204208374
6.77129411697388
4.10092449188232
-9.25092315673828
-15.0685138702393
-14.1148099899292
-12.9703664779663
-10.3953666687012
-14.4009208679199
-23.3657341003418
-15.8314762115479
-2.95648050308228
-6.38981294631958
-17.5481433868408
-21.6490669250488
-12.9703664779663
-6.29444265365601
-8.77407169342041
-6.48518323898315
-3.24259161949158
-7.91573810577393
-13.6379585266113
-12.3981437683105
-2.95648050308228
8.48795986175537
11.2537002563477
4.1962947845459
-7.91573810577393
-20.8861045837402
-26.0361022949219
-30.6138782501221
-31.6629524230957
-15.6407356262207
-7.6296272277832
-17.2620315551758
-12.8749961853027
1.33518481254578
2.00277709960938
-3.33796191215515
-6.77129411697388
-12.1120328903198
-12.4935140609741
-2.09814739227295
3.24259161949158
-2.5749990940094
-2.95648050308228
-2.09814739227295
-12.4935140609741
-18.0249938964844
-9.9185152053833
-3.43333220481873
-6.1037015914917
-7.91573810577393
-2.5749990940094
0.47685170173645
-3.147221326828
-7.43888664245605
-9.06018257141113
-7.72499752044678
-9.15555286407471
-16.1175880432129
-20.5999927520752
-11.4444408416748
13.7333288192749
32.6166572570801
38.6249885559082
46.2546157836914
46.8268356323242
37.099063873291
27.8481388092041
18.2157344818115
7.0574049949646
0.9537034034729
1.43055510520935
-0.9537034034729
-3.8148136138916
0.47685170173645
3.43333220481873
-8.20184898376465
-11.3490705490112
8.0111083984375
12.7796258926392
2.95648050308228
5.81759071350098
12.6842555999756
3.24259161949158
-15.1638841629028
-16.30832862854
-8.3925895690918
-9.15555286407471
-10.9675893783569
-11.8259220123291
-7.24814605712891
-6.00833129882813
-19.4555492401123
-23.0796222686768
-11.5398111343384
0.190740674734116
7.24814605712891
1.71666610240936
-10.3953666687012
-18.0249938964844
-14.687032699585
-4.48240613937378
4.95925760269165
9.537034034729
5.43610954284668
10.4907369613647
23.8425846099854
27.2759170532227
25.7499923706055
23.0796222686768
25.8453617095947
28.8972129821777
25.9407329559326
26.0361022949219
21.0768451690674
9.34629344940186
6.38981294631958
10.3953666687012
15.0685138702393
21.4583263397217
25.4638805389404
26.6083240509033
21.3629570007324
18.0249938964844
27.2759170532227
32.3305435180664
37.1944313049316
48.1620216369629
45.7777633666992
35.2870254516602
24.5101776123047
8.96481227874756
-2.8611102104187
-3.147221326828
-5.1499981880188
-7.24814605712891
-3.05185079574585
-3.8148136138916
2.47962880134583
7.91573810577393
-5.1499981880188
-14.5916624069214
-17.1666603088379
-15.0685138702393
-5.7222204208374
-7.34351634979248
-17.1666603088379
-22.2212886810303
-31.6629524230957
-36.3360977172852
-25.8453617095947
-14.1148099899292
-5.7222204208374
-4.10092449188232
-3.33796191215515
7.53425693511963
18.5018463134766
18.1203651428223
18.3111057281494
30.8046188354492
42.8212814331055
42.9166526794434
37.0036926269531
34.0472106933594
25.2731399536133
28.3249912261963
27.0851764678955
9.9185152053833
-1.52592539787292
-10.5861072540283
-22.4120292663574
-12.2074031829834
6.29444265365601
1.04907369613647
-14.9731435775757
-21.3629570007324
-20.5999927520752
-22.3166599273682
-33.8564720153809
-37.2898025512695
-32.1398048400879
-36.431468963623
-31.2814712524414
-17.8342533111572
-16.2129573822021
-19.7416610717773
-18.5972156524658
-16.1175880432129
-17.738883972168
-17.1666603088379
-15.35462474823
-15.4499950408936
-10.4907369613647
-5.05462789535522
-2.47962880134583
-6.19907188415527
-16.5944385528564
-20.1231422424316
-16.6898097991943
-9.72777462005615
1.14444410800934
6.38981294631958
-0.0953703373670578
-7.15277528762817
-4.38703584671021
0
3.33796191215515
4.86388731002808
-2.28888821601868
-5.7222204208374
7.43888664245605
17.738883972168
11.4444408416748
-4.48240613937378
-23.4611034393311
-38.5296173095703
-58.1759071350098
-88.6944122314453
-120.643478393555
-142.578659057617
-171.189758300781
-215.155487060547
-233.085113525391
-198.179565429688
-120.548110961914
-38.8157272338867
52.1675758361816
208.098083496094
407.517456054688
612.468322753906
788.80810546875
910.786743164063
1032.38391113281
1105.34228515625
1003.67742919922
811.410827636719
649.853515625
466.647064208984
204.569381713867
-89.9342269897461
-295.838806152344
-399.792449951172
-488.677612304688
-569.742431640625
-623.435913085938
-646.038696289063
-645.561828613281
-629.444213867188
-584.715576171875
-520.817443847656
-471.797058105469
-444.616516113281
-417.149871826172
-383.865631103516
-350.867492675781
-305.375823974609
-242.908248901367
-181.203643798828
-137.524032592773
-112.25089263916
-100.711082458496
-112.823112487793
-140.289764404297
-154.404586791992
-154.118469238281
-142.197174072266
-115.684219360352
-84.5934906005859
-56.7453536987305
-35.4777679443359
-25.5592517852783
-31.4722118377686
-41.4860992431641
-46.3499870300293
-48.3527641296387
-34.0472106933594
-11.8259220123291
0.0953703373670578
17.1666603088379
39.2925796508789
49.9740562438965
49.6879463195801
39.2925796508789
21.6490669250488
12.1120328903198
20.2185115814209
33.761100769043
47.2083168029785
64.0888671875
81.16015625
85.0703430175781
69.0481262207031
56.4592399597168
59.6064605712891
49.783317565918
39.4833221435547
57.1268348693848
71.5277557373047
72.4814605712891
75.9147872924805
76.5823822021484
74.6749725341797
71.9092330932617
65.7101669311523
63.2305335998535
70.0971984863281
68.4759063720703
59.3203506469727
65.9009017944336
69.0481262207031
67.6175689697266
81.16015625
88.4083023071289
92.1277465820313
97.2777481079102
86.7870101928711
69.5249786376953
56.1731300354004
59.7972030639648
80.3018264770508
83.7351608276367
65.9009017944336
50.4509086608887
53.2166481018066
70.5740509033203
72.5768280029297
62.8490524291992
61.6092376708984
56.1731300354004
44.7286911010742
44.0610961914063
42.9166526794434
24.5101776123047
38.8157272338867
48.6388740539551
55.1240577697754
52.9305381774902
52.3583183288574
53.4073905944824
43.679615020752
40.6277656555176
43.679615020752
35.0962867736816
30.8999900817871
39.3879508972168
44.9194297790527
41.1999855041504
30.3277683258057
19.5509204864502
19.8370304107666
24.2240657806396
24.4148063659668
31.0907306671143
42.8212814331055
47.6851692199707
48.9249839782715
63.3259048461914
73.0536804199219
45.7777633666992
18.2157344818115
19.6462898254395
15.9268465042114
10.7768487930298
20.5999927520752
26.8944358825684
27.657398223877
25.2731399536133
20.5046234130859
13.3518476486206
9.82314491271973
14.7824029922485
4.95925760269165
-4.95925760269165
2.8611102104187
0.9537034034729
-2.76573991775513
7.72499752044678
2.09814739227295
-13.9240694046021
-21.0768451690674
-9.537034034729
-16.8805503845215
-23.9379558563232
-15.9268465042114
-3.43333220481873
15.0685138702393
27.8481388092041
31.3768424987793
31.2814712524414
20.409252166748
9.25092315673828
0.381481349468231
-16.4990692138672
-26.6083240509033
-28.4203605651855
-35.382396697998
-35.9546165466309
-29.9462871551514
-27.4666576385498
-26.4175834655762
-26.4175834655762
-23.5564746856689
-18.0249938964844
-20.8861045837402
-24.891658782959
-17.8342533111572
-14.0194396972656
-19.6462898254395
-18.4064750671387
-7.53425693511963
-10.1092557907104
-24.4148063659668
-20.5046234130859
-12.2074031829834
-18.4064750671387
-21.839807510376
-15.9268465042114
-3.5287024974823
0.762962698936462
-2.5749990940094
1.62129580974579
-8.96481227874756
-32.6166572570801
-40.6277656555176
-44.3472061157227
-43.5842437744141
-32.8073959350586
-30.5185089111328
-31.1861019134521
-21.839807510376
-15.1638841629028
-13.3518476486206
-14.9731435775757
-20.7907333374023
-15.6407356262207
-18.5972156524658
-45.9685020446777
-56.6499824523926
-47.2083168029785
-43.4888763427734
-31.0907306671143
-17.738883972168
-18.8833274841309
-15.4499950408936
-0.572222054004669
8.48795986175537
7.0574049949646
1.52592539787292
-4.7685170173645
-5.24536848068237
-4.10092449188232
-3.33796191215515
-4.67314672470093
-12.3981437683105
-14.0194396972656
-8.20184898376465
-6.77129411697388
-10.8722190856934
-14.9731435775757
-18.6925868988037
-20.2185115814209
-15.4499950408936
-11.2537002563477
-13.0657367706299
-20.3138828277588
-24.3194370269775
-15.5453653335571
-12.588885307312
-15.7361059188843
-3.24259161949158
3.05185079574585
-3.43333220481873
-3.8148136138916
-4.86388731002808
-8.10647869110107
0
11.4444408416748
2.09814739227295
-5.81759071350098
0.858333051204681
-9.537034034729
-21.7444381713867
-20.409252166748
-23.5564746856689
-24.6055469512939
-19.6462898254395
-14.0194396972656
-11.4444408416748
-5.81759071350098
4.86388731002808
15.35462474823
28.2296199798584
41.1046180725098
51.1185035705566
55.6962776184082
53.8842430114746
42.0583190917969
24.4148063659668
12.302773475647
-0.190740674734116
-6.48518323898315
-5.43610954284668
-11.9212923049927
-17.357400894165
-19.9324016571045
-20.3138828277588
-25.7499923706055
-40.913875579834
-42.5351715087891
-40.913875579834
-47.8759117126465
-39.2925796508789
-28.9925842285156
-32.6166572570801
-30.0416564941406
-19.074068069458
-12.6842555999756
-9.25092315673828
0.0953703373670578
3.24259161949158
-4.95925760269165
-4.7685170173645
-5.24536848068237
-15.5453653335571
-15.35462474823
-17.357400894165
-28.7064723968506
-19.5509204864502
-2.47962880134583
-4.67314672470093
-14.687032699585
-22.6981410980225
-20.1231422424316
-9.63240432739258
-18.1203651428223
-34.3333206176758
-33.761100769043
-28.3249912261963
-26.226842880249
-30.8046188354492
-38.7203598022461
-43.9657249450684
-49.0203552246094
-47.017578125
-35.1916542053223
-25.6546211242676
-23.4611034393311
-26.0361022949219
-38.9110984802246
-49.6879463195801
-46.5407257080078
-40.913875579834
-33.8564720153809
-33.5703582763672
-35.6685066223145
-31.2814712524414
-34.6194343566895
-22.7935104370117
7.82036781311035
9.537034034729
-12.1120328903198
-20.3138828277588
-16.1175880432129
-4.86388731002808
5.24536848068237
7.0574049949646
8.67870044708252
7.53425693511963
12.302773475647
30.1370277404785
38.3388748168945
36.6222114562988
35.7638778686523
42.9166526794434
56.5546112060547
57.6036834716797
54.0749816894531
55.4101676940918
48.734245300293
41.8675804138184
38.4342460632324
37.3851737976074
40.8185043334961
35.8592491149902
32.1398048400879
48.3527641296387
73.5305328369141
93.7490463256836
105.670333862305
109.00830078125
105.384223937988
99.4712677001953
97.5638580322266
94.1305236816406
85.9286727905273
80.2064590454102
77.345344543457
70.3833084106445
59.701831817627
55.9823913574219
51.7860946655273
38.5296173095703
37.099063873291
48.8296127319336
42.5351715087891
22.6981410980225
17.1666603088379
23.6518440246582
21.3629570007324
7.6296272277832
9.9185152053833
26.6083240509033
34.6194343566895
31.6629524230957
24.5101776123047
22.6981410980225
19.7416610717773
7.0574049949646
-9.34629344940186
-17.357400894165
-13.7333288192749
-7.72499752044678
-4.00555419921875
-1.9074068069458
4.10092449188232
13.9240694046021
8.10647869110107
-12.588885307312
-21.3629570007324
-12.0166625976563
-13.1611070632935
-25.3685111999512
-19.7416610717773
-18.2157344818115
-32.04443359375
-30.4231376647949
-25.6546211242676
-34.810173034668
-45.2055397033691
-52.3583183288574
-56.5546112060547
-65.137939453125
-87.0731201171875
-109.675888061523
-130.180511474609
-156.693466186523
-192.075866699219
-217.158264160156
-215.250854492188
-184.064758300781
-110.057373046875
-26.4175834655762
42.1536903381348
145.2490234375
304.231384277344
493.827606201172
666.9248046875
775.64697265625
855.948791503906
941.782104492188
945.787658691406
828.005310058594
663.777587890625
470.557250976563
222.499008178711
-46.5407257080078
-249.965667724609
-371.181365966797
-482.001708984375
-579.660949707031
-629.825744628906
-640.030334472656
-618.858154296875
-591.391479492188
-553.43408203125
-503.173919677734
-463.690582275391
-435.079498291016
-414.670227050781
-402.748931884766
-386.91748046875
-339.61376953125
-270.565643310547
-216.490676879883
-171.094390869141
-118.259223937988
-85.3564529418945
-97.182373046875
-114.730522155762
-119.785148620605
-134.281433105469
-137.524032592773
-117.686996459961
-91.9370040893555
-56.936092376709
-32.2351760864258
-36.8129501342773
-42.1536903381348
-35.7638778686523
-30.4231376647949
-29.6601753234863
-33.8564720153809
-27.3712882995605
-6.6759238243103
11.1583299636841
20.8861045837402
37.1944313049316
61.99072265625
61.5138702392578
40.7231369018555
44.6333198547363
49.2110939025879
25.5592517852783
13.256477355957
15.6407356262207
20.0277709960938
55.5055389404297
66.854606628418
78.012939453125
80.3018264770508
66.2823867797852
51.6907234191895
44.9194297790527
36.1453590393066
39.6740608215332
53.7888717651367
63.039794921875
71.0509033203125
80.778678894043
90.8879318237305
86.8823776245117
70.2879409790039
67.3314590454102
74.2934951782227
78.6805267333984
80.3018264770508
73.4351654052734
63.039794921875
66.2823867797852
67.0453491210938
58.652759552002
73.3397903442383
94.5120086669922
81.4462738037109
51.5953521728516
41.1046180725098
43.4888763427734
38.4342460632324
38.4342460632324
58.8434982299805
78.1083068847656
77.5360870361328
69.5249786376953
59.8925743103027
52.0722045898438
62.2768325805664
72.0999755859375
65.6147918701172
65.0425720214844
70.6694183349609
62.5629425048828
52.7397994995117
71.9092330932617
65.6147918701172
69.9064559936523
59.7972030639648
51.9768333435059
55.5055389404297
55.219425201416
62.3722038269043
73.9120101928711
62.1814613342285
43.2027626037598
45.6823921203613
53.0259094238281
51.9768333435059
42.1536903381348
27.3712882995605
27.657398223877
37.8620262145996
48.6388740539551
57.0314636230469
56.7453536987305
55.6009063720703
52.5490570068359
43.3935050964355
30.6138782501221
16.1175880432129
7.91573810577393
9.9185152053833
15.7361059188843
22.5074005126953
30.3277683258057
37.0036926269531
35.7638778686523
22.7935104370117
12.9703664779663
3.71944332122803
-13.8286991119385
-10.4907369613647
19.1694374084473
38.8157272338867
32.1398048400879
13.1611070632935
5.34073925018311
12.302773475647
20.8861045837402
26.0361022949219
21.9351787567139
9.34629344940186
-10.0138854980469
-32.04443359375
-35.2870254516602
-31.2814712524414
-38.9110984802246
-40.8185043334961
-39.864803314209
-40.5323944091797
-43.8703575134277
-60.4647941589355
-76.8684921264648
-77.8221969604492
-76.6777496337891
-77.8221969604492
-70.0018310546875
-64.9472045898438
-68.2851638793945
-72.0046081542969
-74.198127746582
-68.9527587890625
-63.3259048461914
-69.3342361450195
-70.0971984863281
-56.936092376709
-56.936092376709
-54.5518341064453
-39.2925796508789
-44.8240585327148
-48.066650390625
-40.4370231628418
-60.1786842346191
-76.5823822021484
-57.3175735473633
-41.2953567504883
-39.9601707458496
-26.6083240509033
-20.2185115814209
-31.2814712524414
-37.9573936462402
-41.1046180725098
-44.1564674377441
-45.0148010253906
-37.3851737976074
-20.8861045837402
-8.0111083984375
6.29444265365601
18.4064750671387
14.5916624069214
7.82036781311035
-1.33518481254578
-14.8777732849121
-15.35462474823
-9.537034034729
-3.147221326828
5.43610954284668
7.15277528762817
10.6814785003662
15.1638841629028
14.687032699585
9.25092315673828
4.86388731002808
6.48518323898315
4.7685170173645
9.72777462005615
18.787956237793
11.0629596710205
10.9675893783569
34.3333206176758
55.1240577697754
53.9796104431152
46.6360969543457
59.1296119689941
70.0971984863281
61.5138702392578
49.9740562438965
36.0499877929688
24.4148063659668
30.995361328125
38.148136138916
28.7064723968506
27.1805477142334
35.9546165466309
36.9083213806152
24.891658782959
3.5287024974823
-2.09814739227295
-1.62129580974579
-7.24814605712891
10.1092557907104
24.9870281219482
14.7824029922485
8.48795986175537
0.762962698936462
-7.91573810577393
-2.28888821601868
3.33796191215515
-1.33518481254578
-8.58333015441895
-12.1120328903198
-17.6435127258301
-12.2074031829834
2.00277709960938
-4.1962947845459
-11.8259220123291
-5.53147983551025
-16.4036979675293
-32.3305435180664
-36.3360977172852
-34.2379531860352
-19.6462898254395
-24.3194370269775
-48.066650390625
-46.4453544616699
-38.9110984802246
-53.0259094238281
-57.7944259643555
-40.8185043334961
-34.2379531860352
-35.0009155273438
-33.8564720153809
-34.4286918640137
-52.3583183288574
-41.1046180725098
-48.5435028076172
-29.5648059844971
-45.9685020446777
-80.5879364013672
-95.6564483642578
-103.190704345703
-99.4712677001953
-91.0786743164063
-74.4842376708984
-46.9222068786621
-31.9490642547607
-26.226842880249
-23.7472152709961
-29.9462871551514
-35.4777679443359
-29.5648059844971
-20.5046234130859
-17.9296245574951
-5.7222204208374
8.77407169342041
10.8722190856934
15.4499950408936
23.0796222686768
8.3925895690918
-20.9814739227295
-22.6981410980225
-16.022216796875
-31.0907306671143
-44.8240585327148
-58.1759071350098
-58.7481307983398
-44.6333198547363
-57.7944259643555
-71.7184982299805
-58.7481307983398
-39.3879508972168
-18.2157344818115
-14.4962921142578
-14.7824029922485
6.1037015914917
24.5101776123047
35.2870254516602
30.6138782501221
12.8749961853027
20.409252166748
41.1999855041504
49.6879463195801
58.0805358886719
56.936092376709
30.8999900817871
6.77129411697388
-3.24259161949158
-12.302773475647
-11.5398111343384
-8.3925895690918
-2.38425850868225
16.9759197235107
29.9462871551514
33.1888771057129
34.7148017883301
22.7935104370117
11.1583299636841
13.1611070632935
-6.86666440963745
-47.1129493713379
-63.9934997558594
-70.9555358886719
-88.1221923828125
-88.6944122314453
-72.0046081542969
-63.4212760925293
-49.5925750732422
-21.839807510376
-0.286111027002335
6.58055353164673
0.762962698936462
-4.10092449188232
0.667592406272888
3.05185079574585
-3.24259161949158
-8.86944198608398
-2.95648050308228
4.7685170173645
4.00555419921875
2.38425850868225
2.5749990940094
2.76573991775513
3.71944332122803
14.9731435775757
27.1805477142334
25.7499923706055
26.3222141265869
28.8972129821777
29.7555465698242
45.7777633666992
69.2388687133789
81.0647888183594
82.876823425293
74.5796051025391
54.5518341064453
35.7638778686523
20.7907333374023
14.2101802825928
12.1120328903198
-5.24536848068237
-37.2898025512695
-75.4379425048828
-105.86107635498
-119.68977355957
-95.4657135009766
-28.8972129821777
38.9110984802246
116.44718170166
241.954559326172
417.531341552734
618.381286621094
790.90625
895.71826171875
982.028381347656
1072.439453125
1049.07373046875
891.808044433594
714.609985351563
511.089660644531
239.2841796875
-29.4694347381592
-220.11474609375
-359.0693359375
-477.042449951172
-558.870178222656
-616.092407226563
-638.027587890625
-622.291442871094
-597.685913085938
-554.769287109375
-495.735015869141
-440.897094726563
-401.699859619141
-377.952667236328
-353.347106933594
-329.790649414063
-291.451751708984
-226.886032104492
-165.658279418945
-111.774040222168
-70.7647933959961
-55.7916488647461
-50.4509086608887
-52.3583183288574
-54.170352935791
-57.8897972106934
-84.0212707519531
-101.664779663086
-78.012939453125
-33.6657295227051
0
14.3055505752563
20.1231422424316
16.9759197235107
16.6898097991943
20.7907333374023
4.86388731002808
-12.6842555999756
-7.53425693511963
13.5425882339478
41.2953567504883
60.274055480957
64.1842422485352
49.0203552246094
30.3277683258057
11.4444408416748
-1.04907369613647
7.91573810577393
30.5185089111328
41.6768379211426
45.3962821960449
52.3583183288574
50.832389831543
42.1536903381348
29.7555465698242
8.10647869110107
3.24259161949158
13.7333288192749
10.204626083374
11.9212923049927
35.7638778686523
69.5249786376953
89.1712646484375
77.0592346191406
61.0370178222656
62.3722038269043
61.6092376708984
61.7999801635742
70.6694183349609
67.3314590454102
55.5055389404297
51.6907234191895
48.9249839782715
40.8185043334961
34.4286918640137
41.3907279968262
55.6009063720703
66.2823867797852
66.9499816894531
62.5629425048828
58.7481307983398
45.1101722717285
34.3333206176758
31.8536930084229
25.7499923706055
30.1370277404785
43.5842437744141
47.6851692199707
53.121280670166
65.4240493774414
68.4759063720703
67.9990539550781
64.8518295288086
57.4129447937012
51.8814659118652
38.6249885559082
25.8453617095947
18.787956237793
7.91573810577393
6.1037015914917
2.28888821601868
-10.8722190856934
-17.357400894165
-25.2731399536133
-22.6027698516846
2.38425850868225
24.0333251953125
32.7120246887207
32.5212860107422
30.70924949646
31.9490642547607
34.2379531860352
29.0879535675049
16.30832862854
12.302773475647
16.1175880432129
22.2212886810303
37.3851737976074
58.8434982299805
71.0509033203125
61.4184989929199
38.5296173095703
17.5481433868408
3.71944332122803
5.81759071350098
13.6379585266113
13.5425882339478
19.1694374084473
29.9462871551514
32.6166572570801
27.943510055542
21.9351787567139
29.4694347381592
28.0388793945313
7.53425693511963
14.9731435775757
36.5268402099609
37.5759124755859
26.7990646362305
8.86944198608398
2.28888821601868
-0.762962698936462
-24.0333251953125
-45.1101722717285
-56.6499824523926
-69.6203460693359
-64.6610870361328
-51.8814659118652
-62.7536849975586
-82.3046035766602
-96.7055282592773
-108.626815795898
-115.779594421387
-123.886070251465
-133.136993408203
-128.654586791992
-119.975891113281
-122.83699798584
-120.548110961914
-120.452735900879
-140.766616821289
-149.54069519043
-130.180511474609
-114.062927246094
-101.855522155762
-83.7351608276367
-77.1546020507813
-85.1657104492188
-87.8360824584961
-78.8712692260742
-73.4351654052734
-74.9610900878906
-74.8657150268555
-80.8740463256836
-94.702751159668
-107.482376098633
-109.103668212891
-98.7083053588867
-88.4083023071289
-81.2555313110352
-76.7731246948242
-70.1925735473633
-61.5138702392578
-57.3175735473633
-54.0749816894531
-46.6360969543457
-42.9166526794434
-45.7777633666992
-37.6712837219238
-35.0962867736816
-49.0203552246094
-45.1101722717285
-38.3388748168945
-47.1129493713379
-44.3472061157227
-36.0499877929688
-32.04443359375
-26.226842880249
-26.3222141265869
-20.5046234130859
-9.63240432739258
-10.5861072540283
-5.53147983551025
-2.00277709960938
-11.8259220123291
-11.1583299636841
-4.57777643203735
-7.24814605712891
-8.77407169342041
-2.28888821601868
2.1935179233551
3.8148136138916
6.6759238243103
0.286111027002335
2.8611102104187
7.72499752044678
-10.3953666687012
-15.7361059188843
2.8611102104187
11.3490705490112
12.7796258926392
20.409252166748
21.1722145080566
8.96481227874756
2.95648050308228
18.6925868988037
35.4777679443359
44.6333198547363
57.9851684570313
59.7972030639648
47.6851692199707
42.5351715087891
53.9796104431152
77.8221969604492
83.7351608276367
68.5712738037109
67.1407165527344
73.7212753295898
71.2416458129883
66.7592391967773
69.4296035766602
69.3342361450195
61.1323890686035
58.7481307983398
52.2629470825195
47.6851692199707
54.8379440307617
41.962947845459
24.1286964416504
31.8536930084229
35.1916542053223
27.7527694702148
28.2296199798584
34.2379531860352
44.1564674377441
53.2166481018066
54.3610954284668
29.3740653991699
30.8046188354492
25.6546211242676
28.6111011505127
34.6194343566895
34.810173034668
37.1944313049316
35.8592491149902
26.3222141265869
32.04443359375
41.5814666748047
33.0935096740723
18.6925868988037
23.2703628540039
38.9110984802246
36.7175827026367
34.6194343566895
38.3388748168945
28.9925842285156
37.7666549682617
70.8601608276367
77.7268295288086
63.3259048461914
72.7675704956055
88.5036773681641
101.092559814453
120.83422088623
121.406440734863
119.975891113281
129.417556762695
124.076812744141
118.354591369629
120.071258544922
118.831443786621
112.823112487793
101.283302307129
87.1684875488281
73.6259002685547
63.6120147705078
65.9009017944336
70.9555358886719
68.7620162963867
68.4759063720703
58.2712783813477
41.5814666748047
30.3277683258057
14.8777732849121
4.10092449188232
2.09814739227295
-2.76573991775513
-9.44166374206543
-11.2537002563477
-18.4064750671387
-31.4722118377686
-28.0388793945313
-24.7009181976318
-29.1833248138428
-21.3629570007324
-14.3055505752563
-8.20184898376465
-1.23981440067291
0.0953703373670578
12.1120328903198
10.6814785003662
-14.687032699585
-16.022216796875
-10.0138854980469
-22.2212886810303
-31.3768424987793
-32.8073959350586
-33.3796195983887
-38.9110984802246
-39.864803314209
-35.7638778686523
-34.6194343566895
-39.2925796508789
-50.2601699829102
-50.5462799072266
-58.2712783813477
-88.1221923828125
-101.283302307129
-96.5147857666016
-97.0870056152344
-102.427742004395
-108.340705871582
-108.722190856934
-112.346260070801
-118.640701293945
-106.719413757324
-87.3592300415039
-78.6805267333984
-72.6721954345703
-71.9092330932617
-76.1055297851563
-71.5277557373047
-70.0018310546875
-79.3481216430664
-76.5823822021484
-61.323127746582
-59.7972030639648
-58.1759071350098
-45.9685020446777
-41.962947845459
-30.8999900817871
-20.0277709960938
-25.0823993682861
-16.30832862854
-0.572222054004669
1.43055510520935
5.81759071350098
14.8777732849121
15.2592544555664
14.4009208679199
9.9185152053833
-9.63240432739258
-33.6657295227051
-58.7481307983398
-87.2638626098633
-109.580520629883
-125.793479919434
-142.387924194336
-166.325866699219
-197.321228027344
-216.395294189453
-196.844375610352
-114.635147094727
-12.4935140609741
78.2990493774414
218.588821411133
404.656341552734
599.307189941406
796.533081054688
962.668212890625
1101.05053710938
1207.77001953125
1186.59777832031
1032.76538085938
871.7802734375
698.015502929688
433.64892578125
95.4657135009766
-212.389739990234
-405.133209228516
-523.869262695313
-609.225708007813
-679.609069824219
-739.310852050781
-751.327514648438
-716.898864746094
-653.4775390625
-568.025756835938
-474.848907470703
-399.887847900391
-365.649871826172
-346.766540527344
-319.490631103516
-293.359161376953
-266.178619384766
-231.749923706055
-195.127716064453
-164.990692138672
-155.549026489258
-156.121246337891
-158.505508422852
-181.68049621582
-193.411056518555
-180.440689086914
-166.516616821289
-129.131439208984
-91.4601593017578
-59.6064605712891
-46.6360969543457
-47.8759117126465
-64.6610870361328
-90.6971969604492
-107.005523681641
-102.904594421387
-90.9833068847656
-56.8407211303711
-12.4935140609741
2.1935179233551
17.0712909698486
42.2490615844727
40.1509132385254
21.7444381713867
9.72777462005615
7.24814605712891
13.4472179412842
17.4527721405029
30.0416564941406
46.9222068786621
48.1620216369629
51.1185035705566
51.5953521728516
46.4453544616699
52.2629470825195
53.0259094238281
50.6416511535645
63.1351661682129
73.7212753295898
69.8110885620117
66.0916442871094
70.9555358886719
75.8194198608398
63.1351661682129
43.7749862670898
52.0722045898438
69.4296035766602
70.1925735473633
68.3805313110352
70.9555358886719
74.0073852539063
71.7184982299805
56.936092376709
43.7749862670898
49.4972076416016
55.1240577697754
53.4073905944824
62.1814613342285
67.3314590454102
60.0833129882813
53.7888717651367
54.9333152770996
61.6092376708984
67.4268264770508
69.2388687133789
62.6583137512207
47.3036880493164
44.6333198547363
59.5110931396484
60.274055480957
54.2657241821289
60.3694267272949
57.3175735473633
57.9851684570313
74.6749725341797
78.2036819458008
74.4842376708984
84.4981231689453
92.2231216430664
79.729606628418
55.3147964477539
46.7314682006836
60.8462753295898
61.323127746582
59.3203506469727
78.8712692260742
77.0592346191406
66.7592391967773
74.3888626098633
66.5684967041016
56.2685012817383
43.9657249450684
22.5074005126953
23.0796222686768
39.3879508972168
55.3147964477539
64.2796096801758
58.0805358886719
52.2629470825195
46.2546157836914
34.3333206176758
23.4611034393311
3.91018390655518
-19.5509204864502
-20.3138828277588
-5.53147983551025
-1.9074068069458
-3.91018390655518
-8.29721927642822
-17.9296245574951
-15.5453653335571
-14.687032699585
-25.0823993682861
-16.30832862854
-2.38425850868225
0.286111027002335
6.6759238243103
1.9074068069458
-4.95925760269165
-1.04907369613647
-15.1638841629028
-34.3333206176758
-36.431468963623
-34.4286918640137
-29.278694152832
-23.2703628540039
-18.9786968231201
-12.6842555999756
-13.6379585266113
-17.738883972168
-15.0685138702393
-8.58333015441895
-8.20184898376465
-17.4527721405029
-19.074068069458
-12.302773475647
-3.24259161949158
-1.9074068069458
-6.38981294631958
8.77407169342041
13.1611070632935
-8.0111083984375
-9.25092315673828
-9.72777462005615
-24.891658782959
-17.1666603088379
-7.24814605712891
-12.9703664779663
-12.2074031829834
-8.67870044708252
-12.9703664779663
-23.5564746856689
-27.943510055542
-27.4666576385498
-33.4749908447266
-31.6629524230957
-15.6407356262207
1.71666610240936
6.96203470230103
6.1037015914917
7.82036781311035
-0.286111027002335
-13.256477355957
-21.5536975860596
-27.8481388092041
-27.2759170532227
-22.2212886810303
-18.3111057281494
-24.3194370269775
-34.2379531860352
-26.3222141265869
-11.9212923049927
-3.05185079574585
11.5398111343384
16.30832862854
10.6814785003662
14.1148099899292
14.7824029922485
15.0685138702393
17.2620315551758
10.2999963760376
10.6814785003662
20.3138828277588
18.2157344818115
10.5861072540283
12.302773475647
16.4990692138672
14.4009208679199
10.4907369613647
7.53425693511963
6.38981294631958
5.81759071350098
-0.190740674734116
4.1962947845459
16.4990692138672
11.8259220123291
15.8314762115479
31.5675830841064
24.1286964416504
11.3490705490112
18.5972156524658
35.6685066223145
44.5379486083984
39.4833221435547
35.2870254516602
24.4148063659668
10.7768487930298
10.0138854980469
0.190740674734116
-9.44166374206543
1.81203651428223
15.6407356262207
13.4472179412842
-0.762962698936462
-7.43888664245605
-2.09814739227295
3.43333220481873
5.1499981880188
8.20184898376465
4.48240613937378
-7.6296272277832
-17.8342533111572
-27.943510055542
-17.0712909698486
-12.6842555999756
-5.7222204208374
-18.8833274841309
-24.891658782959
-22.7935104370117
-38.0527648925781
-48.9249839782715
-48.8296127319336
-56.7453536987305
-52.8351669311523
-34.6194343566895
-20.2185115814209
-23.6518440246582
-45.7777633666992
-59.8925743103027
-54.8379440307617
-47.7805404663086
-45.1101722717285
-47.4944305419922
-48.2573928833008
-30.0416564941406
-22.5074005126953
-30.8999900817871
-16.022216796875
-10.3953666687012
-26.226842880249
-23.0796222686768
-18.5018463134766
-29.4694347381592
-37.0036926269531
-37.0036926269531
-36.9083213806152
-39.6740608215332
-46.7314682006836
-51.8814659118652
-43.1073951721191
-27.3712882995605
-16.5944385528564
-17.1666603088379
-28.4203605651855
-31.9490642547607
-26.5129547119141
-27.3712882995605
-18.0249938964844
-4.57777643203735
-18.9786968231201
-35.1916542053223
-27.8481388092041
-20.1231422424316
-23.8425846099854
-20.0277709960938
-9.06018257141113
-11.635181427002
-13.3518476486206
-1.62129580974579
9.82314491271973
9.82314491271973
6.6759238243103
11.3490705490112
21.839807510376
40.7231369018555
45.2055397033691
31.5675830841064
18.5018463134766
9.44166374206543
15.6407356262207
24.6055469512939
20.7907333374023
20.0277709960938
29.5648059844971
37.0036926269531
34.4286918640137
28.5157318115234
28.6111011505127
40.0555419921875
49.6879463195801
47.9712791442871
36.5268402099609
12.1120328903198
-3.8148136138916
-3.147221326828
-4.48240613937378
-17.5481433868408
-37.3851737976074
-44.8240585327148
-53.9796104431152
-67.903678894043
