Value(bpm)
84.6280991735537
84.7264858232923
84.8232219961304
84.9164119556553
85.0041440521567
85.0844926996094
85.1555212324915
85.2152856536142
85.2618392778785
85.2932382688828
85.3075480555885
85.3028506048927
85.2772525130721
85.2288938648236
85.1559577932924
85.056680658345
84.9293627437956
84.7723793577785
84.5841986180566
84.3644642889903
84.1151722121458
83.8386311015622
83.5371546811557
83.2130484981361
82.8685980098546
82.5060579789654
82.1276431869268
81.7355204540141
81.3318019353326
80.9185396468179
80.4977206567674
80.0712293204721
79.6408248083879
79.2081940347522
78.7749566948887
78.3426655710411
77.9128074814129
77.4868048044709
77.0660175139722
76.6517456643303
76.2452322706658
75.8476665330352
75.4601873597596
75.0839088975163
74.7202774145048
74.3710020308313
74.0377435276381
73.7221121030954
73.4256759976736
73.1499706271154
72.8965082135481
72.6667879226091
72.4623065324802
72.2845696795523
72.1351037454085
72.0154684713057
71.9272589816718
71.8702040155083
71.8400357902135
71.832048327136
71.8415872467154
71.8640240351318
71.8947364163378
71.9290947059388
71.9624541136885
71.9901530191562
72.0075172706764
72.0098705507333
71.9925508110214
71.9509327074767
71.8812544614482
71.7844946748113
71.6633629204083
71.520589899815
71.3589081165631
71.1810369434456
70.9896698072358
70.7874635033239
70.5770296159508
70.3609279899454
70.1416621770753
69.9216767640326
69.7033564792602
69.4890268910892
69.2805632752661
69.0784985926338
68.883087482129
68.6945807459062
68.5132259560985
68.3392680729882
68.1729500749725
68.0145136009048
67.8641996055967
67.7222490294696
67.5889034835545
67.4644059512588
67.3490015085385
67.2429380643545
67.1463505988691
67.0584670700438
66.9781000568139
66.9040761055589
66.8352358601337
66.7704320529297
66.7085279077202
66.6483959424124
66.5889171618835
66.5289806325402
66.467483431149
66.4033309608412
66.3354376270466
66.2627278654454
66.1841460128135
66.099417042637
66.009637551153
65.9160359882732
65.8198288621446
65.7222196068089
65.6243979016175
65.527539430013
65.4328060646534
65.3413464658848
65.254297081226
65.1727835347801
65.0979223972965
65.0308233299524
64.9725915977846
64.9242798954917
64.8857699638501
64.8557810297192
64.8329934683892
64.8160967437316
64.8037867646693
64.7947637780467
64.7877307894325
64.7813925065148
64.7744548019732
64.7656246940517
64.7536108435256
64.7371245653574
64.714881352073
64.6856029037762
64.648259942949
64.6047311500718
64.5588089461433
64.514300209946
64.474991156745
64.4446512505752
64.427041523757
64.4259272816339
64.445095222196
64.4883750737314
64.5596659500014
64.6629677438908
64.8024180306985
64.9823351367859
65.2072682562366
65.4809727125088
65.8022378601618
66.1683757457058
66.576727633303
67.0246219303613
67.5093335223395
68.0280445100485
68.5778061706658
69.1555021084176
69.7578127079704
70.3811811556091
71.0217814515253
71.6754890008088
72.3378157885786
73.0033190337183
73.6656634391923
74.3180466592698
74.9532137678153
75.5634738179326
76.1407327963644
76.6765449359544
77.1621840240153
77.5887358216356
77.9472119724206
78.2286848278135
78.424570557116
78.5338856882349
78.5671042622124
78.5361261081788
78.4531704851059
78.3305962775375
78.1807590481227
78.0159068675633
77.8481152242834
77.6892602065106
77.5510285557615
77.4449630909736
77.3825423630575
77.3726901559538
77.4119288363347
77.4931634435898
77.6093915873714
77.7536337824016
77.9188758212481
78.0980236050772
78.2838704733895
78.4690773732305
78.6461664144757
78.8075284653223
78.9454454426134
79.0532835370902
79.1334911718739
79.1929009859262
79.2384542082548
79.2771450102038
79.3160022624864
79.3620836465645
79.4224822822955
79.5043460370985
79.6149097799487
79.7615410398285
79.951799829344
80.1921582238924
80.4786856382256
80.8023867289501
81.1540465547569
81.5241810783866
81.90297834646
82.2802615197826
82.6454758578857
82.9877020565675
83.2956983741534
83.5579737130749
83.7630054257961
83.9071590435923
83.9999786173563
84.0525152754269
84.0760172687607
84.081837169351
84.0813688246907
84.0860148969489
84.1071852759244
84.1563264615792
84.2449821708337
84.3848859396192
84.5849600347008
84.8393357390067
85.1376068008215
85.4692156279398
85.823353748896
86.1888867270836
86.5543059974178
86.9077098674508
87.2368163337064
87.5290104380947
87.7714285714286
87.9542446344516
88.0803879599871
88.156234207054
88.1883941871009
88.1836429485731
88.1488577598421
88.0909659812168
88.0169034552519
87.9335837404178
87.8478782755424
87.7666071111925
87.6951458023577
87.6342160924859
87.5835860480462
87.5430320108845
87.5123380971442
87.4912957205358
87.4797031381752
87.4773650173428
87.4840920216386
87.4997004151188
87.5240108960302
87.5556014039812
87.5892712546046
87.6190926301759
87.6391223387216
87.6434110528653
87.626020622125
87.5810494049784
87.5026654460112
87.3851471589945
87.2229309728669
87.0106655452683
86.7451452979705
86.4296189938009
86.0687093916604
85.6670628745846
85.2293070132037
84.7600131012064
84.2636638324361
83.7446261391027
83.2071290837916
82.6552465954884
82.0928847613835
81.5237764845437
80.9516914632968
80.3805569472555
79.8141201239534
79.2559203498456
78.7092985630717
78.1774093538766
77.6632352763378
77.1696030426566
76.6992013021256
76.2545997693138
75.8382695289092
75.4526044074482
75.0997903167995
74.7793413717924
74.4886191197284
74.2250524444011
73.9861913048398
73.7696900986295
73.5732930680567
73.3948215261669
73.2321627191036
73.0832601738888
72.9461054081671
72.8187309011971
72.6992042442117
72.5856372792346
72.4769394070334
72.3731939009858
72.2745804294391
72.1812784827303
72.0934676560331
72.0113279410052
71.9350400266213
71.8647856096387
71.8007477152129
71.7431110282523
71.6920622361752
71.6477903838111
71.6104872412734
71.5804866039099
71.5587955620657
71.5466259396174
71.5451949283694
71.5557285026356
71.579465312474
71.6176610338525
71.6715932013445
71.7425665559272
71.8319189484096
71.9410278480912
72.0713175166463
72.2242669191793
72.4012110369742
72.6010346158174
72.8209564417408
73.0581279244764
73.3096471229387
73.572545177986
73.843774900987
74.1202016455124
74.398596627143
74.6756328869903
74.9478841169614
75.2118265776961
75.4638443418974
75.7005457345564
75.919968909553
76.1205865120235
76.3008707428584
76.4593005642711
76.5943695657729
76.7045943554398
76.7885234194622
76.8447463802038
76.8719035702664
76.8686958276889
76.8338944057721
76.7664290536428
76.667772690908
76.5423420847358
76.3947254775449
76.2294874470843
76.0511457598988
75.8641537694462
75.6728882479092
75.481642468546
75.2946243106525
75.1159591401433
74.9496972233094
74.7998254572953
74.6700431273126
74.5603519476404
74.4679170550478
74.389880733138
74.3234274782194
74.2657741712772
74.2141624346146
74.1658531001528
74.1181227373047
74.0682622025171
74.0135771802945
73.9513906870193
73.8790475043197
73.794081324144
73.6965207457606
73.5883274041483
73.4715022105979
73.3480286219026
73.2198686497782
73.0889599574257
72.9572140152796
72.826515282875
72.6987213810547
72.5756642182686
72.4591520363608
72.3509723448361
72.2528814531662
72.1656261174098
72.0883233419897
72.0199549918067
71.959517447395
71.9060192652198
71.8584791344365
71.8159241187992
71.7773881746425
71.7419109377463
71.7085367734394
71.6763140855345
71.6442948806123
71.611534584814
71.5772950141653
71.5419166220232
71.506093751683
71.4705182457017
71.4358792052869
71.4028631077353
71.3721540557482
71.3444341574408
71.3203840361212
71.3006834692711
71.2860121566234
71.2770506177968
71.2744812206141
71.278965636476
71.2904234944174
71.3078993718625
71.3303889061436
71.3568876125538
71.3863896088146
71.4178866217916
71.4503672770595
71.4828166729297
71.5142162412325
71.5435438974848
71.569774483074
71.5918805017367
71.6088331659858
71.620109907189
71.6270341459306
71.6313520923433
71.6348117082831
71.6391618621341
71.6461523368874
71.6575346928537
71.6750639872622
71.7005013556535
71.7356174644049
71.7821968499757
71.8420431685848
71.9169853901525
72.0086013203067
72.1154366271971
72.2341603985345
72.3613840048241
72.4936778492461
72.6275646934535
72.7595162314166
72.8859530322962
73.0032479812107
73.1077333406133
73.1957115338488
73.2634697155001
73.3072981398549
73.3237820089746
73.3136933772611
73.281096463731
73.2301741244821
73.1651182951158
73.0901115355033
73.0093133818153
72.9268514954126
72.84681754455
72.7732677242405
72.7102278114627
72.6617026663108
72.6316901238711
72.624130750503
72.6398935416183
72.6755795605459
72.7274951527557
72.7919507886083
72.8652463620321
72.9436602211405
73.0234419468147
73.1008089344029
73.1719468568377
73.2330140941587
73.2801502040114
73.309488479531
73.3172071363427
73.3026414603937
73.270737340421
73.2270285091268
73.1770382272323
73.1262656977351
73.0801808008255
73.0442270540536
73.0238326952185
73.0244298295969
73.0514816777386
73.1105181055083
73.2071798166595
73.3472573191192
73.533118235707
73.7588489372418
74.0173193128334
74.3012868782903
74.6033366422071
74.9158346014943
75.2308956930111
75.5403673782954
75.8358302700351
76.1086173016317
76.3498528705178
76.5505131266707
76.7020887570309
76.8031436067577
76.8570979706133
76.8676596265882
76.8386966046189
76.7741954377353
76.6782224965682
76.5548889723898
76.4083199203927
76.2426276322429
76.0618894796593
75.8701302619746
75.6713090020529
75.4688218040043
75.2638623040639
75.0570173704152
74.8488620414849
74.6399593818276
74.4308604108674
74.22210411633
74.0142175477469
73.807715985501
73.603103181006
73.400871663786
73.2015031114237
73.005468778587
72.8131719613678
72.6245978766648
72.439555889897
72.2578588107372
72.0793234263896
71.9037703299801
71.7310237602826
71.5609114522334
71.393264497722
71.2279172161801
71.0647070345205
70.9034743760068
70.7440625576577
70.5863210737169
70.4306702212841
70.2787207116181
70.1322079043716
69.9928396783505
69.8622996788089
69.7422513475361
69.634342714522
69.5402119390287
69.4614935983288
69.3998257342238
69.3568576807979
69.3342587118571
69.3337275633484
69.3569753104843
69.4045126545086
69.4751630040229
69.5676589983645
69.6807617113766
69.8132527720876
69.9639270072499
70.1315855556381
70.3150294150972
70.5130533934651
70.7244404438293
70.9479563732793
71.1823449224787
71.4263232210716
71.6786957869755
71.938810524603
72.2061725965861
72.4802736872079
72.7605907296173
73.0465847182154
73.3376995761263
73.6333610832535
73.932975871242
74.235930492475
74.5415905710288
74.8493000442752
75.1583814510968
75.4685173804036
75.7803546864845
76.0947144038006
76.4124446506438
76.7344215518127
77.0615503748356
77.3947668972994
77.7350390243411
78.0833686771562
78.4407939755165
78.8083917398132
79.1872803182825
79.5777945498156
79.9772365713791
80.3820980314017
80.7887253813619
81.1933147343747
81.5919101366768
81.9804056240689
82.3545514416453
82.7099647944235
83.0421454658639
83.34649658802
83.6185870184295
83.8586911860855
84.0715660213397
84.2622987268435
84.4361158501278
84.598359344954
84.7544688967733
84.909970921308
85.0704745720387
85.2416750543926
85.4293645451031
85.6393989817777
85.8741061285051
86.1298486631864
86.4023663128952
86.687307756824
86.980214774504
87.2765106552184
87.5714931550047
87.8603323324609
88.1380736195964
88.3996464863261
88.6399765760592
88.8565340113757
89.0496392071204
89.219804461744
89.3675897482793
89.4935996003387
89.5984798999432
89.6829145971357
89.7476223904858
89.7933533964484
89.8208858341136
89.8311758136036
89.8264027421633
89.8093291959121
89.7827286966153
89.7493756234492
89.7120401947108
89.6734851651664
89.6364642332361
89.6037221458875
89.5779964872042
89.5620208593633
89.5571574449929
89.5602190701261
89.5670791985709
89.5736108121337
89.5756848115686
89.5691722226865
89.5499502074497
89.5139118639828
89.4569797689125
89.3751231706445
89.2644313627575
89.1247647709605
88.9620535206135
88.7827413100219
88.5931950406215
88.3996861820843
88.2083812881664
88.0253413115144
87.8565293383348
87.7078263870733
87.585054985059
87.4939487347126
87.4368232226261
87.410889099542
87.4130062527489
87.4400921990149
87.4891033647931
87.5570186851266
87.6408253946057
87.7375069291537
87.8440328959269
87.9573511008166
88.0743522631933
88.190967990516
88.3019924417441
88.402105923431
88.4859469500696
88.5481285444188
88.5832611313515
88.5859819888179
88.550991086467
88.4730929780347
88.3472442217371
88.168974624351
87.9404661760776
87.6694432579526
87.3637625491985
87.0311725534316
86.6792618947225
86.315421742679
85.9468217416592
85.5803986068391
85.2228564375182
84.8806777744605
84.5601249925423
84.264020728271
83.9882596579828
83.7279973690984
83.478523592425
83.2352467173923
82.9936837063104
82.749455064926
82.4982845650976
82.2360034309931
81.958558695395
81.6620254099367
81.3427317930367
81.0005800978251
80.6395124717188
80.2636026114645
79.8768061920656
79.4829500168712
79.0857251865098
78.6886839781849
78.295240112589
77.9086720860501
77.5321292581849
77.1686404080721
76.8211245027904
76.491879337765
76.1806276502886
75.8863653557193
75.6081329747516
75.3450118551609
75.0961205829832
74.8606117069814
74.637668747553
74.4265034646752
74.2263533625054
74.0364794109035
73.8561639664784
73.6847088778132
73.5214410413761
73.365741902307
73.2170196186851
73.0746950147902
72.9382005112593
72.8069791676592
72.6804838238
72.5581763348388
72.4395268957735
72.3240134514091
72.211121188292
72.1003421054659
71.9911746612027
71.8831785448617
71.7768756536234
71.673592266129
71.5746655253842
71.4814188969051
71.3951640884826
71.3172034411153
71.2488327842132
71.1913447522457
71.1460325647623
71.1141942771693
71.0971375158326
71.0961847180629
71.1126787475839
71.1472138891953
71.1978362503952
71.262069458271
71.3374366354539
71.4214516957057
71.5116123478819
71.6053948159244
71.7002503006825
71.7936032225535
71.882851292021
71.9653674579317
72.0385037805103
72.0995972673979
72.1461969875123
72.1777655771218
72.1947663925444
72.1976898985503
72.1870435923613
72.1633500581472
72.1271450523846
72.0789756309464
72.0193983278131
71.9489773942865
71.8682831065557
71.7778901484382
71.6783760750993
71.5703289705677
71.454842853431
71.3337636713261
71.2089790818891
71.0823525472869
70.955721997602
70.8308994659102
70.7096716605595
70.5938014406065
70.4850301627743
70.3850808725106
70.2956623176647
70.2184737708529
70.1552106557263
70.1073793081734
70.0741840984681
70.0533181761564
70.0424673829501
70.0393304648368
70.0416132488741
70.0470243406046
70.0532723268008
70.0580644780273
70.0591069511377
70.054106493329
70.0407736467534
70.0168274459466
69.9800015895012
69.9288164979104
69.8655010295611
69.7933900942256
69.7158002928083
69.6360229970391
69.557320811718
69.4829271304378
69.4160487149308
69.3598712326181
69.3175677029414
69.2923098302353
69.2872822391002
69.3056996776172
69.3508264500692
69.4246280161412
69.5249873137194
69.6490378973363
69.7939228875537
69.9567761074079
70.1347055266273
70.3247789790701
70.5240121730433
70.7293590609589
70.9377046741959
71.1458605606886
71.3505629859634
71.5484740721179
71.7364733824137
71.9144987628904
72.0844072475074
72.2481269730219
72.4076266890488
72.5649131107281
72.7220293310243
72.88105434862
73.0441037654691
73.2133317088445
73.3909340364021
73.5791528896621
73.7802826716674
73.9963079444814
74.2252606519517
74.4626709554845
74.7039234508763
74.9442830758178
75.1788922915642
75.4027744464048
75.6108437240872
75.797922047991
75.9587632400122
76.0880846186102
76.1806060614448
76.2310976435487
76.2364732427988
76.1999708725221
76.1261223716715
76.019544052663
75.8848948241003
75.7268396626877
75.5500187429807
75.3590223630316
75.1583716616272
74.952505010664
74.745769884548
74.5424199563341
74.3466111966326
74.1609345616746
73.9845302281501
73.8160827997164
73.6543048163233
73.4979341284136
73.345731745113
73.1964801322822
73.0489819392442
72.9020591352575
72.7545525384349
72.6053217208489
72.4532452740871
72.2972214195312
72.1363623240653
71.9708198753527
71.8010818928222
71.6276297223551
71.4509375535646
71.2714720207867
71.089691870614
70.9060476936557
70.7209817180654
70.5349276622743
70.3483106442958
70.1615471449336
69.975045022216
69.789204943744
69.6049656083892
69.4246188360434
69.2506218049055
69.0853842593728
68.9312741302505
68.7906247235035
68.6657434240721
68.5589218845161
68.4724476953878
68.408617565347
68.3697520744001
68.3582121038265
68.3764170921565
68.4268630426798
68.5104928249855
68.6237662221108
68.7623892064172
68.9220583784168
69.0984310540733
69.2871006118347
69.4835771646699
69.6832737415702
69.8814982551744
70.0734515955459
70.2542322216929
70.4188476184714
70.5622329430955
70.67954462253
70.7712786686055
70.8429356028484
70.9002880955096
70.949169809291
70.9954567157327
71.0450579955609
71.1039167058976
71.1780203685337
71.2734216736664
71.3962696051489
71.5528514803442
71.7496466669245
71.9933798890555
72.2877840483605
72.629126811709
73.0125906906658
73.4332751326227
73.8861363570022
74.3659327118587
74.8671758049569
75.384087987057
75.9105670690269
76.4401594336602
76.9660429479019
77.4810212769261
77.9778377845032
78.4511088562819
78.8962210081273
79.308443751702
79.6829582853644
80.0148960627244
80.2993834463792
80.5315921694633
80.7067950979694
80.8204265377956
80.8681460720562
80.8459046589593
80.7518544204625
80.5934007235909
80.3808256611322
80.124452748096
79.8345245300496
79.5211075227939
79.1940238525637
78.8628086579552
78.5366917517112
78.2246017513318
77.935190842568
77.676878505612
77.4575357642743
77.2784026058924
77.1352701952137
77.0239185501236
76.9402584297026
76.8803000686898
76.8401266933044
76.8158724455279
76.8037044511605
76.7998088537833
76.8003807047033
76.8016176496221
76.7997175429894
76.7916446629525
76.7769062638451
76.7555392212565
76.7275837847766
76.6930835135096
76.6520852077634
76.6046388370916
76.5507974648714
76.4906171696062
76.4241569631451
76.3514787060216
76.272647020109
76.1877895352862
76.0986468237216
76.0086890220906
75.9214413784361
75.840397192082
75.7690220057036
75.7107609546592
75.669049228908
75.6473256370883
75.649049308347
75.6777196256226
75.7368995551743
75.8302426227426
75.9607113980102
76.1256157136866
76.319792862287
76.5380348095241
76.7750602721245
77.0254837083522
77.2837913611099
77.5443247077238
77.8012717966581
78.0486670347097
78.2804000229832
78.4902340193513
78.6722467263926
78.8268108086651
78.9593519836448
79.0755496406781
79.1811779536996
79.2820864128022
79.3841887377108
79.4934604674505
79.6159454802245
79.7577717121465
79.925176416261
80.1245414382357
80.3617759659393
80.6339527690052
80.9315677191205
81.2447378623307
81.5632905072425
81.8767339536122
82.1742542074465
82.4447398195908
82.6768368935669
82.8590358822004
82.9797909959311
83.0276727171164
82.9957471762118
82.8914317310441
82.7253429621878
82.5082423576831
82.2508930234203
81.9639441819197
81.657844121684
81.3427811706384
81.0286514942942
80.7250520548757
80.4412968872271
80.1864529016169
79.966223562525
79.7766901581253
79.6122813931866
79.467567376793
79.33722897245
79.2160348253137
79.0988256399338
78.9805053930477
78.8560392355316
78.7204578688583
78.568868176832
78.3964698552371
78.1993171142309
77.9783201535992
77.736280975675
77.4759809804608
77.2001631285742
76.9115209018428
76.6126893030423
76.3062378271714
75.9946653145677
75.6803965802011
75.3657807031909
75.0530908554169
74.7445255474452
74.4419738105139
74.1463218513831
73.8581945028712
73.578198039027
73.3069217848832
73.0449397910163
72.7928125684752
72.5510888808782
72.320307591731
72.1009995662559
71.893689628279
71.6988985739826
71.5171452456107
71.3489003036927
71.193798104476
71.0507813766185
70.9187983030331
70.7968220020367
70.6838475049102
70.5788890696904
70.4809778107291
70.3891596267019
70.3024934124536
70.2200495423673
70.1409086148814
70.0641604493775
69.9889033279572
69.9144884493074
69.8418455171717
69.7725183369419
69.7080406472042
69.649936391054
69.599722206558
69.5589105707012
69.5290135954081
69.5115474805976
69.5080376368016
69.5200244987217
69.5490700613112
69.5967651817014
69.664737580635
69.7540550482767
69.8638163149666
69.9927250210737
70.1394967331424
70.3028517710068
70.4815085176769
70.6741771843411
70.8795540130613
71.0963159092291
71.3231155047128
71.5585766609193
71.8012904287608
72.049811489748
72.302882871904
72.5612086735218
72.8265489514335
73.1007251063674
73.3856158369954
73.6831625115236
73.9953756693353
74.324342756322
74.672237215294
75.0413290745391
75.4339972039274
75.8527434398152
76.300203318007
76.7769352638674
77.2778402879201
77.7966671859278
78.3268275563983
78.8613642833436
79.3929310176926
79.9137844146305
80.4157910400535
80.890450909737
81.3289395403068
81.7221701418182
82.0610396064667
82.3415236648857
82.5658520835048
82.7369130075556
82.8578698831198
82.9321203071363
82.9632553089318
82.9550199194628
82.9112757689855
82.8359663292698
82.733085289329
82.6066484297127
82.4610952218068
82.3038489870998
82.1435362715637
81.9886595531831
81.8475949990852
81.7286127026746
81.6399135742533
81.589682558697
81.5861582370363
81.6377193901133
81.7529897731991
81.9409605053576
82.2068523060104
82.5433445628762
82.9407462932456
83.3892500151479
83.8787883317617
84.3989117931855
84.9386890956553
85.4866318800245
86.0306474019947
86.558023121483
87.0554481576546
87.5112167468767
87.9204459738829
88.2797492353528
88.5858282285007
88.835507165179
89.0257680776851
89.1537866483069
89.2169679249674
89.2129812289861
89.1397935218353
88.9957473073432
88.7837604496523
88.5145015787
88.1994145357281
87.849805879068
87.4767465639979
87.0910032378253
86.7029978043686
86.322793365904
85.9601044029754
85.6243290662374
85.3246016199429
85.0673508568599
84.849843380352
84.6674417624588
84.5156750926192
84.3902046846591
84.2867950842455
84.2012899116176
84.1295921926841
84.0676489260457
84.0114397073446
83.9569692877317
83.9002266758738
83.8366514661686
83.7612669413526
83.6691282179776
83.5553510282553
83.4151341108434
83.2437868706584
83.0367618840291
82.7896916881705
82.4984291432735
82.1590904988
81.7681001415596
81.3229254412667
80.8257803893272
80.2807490460658
79.6919533840521
79.0635092194426
78.3994903679633
77.7038968485121
76.980627255292
76.2334553047632
75.4660104658293
74.6817625013866
73.8840096865686
73.0758704228792
72.2605827468175
71.4447674502998
70.6368369719332
69.8445126883349
69.0748262353418
68.334178776222
67.6284100126525
66.9628742166056
66.3425212402125
65.7719811140282
65.2556514613933
64.797787538338
64.402595264357
64.0743281568344
63.8173896456482
63.6359362546493
63.5267652850364
63.4811553855467
63.4906872628942
63.5472501306048
63.6429106755677
63.7698044001329
63.920047330523
64.0856671342729
64.258553515642
64.4304283823924
64.5928367039201
64.7371591988929
64.8546479806174
64.9364860275181
64.9750953647226
64.9717114168097
64.93149295168
64.8597258953852
64.7617530969804
64.6429273707741
64.5085732612347
64.3639577163741
64.214269623507
64.0646079916291
63.9199784568797
63.785297738824
63.6654056813805
63.5650845685984
63.4890855081756
63.4417703480759
63.4233232795252
63.4314301260777
63.4638083110508
63.5182253252085
63.5924822744619
63.6843991534365
63.7918017189175
63.9125098787315
64.0443275478791
64.1850339553812
64.3323764127564
64.4840645785085
64.637766272469
64.7911049091579
64.9420528888589
65.0908581778686
65.2386152211321
65.3864401383549
65.5354695299592
65.6868608164707
65.8417929861668
66.0014677709115
66.1671112717317
66.3399760580336
66.5213437674808
66.7125282375446
66.9148792046848
67.1297866131515
67.3584813486187
67.5990837781251
67.8471815941617
68.0981685627392
68.3473011887791
68.5896967659466
68.8203382875037
69.0340867181586
69.2257010806408
69.3898667151176
69.5212319203915
69.6144529808523
69.6642473231559
69.6654542361898
69.6140038286777
69.5124599201527
69.3663320155109
69.1812386464021
68.9628307836018
68.7167351420848
68.4485067693633
68.16359105617
67.8672950234868
67.5647675212828
67.2609878210834
66.9607619923514
66.6687264153267
66.3893577931273
66.1269618611888
65.8838292283991
65.6591229292014
65.4517680465069
65.2607382790369
65.0850509301453
64.9237623557795
64.7759638252051
64.6407777543003
64.5173542765971
64.4048681219265
64.3025157766094
64.2095129027089
64.1250919969937
64.0485002730128
63.9790076931617
63.9165906201859
63.8623677895082
63.8175611975706
63.783393437242
63.7610915851143
63.7518915706156
63.7570430460015
63.7778147839467
63.8155006381458
63.8714261121922
63.9469555932397
64.0435003198067
64.1625271678784
64.3055683565793
64.4741863314535
64.6683012178815
64.8856606965645
65.1238508882487
65.3804209719597
65.652866990029
65.9386172930355
66.2350196923815
66.5393304351787
66.8487051588955
67.16019202121
67.470727232774
67.7771332458061
68.076119868003
68.3643225128193
68.6401837697006
68.9050122632043
69.1604176948837
69.4080723119639
69.6497071549746
69.887109038873
70.1221183501379
70.3566277380655
70.592581775837
70.8319776661776
71.0768670679132
71.3293591237833
71.59162477685
71.8652551871899
72.1487462191253
72.4395930652947
72.7352106297959
73.0329284652163
73.3299873420758
73.623537807727
73.9106409117937
74.1882712791229
74.4533227075528
74.7026164554456
74.9329123618323
75.1409278577969
75.3253453643903
75.4899304539992
75.6393446765234
75.7783492712504
75.9117893459375
76.0445839745456
76.1817225003739
76.328267296862
76.4893632378266
76.6702541650779
76.8763067172035
77.1130420026543
77.3853217927523
77.6898966795188
78.0187762343486
78.3636866762483
78.7160751998087
79.0670808028252
79.4075240432453
79.7279175602221
80.0184992216056
80.2692895698883
80.4701747986228
80.6110157777745
80.6833071900944
80.6896366705583
80.6376056809217
80.5350714708283
80.3900232972142
80.2104915883629
80.0044726275605
79.7798693546098
79.5444483272228
79.3058124635061
79.0713889031755
78.8484311729612
78.6436143039746
78.4578090878835
78.2878151353197
78.1304162709618
77.9824600405632
77.8408486601709
77.7025325657887
77.5645064461609
77.4238076594757
77.277516944588
77.1227613394605
76.9567192144565
76.7766291487631
76.581118636008
76.3724949766425
76.1536523823376
75.9274322546055
75.6966171447263
75.4639268721859
75.2320166922058
75.0034773954907
74.7808372220646
74.5665654753677
74.3630777319928
74.172742555975
73.9978869724082
73.8397413885627
73.6968489391605
73.567377104077
73.4495332756707
73.3415586633623
73.241723134984
73.1483209444242
73.0596673048433
72.9740957745636
72.8899564287794
72.8056147946479
72.7194515301846
72.6298628287923
72.5356016782814
72.4370731299342
72.3351717477224
72.2307835445806
72.124785202543
72.0180436133919
71.9114156329623
71.8057480429675
71.7018777141061
71.6006319643037
71.502829106239
71.4092791787721
71.3207848575426
71.2381810960177
71.163327146896
71.0991858106211
71.048762183944
71.0150578318939
71.0010837456308
71.0098758823584
71.0445133898033
71.1081396792642
71.2039865845047
71.3354019309375
71.505880943591
71.7191020472913
71.9789637044578
72.2866668904343
72.6353376282664
73.016528308184
73.4215074184733
73.8411853249081
74.2660600542077
74.6861854113452
75.0911642748408
75.4701701898106
75.8120003539938
76.1051627004766
76.3379989605777
76.4994204592022
76.5885983664457
76.6136677885478
76.5834099205285
76.5068450875817
76.3931137049442
76.2513775702205
76.0907427935874
75.9202047998733
75.7486151781841
75.5846697193291
75.4369167643199
75.313784975768
75.2226729850586
75.1641916732391
75.1360970804275
75.1362171702569
75.1624467812977
75.2127323894959
75.2850582943578
75.3774340908136
75.4878833205046
75.6144332241271
75.7551055410762
75.9079083244613
76.0708298621589
76.2421085055239
76.4205989246138
76.6052284556382
76.7949056737672
76.9885186337586
77.184933406762
77.3829929284351
77.5815161752787
77.7792976875123
77.975107457835
78.1676912059896
78.3557710591366
78.5383476210325
78.7158652401281
78.8892211634316
79.0593310222807
79.2271279666423
79.3935620936942
79.5596000931186
79.7262251199325
79.8944369055339
80.0652521177254
80.2397049808188
80.4188481675393
80.6032293958681
80.7912993658977
80.980950794079
81.1700366637895
81.3563697262653
81.5377231657285
81.7118324844532
81.8763986610631
82.0290926299297
82.1675611209163
82.2894338867353
82.3923594339089
82.475501820911
82.5403325346171
82.5885482138157
82.6218752905167
82.6420633669822
82.6508792602921
82.6501017530778
82.6415170792504
82.6269151648576
82.6080866367702
82.5868206057808
82.5646514495809
82.5406760335416
82.5126293369917
82.478238330582
82.4352399349498
82.3813851203957
82.3144442176262
82.2322134053718
82.1325223274214
82.013242776023
81.87229836099
81.7076750646381
81.518421723337
81.3079750155706
81.0809227797919
80.8417801678799
80.594974507878
80.3448353170117
80.0955891912017
79.851359299048
79.616169198819
79.3939507073826
79.1885555780097
79.0037707875216
78.8425843924453
78.7026430529602
78.5793624343189
78.4682298293961
78.3647967965812
78.2646677713859
78.1634937437759
78.0569708458113
77.9408437132135
77.8109134807983
77.6630502465922
77.4932097942872
77.2975970149275
77.0778620039773
76.8424245878888
76.5999712528061
76.3589832927611
76.1277322129329
75.9142933999975
75.7265769345701
75.5723746319133
75.4594227491345
75.3954802804227
75.3884233764831
75.4463571826908
75.5765045698482
75.7730964914321
76.0223293851215
76.3101633635965
76.6222639766331
76.9438785356405
77.259766011467
77.5541848094569
77.8109434651805
78.0135190416496
78.1452465922291
78.1895803671233
78.1307613927733
77.9664724659785
77.7112852380828
77.3811522456256
76.9920227623057
76.5595799086475
76.0990447248547
75.6250456513297
75.1515491873362
74.6918459597498
74.2585858983171
73.8638565078591
73.5192991771972
73.2361628672959
73.0188240674985
72.8608286090824
72.7551074655864
72.6949119196075
72.6737238491558
72.6851803300854
72.7230109520372
72.7809867814984
72.8528803311985
72.9324362281011
73.0133525231434
73.089272759389
73.1538000143944
73.2032547824044
73.240325681713
73.2686250873271
73.291785032463
73.3134503204459
73.3372752345971
73.3669238791621
73.406074178231
73.4584255687687
73.5277104485885
73.6177094808378
73.7322709141493
73.8753231922522
74.0481602153545
74.2457682794442
74.4621716270566
74.6912844415872
74.9268837559409
75.1625921941316
75.3918711489732
75.6080250916472
75.8042177257744
75.9735006301306
76.1088548711566
76.2032458019551
76.2500871769591
76.2490030034522
76.204548422505
76.121542610513
76.0048907009495
75.8595380057597
75.690430312034
75.5024805807729
75.3005421783513
75.0893886093026
74.8736995933158
74.6580532398928
74.4469240194489
74.2443869150077
74.0512192678752
73.8662367329893
73.6882548025829
73.5161145560716
73.348680555753
73.1848391270324
73.0234970032916
72.8635803176606
72.7040339255971
72.543821043362
72.381923188247
72.2173404067888
72.0491196568777
71.8775839735952
71.7047875120148
71.5328732272152
71.3639433249146
71.2000606372188
71.0432511866913
70.895507882987
70.7587953043118
70.6350555264245
70.5262149746347
70.4341922891863
70.3609072115329
70.3082905184279
70.2780434443399
70.2694680442489
70.2805428643918
70.3092641751501
70.3536503926264
70.4117326276387
70.4815463888012
70.561124399365
70.648490505863
70.7416546722796
70.8386090665868
70.9373252570993
71.0357525442022
71.1318207711389
71.2239988329564
71.3119318667933
71.3954152044503
71.4742441111571
71.5482140318743
71.6171208490024
71.6807611511829
71.7389325128207
71.7914337838908
71.8380653895299
71.8786296388507
71.9129310423469
71.9407766371957
71.9621223147584
71.9777803237937
71.9888761363473
71.9965391024487
72.0019007702465
72.0060939848487
72.0102523425363
72.0155100014536
72.0230018493972
72.0338640293056
72.0492348235161
72.0702558987883
72.0980739155073
72.1338089232923
72.1780039409396
72.2307116438927
72.2919750238679
72.3618432539242
72.4403717794394
72.5276224207459
72.6236634877776
72.7285699071233
72.8424233619249
72.9653124451087
73.0973328264881
73.2385874343278
73.3891422516219
73.5478767294737
73.7123549227309
73.8800341082142
74.048325797145
74.2145941354744
74.3761561458768
74.5302838989872
74.674208698538
74.8051273559565
74.9202106142896
75.0166137586727
75.0914894207684
75.1424494648496
75.1719611806658
75.1854846408198
75.1885557312129
75.1867247718172
75.1855451863449
75.1905703632717
75.2073587211202
75.2414869969072
75.2985718337291
75.3842998524148
75.5044665551647
75.6650246305419
75.8701695218662
76.1163849727479
76.3981919214119
76.7100440547534
77.0462768211544
77.4010639416814
77.7683817380301
78.1419818549449
78.5153731716744
78.8818138645571
79.2343146908228
79.5656545991863
79.8698343641797
80.1476577773125
80.4021183513221
80.6363419298503
80.8535694806878
81.0571423721894
81.2504900043486
81.4371200425754
81.6206114663089
81.8046106168481
81.9928304106809
82.1890380637207
82.3952741302604
82.6101077977113
82.8316759938409
83.0580776699941
83.2873708312055
83.5175704219616
83.7466471181072
83.9725270792593
84.1930927181511
84.4061845433825
84.6096041298565
84.8017740020835
84.9845930017759
85.1611615171851
85.3346376397361
85.5082332483517
85.6852131688475
85.8688967926
86.0626622635408
86.2699533529207
86.4942891606023
86.7392768107458
87.0078331938173
87.2978325669852
87.6050668839613
87.9252203038361
88.2538579439704
88.5864137269043
88.9181826467036
89.2443178155744
89.5598326805347
89.8596088070553
90.1384162538206
90.3925980123685
90.622339576187
90.8284260405966
91.0117002103237
91.1730580027946
91.3134438079477
91.4338458518862
91.5352916090261
91.6188433043292
91.6855935438274
91.7366768604452
91.7734025140312
91.7971840187416
91.8094506289704
91.8116425790062
91.8052076928022
91.7915984350806
91.7722694136278
91.7486753390422
91.7222694451911
91.6944848609646
91.6646340948939
91.6279225561359
91.5791015796948
91.512952341457
91.4243026203681
91.3080493136392
91.1591864525446
90.9728383496875
90.7442973713361
90.469065675687
90.1433207128437
89.7691901406607
89.3529595262493
88.9009319152419
88.4192860721411
87.9140355435121
87.3909967830505
86.8557658884491
86.3137033557205
85.7699261642162
85.2293064590487
84.6964494490053
84.1738867376691
83.6610372147929
83.1570706925074
82.6611930574138
82.1726443732319
81.6906971722899
81.2146549192176
80.7438506316907
80.2776456443844
79.8154285034451
79.3566139798053
78.9006440385704
78.4477180977263
77.9998555796873
77.5592645836711
77.1280525934221
76.70823260263
76.3017301562711
75.9103911915426
75.5359905809259
75.1802412993401
74.8448041571225
74.5312980605552
74.2413107818391
73.9764049726515
73.7368266330597
73.5198495677938
73.3224268230883
73.1416050310136
72.9745098134205
72.818333766273
72.670326838153
72.5277889538464
72.3880647624227
72.2485404100612
72.1066422517884
71.9598374238689
71.8056362003111
71.641976978966
71.4695354448201
71.290141941179
71.1056013983723
70.9176858209678
70.7281324094605
70.538642572025
70.3508817821783
70.1664802374934
69.9870342754734
69.814108505181
69.6492386170484
69.4939348383516
69.3496860079787
69.2177105947737
69.0981085038625
68.9906859860744
68.8952634501185
68.8116749374241
68.7397676310849
68.6794014048445
68.6304484097556
68.592792696366
68.5663298704869
68.5509667807864
68.5466212366258
68.5532217547108
68.5707073332862
68.5986278789927
68.6347851293271
68.6764958101765
68.7210672804881
68.7657942236382
68.8079574396319
68.8448247778243
68.8736542369626
68.8916992526802
68.8962161785966
68.8844739458437
68.853765857266
68.8014234370534
68.7248322147651
68.6230297861772
68.5014196405962
68.3669408486877
68.2264468469564
68.0866870635276
67.9543022043253
67.8358326640441
67.7377395449436
67.6664378891581
67.6283419504798
67.6299226466466
67.6777777459129
67.778715862596
67.9398559860104
68.1671536065797
68.4577007256924
68.8053977449667
69.2041572648211
69.6478022264205
70.1299690786319
70.6440202088887
71.1829660019198
71.7393975796354
72.3054319222996
72.8726716636295
73.4321823647341
73.9744904640435
74.4905614012966
74.9760821068994
75.4283524903382
75.8446765933059
76.2223824899419
76.5588447459516
76.8515081637505
77.0979125304587
77.295718033166
77.442730957398
77.5369292424498
77.5764874335208
77.5599743253536
77.4896599679621
77.3712073546747
77.2105245960007
77.0135780908517
76.7863336947879
76.5347070449242
76.2645232850715
75.9814861481074
75.6911561281535
75.3989373131985
75.1100723464542
74.8296449369256
74.562227208691
74.3083870709567
74.0663336829882
73.8342967243502
73.6105552590994
73.3934332659303
73.1812960234504
72.9725472946985
72.7656272617
72.5590111659008
72.3512086139053
72.1407635102232
71.9262545798369
71.7063130808551
71.4807660758623
71.2513364967851
71.0198806379806
70.7882087495073
70.5580848361445
70.3312273581633
70.1093107741161
69.8939678689741
69.6867928155622
69.4893449232162
69.3031530347459
69.129720540999
68.9705309914787
68.8270241444485
68.6992729105407
68.5854869274293
68.483778135526
68.392293776109
68.309210359204
68.2327286839638
68.161069863712
68.0924723180479
68.0251897022831
67.9574897501436
67.8876540092651
67.8139784506196
67.7347749327304
67.6483779076252
67.5542421980766
67.4543666429627
67.3510862513803
67.2467095367645
67.1435170800096
67.0437616627081
66.949669921415
66.863445476645
66.7872734972485
66.7233266716885
66.6737725723918
66.6407824177255
66.6265412583168
66.633259640596
66.6627740646253
66.7137256566174
66.783253872121
66.8684991833458
66.9665972339534
67.0746663800512
67.1897976526528
67.3090471647849
67.4294310187776
67.5479227929642
67.6614537016631
67.7669155273409
67.861166418582
67.9410396312468
68.0035224645963
68.0476262659397
68.0737285591118
68.0822613143796
68.0736846542327
68.0484844948891
68.0071701562549
67.9502719587555
67.8783388245792
67.7919358998493
67.6916422130885
67.5780483840878
67.4517543959667
67.313367441837
67.163510219917
67.0032755989475
66.834393038348
66.6586142371341
66.4776611414387
66.2932230933679
66.1069548891426
65.920475704754
65.7353688446093
65.5531822677384
65.3754298468946
65.2035933181429
65.0391248821235
64.8834504229575
64.7379733166073
64.6040297927584
64.4819696235489
64.3712538217565
64.2713283956615
64.1816563268454
64.1017158711062
64.0309989820029
63.9690098473715
63.9152635303046
63.8692847071172
63.8306064957404
63.7987693688254
63.7733201465809
63.7538110650522
63.7397989161586
63.7308274954676
63.7259951506762
63.7239160764408
63.7231814489053
63.7223829254266
63.7201123615163
63.7149621502004
63.7055261831804
63.6904014319716
63.6681901448412
63.6375026518816
63.5969607659586
63.5452017616283
63.4808829074738
63.402686519801
63.309349080679
63.2012905227167
63.081636712529
62.9537314087405
62.820874205184
62.6863139092105
62.5532453831845
62.4248097121645
62.3040975553712
62.1941555475835
62.0979956379595
62.0186072870508
61.9589724873441
61.9220836283143
61.9109642940686
61.928693161166
61.9777945091359
62.0563657090765
62.1606036523154
62.2867148535871
62.4308935295289
62.5892964498355
62.7580223257446
62.9330958071254
63.1104562564953
63.2859515424646
63.4553371447473
63.6142808854123
63.7583735934034
63.8831459682602
63.9840918315217
64.0573899116205
64.1041726902835
64.1277793747727
64.1316233722854
64.1191609011724
64.093871560124
64.0592425507129
64.0187566555126
63.9758840109118
63.9340776676166
63.8967729030194
63.8673902380402
63.8493421163886
63.8460432260926
63.8609244813908
63.8969880693623
63.9536485140037
64.0286335555033
64.1196730388684
64.2244966297554
64.3408229957493
64.4663505683734
64.5987498863491
64.7356575462237
64.8746718075568
65.013349916281
65.1492072213631
65.2797181661109
65.4023192359407
65.5144149982162
65.614154653578
65.7018130693515
65.7780489550426
65.8435402600896
65.8989818448568
65.9450832525336
65.9825665965498
66.0121645763218
66.0346186323875
66.0506772502956
66.0610944210051
66.0666282640597
66.0680398184253
66.0660920046556
66.0615429158906
66.0550613348418
66.0472458153858
66.0386926954093
66.0299977824721
66.0217562746504
66.0145627887954
66.0090114959376
66.0056963636253
66.0052115051314
66.0081516356846
66.0151126361869
66.0266922252655
66.0434907409761
66.0661119269518
66.0946379336904
66.1274065859528
66.1623887701538
66.1975475904002
66.2308376223504
66.2602054261968
66.2835913317224
66.2989325054119
66.3041673032864
66.2972409034486
66.276112199321
66.2387619183341
66.1832019115877
66.1074855381006
66.0098433227314
65.8910390309742
65.7541360301675
65.6022671222163
65.4385336882416
65.265993511553
65.0876516015901
64.9064539272518
64.7252839390139
64.5469617418245
64.3742457740858
64.209836851085
64.0563844430234
63.9164950774195
63.7927427823431
63.6876027646437
63.6014433561071
63.5323850217336
63.478479246834
63.4378137531333
63.4085039952376
63.3886858808863
63.3765096551842
63.3701349059558
63.3677266611945
63.3674525605407
63.3674810909493
63.3659808822999
63.3611210617044
63.3510726656915
63.334026624641
63.3092684197133
63.2778703872611
63.241070061923
63.2001025195307
63.1561985230311
63.1105831530994
63.0644749196546
63.0190853486635
62.9756190375718
62.9352741724337
62.8992435002856
62.8687157515197
62.8448775089322
62.8289155227484
62.8220194697174
62.8252222842289
62.8389728479139
62.8635959460626
62.8994284288272
62.9468203734985
63.0061363196063
63.0777565842363
63.1620786657665
63.2595187451261
63.3705132946948
63.4955208060999
63.6350236494464
63.7895300779683
63.959576393719
64.1457292719011
64.3484901278095
64.5680652851042
64.8046183811953
65.0583374305565
65.3294352782162
65.6181501422236
65.9247462479591
66.2495145577814
66.5927736001587
66.9548704031223
67.3361815376238
67.7371142771765
68.1581078810222
68.5996348401449
69.0613624456699
69.5401205022945
70.031968126126
70.5327343914286
71.0380004429745
71.5430864040687
72.0430439140333
72.5326552090827
73.0064397089955
73.4586690787136
73.8833916880898
74.2744672836294
74.6256215010399
74.9327621116201
75.1971191599487
75.4208805337503
75.6064407874712
75.7563748585815
75.8734119941765
75.9604104118696
76.0203331587712
76.0562255666402
76.0711946334555
76.0683905946832
76.050990884
76.022145007262
75.9842806069451
75.9392085030975
75.888716368552
75.8345853748132
75.7785880865192
75.7224871938113
75.6680350722116
75.6169741579625
75.5710381267531
75.531953865289
75.5014442282274
75.4812315775587
75.4727888328089
75.47596790625
75.4899858393105
75.5140667059746
75.5474410635766
75.5893439660786
75.6390131416471
75.6956873291925
75.7586047700363
75.8270018522312
75.900111906275
75.9771641520564
76.0573807991848
76.1396398945486
76.2220921074547
76.3027804890336
76.379731686754
76.4509573235492
76.5144564159982
76.5682188477313
76.6102299078197
76.6384758951241
76.650950778425
76.645663888694
76.6206486042351
76.574068518952
76.5051703462276
76.4138775350059
76.3001632083947
76.1640414724457
76.0055676187028
75.8248381394568
75.6219905544315
75.3972030492237
75.1506939274335
74.88272088001
74.5935800768907
74.2836050875078
73.9533671864948
73.6052024939553
73.2422886965138
72.8677209701645
72.4844949429391
72.0954999376849
71.703514767483
71.3112058728007
70.9211275834453
70.5357242900496
70.1573343178705
69.7881953089032
69.4304509355915
69.0861587897939
68.7570927668025
68.4436500298451
68.1457058429351
67.8631489700306
67.5958830519815
67.3438266918911
67.1069135745263
66.8850926212819
66.678328182379
66.48660026817
66.3099048216337
66.1482540343775
66.0016767087175
65.870218668692
65.7539380357612
65.6522852548322
65.5635239772407
65.4858131846667
65.4173410447502
65.356319302247
65.3009787103051
65.249565462198
65.200338593333
65.1515683304498
65.1015353697799
65.0485310686516
64.9908585356627
64.9268346031859
64.8547926626719
64.7731574045008
64.6826077177178
64.5864411376738
64.4880707176611
64.3908696234335
64.2981707353058
64.2132697268003
64.1394315180563
64.0799000232979
64.0379111467358
64.0167090299808
64.0195656164747
64.0498036753115
64.1108235196377
64.2061337660714
64.3392145909763
64.5097486643758
64.7135342988837
64.9461905510385
65.2032840064799
65.4802898781254
65.7725587444961
66.0752891569044
66.383506530702
66.6920488922681
66.9955601753686
67.2884918410419
67.5651136255473
67.8195341912307
68.0457925983535
68.2405860492081
68.4044548734069
68.5383266217629
68.6432299411701
68.7202850918513
68.7706942068897
68.795731438599
68.7967331280864
68.7750881240282
68.7322283646963
68.6696198241211
68.5887539094182
68.4911393821697
68.3782958497115
68.2518007017669
68.1133094909047
67.9644732998263
67.8069266763203
67.6422832848416
67.4721323715788
67.2980360221607
67.1215271851509
66.9441084301297
66.7672514063677
66.5923969667386
66.4209559214852
66.2543103876096
66.0938157018888
65.940650019107
65.7948921809235
65.6561576069256
65.5240697821042
65.3982613793644
65.2783735500017
65.1640552658388
65.0549627098871
64.950758712719
64.8511122320189
64.75569787304
64.6641954479251
64.5762895720611
64.491669295823
64.4100277702327
64.3311224436577
64.2550340043861
64.181948555164
64.1120512422933
64.0455263774008
63.9825576362949
63.9233282678162
63.8680213127771
63.8168198331391
63.7699071516305
63.7274671020661
63.6896842906889
63.6567443689211
63.6288343179745
63.6061427458476
63.5888110288778
63.5766338612712
63.5692578208177
63.5663314900596
63.5675055504632
63.5724323128556
63.5807652876726
63.5921587941911
63.6062676081108
63.6227466470167
63.6412506934135
63.6614341551513
63.6829508631858
63.7054539067122
63.7285955058008
63.7521060060214
63.7764038200542
63.8022636486792
63.830465809892
63.8617937916918
63.897034925208
63.9369812540029
63.982430603085
64.0341878521844
64.0930664190864
64.159889960296
64.235494298041
64.3207295846276
64.4164627174759
64.5235800208081
64.6430768630309
64.7764838006546
64.9255565495153
65.0921023301177
65.2779887382885
65.4851541440571
65.7156195069772
65.9715017777343
66.2550290915926
66.5685580019913
66.9145930539641
67.2958090590721
67.7150765087615
68.175490654787
68.6797762840462
69.2263788137248
69.8117252160493
70.4320393760348
71.0832971507178
71.761175945094
72.4610069792688
73.1777310961142
73.9058592559308
74.6394391658032
75.3720297855539
76.0966857231162
76.805964758936
77.4929426388515
78.152135049182
78.7780076781486
79.3648311456781
79.9067251137328
80.3977115867264
80.8317773654893
81.2029452801835
81.5053534408562
81.7333413220925
81.8815410592907
81.945519018534
81.9308561768883
81.8516831633806
81.7226313627403
81.5583732496508
81.373471541743
81.1822811503842
80.9989030726603
80.8371883046963
80.7107895592389
80.6332589853984
80.6181911642716
80.6781304249668
80.8105386667472
81.0028902060774
81.2425342323949
81.5167069622166
81.812398846524
82.1162612013987
82.414554196141
82.6931391514608
82.9375185535851
83.1329269976916
83.2644829991383
83.3229327030297
83.314666866118
83.2490362043142
83.1355971426309
82.9839922169935
82.8038517574209
82.6047178945183
82.3959910923879
82.186898788163
81.9864853163738
81.803622107365
81.6469260586315
81.5199028555375
81.4191267770563
81.3407485554178
81.2809888442047
81.236119228413
81.2024468800195
81.1763027042197
81.1540328743807
81.1319936927562
81.1065497399259
81.0740752891809
81.0311345281525
80.9778100236495
80.9174105485782
80.8533505061752
80.7890247099008
80.7278067734988
80.6730503350732
80.6280930714407
80.5962634682778
80.5808903304206
80.5853150450063
80.6129066480419
80.6668216636968
80.7467696604292
80.8499711409408
80.9736046015325
81.1148466288523
81.2708582796072
81.4387733896543
81.6156888151953
81.7986566408781
81.9846784162697
82.1707015032515
82.3536176320707
82.5307074650583
82.7011647560198
82.8647134165752
83.0210774242529
83.1699812272479
83.3111501808729
83.4443110001617
83.5691922278012
83.6855247164548
83.7930421244249
83.891481423488
83.9805044945275
84.0581998024259
84.1211944135017
84.1660543912377
84.1893521943593
84.1876827454077
84.1576821801443
84.0960491281278
83.9995683090446
83.8651361580282
83.6897881185716
83.4707272155553
83.2071032535823
82.9045675218121
82.5701728296976
82.210848930658
81.8333581079711
81.4442627965694
81.0499046188677
80.6563940424738
80.2696097775604
79.8952070118047
79.5386336204226
79.2051535775855
78.8988292421324
78.6181135459608
78.3597296144057
78.1205168006878
77.8974150522821
77.6874509362419
77.4877262569815
77.2954090750398
77.1077269696318
76.9219624137188
76.7354501488635
76.5455764590403
76.3498060908059
76.147091297865
75.9385594615304
75.725495022477
75.5091572061221
75.2907789275021
75.0715661227411
74.8526974850929
74.6353245831456
74.4205723389264
74.2095398442841
74.0033014949963
73.802908423505
73.6093941376838
73.4240461874642
73.2485758933057
73.0847083826294
72.9341459566179
72.7985742127168
72.6796689041887
72.5791035411987
72.4985577521492
72.4397264397207
72.4043297835425
72.3941241608914
72.4109140787226
72.456564921778
72.5314759033368
72.6309887737879
72.7493836335686
72.8809005857859
73.0197139129787
73.1599153134884
73.2955064678728
73.4204012895908
73.5284382341851
73.6134029928081
73.6690617747702
73.6892051870081
73.667702518196
73.6011537242938
73.4957397598922
73.3598411399368
73.201809111684
73.0299068628913
72.8522698866828
72.6768850453261
72.5115875948945
72.3640753279058
72.2419390482976
72.1527087988404
72.103915604831
72.1031689756287
72.1569721014572
72.2596867252335
72.3988391151782
72.5618218242418
72.7358635548246
72.9079663009192
73.0648877921169
73.193171363093
73.2792252919002
73.3094528213138
73.2704324607954
73.1491457729779
72.9332467692097
72.612059451659
72.1898878935345
71.6842502362169
71.1129387201808
70.4931989050395
69.841482536904
69.1732871049911
68.5030736387257
67.844252256877
67.2092244360969
66.6094715620793
66.0556807210069
65.5579005972547
65.1257225585808
64.7684844099879
64.4944662259227
64.3011423452871
64.1799017478275
64.1226719740634
64.1218486620456
64.170153763469
64.2605154762371
64.3859667153814
64.5395600492867
64.7142979155504
64.9030776479078
65.0986514194611
65.2936016491659
65.4803327271892
65.6510804620887
65.7998219921342
65.9267387223041
66.0333661142623
66.1213016684854
66.1921953128961
66.2477403615531
66.2896651468276
66.3197254113343
66.3396975294088
66.3513726125853
66.3565515396617
66.3570409398439
66.3546501473257
66.3511891376324
66.3484477137199
66.3479124043004
66.3508330118603
66.3584543222433
66.3720239572871
66.3927943765778
66.4220253570239
66.4609869602131
66.5109630018905
66.5732550431259
66.6491869288982
66.7401099070135
66.8474083686142
66.9725062612015
67.1168625901236
67.2809311501029
67.463305546942
67.6623785109722
67.8765264399978
68.1041011061811
68.3434220626783
68.5927697629859
68.8503794214416
69.1144356576865
69.3830679810739
69.654347182871
69.9262827144202
70.1968211379289
70.4638867133193
70.725902879256
70.981656981805
71.2299161604737
71.4694206124975
71.6988861158446
71.9170070462216
72.1224599020939
72.3139073469631
72.4900027725155
72.6493953797777
72.7907357681231
72.9126820139203
73.0139279034532
73.0937701810886
73.152169821797
73.1891577953187
73.2048032473031
73.1992130017262
73.1725309005114
73.1249369865299
73.0566465373598
72.9679089582758
72.8590065439263
72.7302531190176
72.5819925690517
72.4145973688141
72.2284829748615
72.0241235778233
71.8020197113301
71.5626917711329
71.3066779147942
71.0345319594556
70.7468212904774
70.4441247930216
70.1270308178554
69.7961351917738
69.4520392821287
69.0953481239839
68.7266686174428
68.3466118106147
67.9567780243509
67.5609812414585
67.1631903167386
66.7671970063393
66.3766183771162
65.994903237253
65.6253421043001
65.2710802741759
64.93513361388
64.6204067686535
64.3297135488024
64.0657993408995
63.8313654719182
63.6290955431292
63.4616835947475
63.3306453359915
63.2335496684912
63.1672706934103
63.1288027898763
63.1152330535319
63.1237171283886
63.1514580782748
63.1956880357837
63.2536524435251
63.3225967671007
63.3997556132653
63.4823442312945
63.5675524112706
63.6525408200522
63.7344398340249
63.8107613491461
63.8806410954237
63.9436232181787
63.9992528182427
64.0470769345497
64.0866455875136
64.1175128803623
64.1392381549939
64.151387198295
64.1535334942207
64.145259516292
64.1261580545278
64.0958335701944
64.0539035711529
64
63.9342798511187
63.8589444111231
63.7766915452864
63.6901976923728
63.6021132851429
63.5150604200639
63.4316327196532
63.3543973268731
63.2858989744735
63.2286660827749
63.1852188567852
63.1580793775659
63.1497837133965
63.1628961137747
63.2000253941719
63.2634255490487
63.3524526884054
63.4652249380193
63.5998828267418
63.7545804532468
63.9274726698428
64.1167033325868
64.320394569645
64.5366370479416
64.7634812438538
64.9989297472865
65.2409306499852
65.4873720883603
65.7360780282053
65.9848088186335
66.2316740393392
66.4755443156715
66.7153535135148
66.9500078022178
67.1783868835324
67.399345616392
67.611716056849
67.8143099301077
68.0059215485261
68.1853311856826
68.3513089120891
68.5026188928852
68.6380241418796
68.7562996810508
68.8569532388738
68.9408074892263
69.0088536610806
69.0621143252338
69.1016387839712
69.1284986844558
69.1437838901819
69.1485986397244
69.1440580170428
69.1312847528645
69.1114063722472
69.0855526993748
69.0548537270223
69.0204312658366
68.9831060287079
68.9432828848207
68.9013350704218
68.857634478091
68.8125514511738
68.7664546187688
68.7197107708746
68.672684773233
68.6257395213645
68.579235933259
68.5335329801784
68.4889877550317
68.4459555778067
68.4047886846589
68.3657569794172
68.3290076708281
68.2946776713936
68.2629038152185
68.2338229597711
68.2075720931348
68.1842884468236
68.1641096142553
68.1471736749923
68.1336193248861
68.1235860122773
68.1172140804327
68.1146449164212
68.1160199962137
68.1213477717818
68.1303770091521
68.1428274645778
68.1584195714726
68.1768741700509
68.1979122601624
68.2212547770861
68.2466223901334
68.2737353239799
68.3023132027137
68.3320749166429
68.3627385119587
68.3940211033898
68.4256375927532
68.457096004239
68.4874663426118
68.5157597866357
68.5409845421163
68.5621465825598
68.5782506789953
68.5883017193816
68.59130631659
68.5862747021751
68.5722229010241
68.5481751795216
68.5131667571176
68.4662467681466
68.4064960945719
68.3366681644309
68.2679272918686
68.2125355370958
68.1826857105197
68.1905711337844
68.2484991326135
68.3690497061439
68.5652829024412
68.8510013269012
69.2410781353007
69.7518661877719
70.4017113679598
71.2116033652264
72.2016877982401
73.3572326114939
74.6420628153344
76.014970578761
77.428294850137
78.8267624372234
80.1469740344699
81.3178274012775
82.2621887821801
82.9000611867742
83.1533211079038
82.9519411337575
82.2769390481511
81.2080491748086
79.842071715326
78.273465660098
76.589250152937
74.8661495961235
73.1696363720158
71.5543795109319
70.0656162806302
68.7410578555566
67.6130653625718
66.7109565099429
66.0634135627445
65.701063032325
65.656727096022
65.9245651495307
66.4670859061464
67.2503444165905
68.2422242557492
69.409873078156
70.7173917469425
72.1237274736737
73.580823911532
75.0321866030937
76.4121280949204
77.6460462252869
78.6526258770936
79.3824032175792
79.8477165364015
80.0731668939557
80.0887907402317
79.9283393503475
79.6276616927356
79.2233155339777
78.7514826122132
78.2472189985906
77.7440373893357
77.2737964575623
76.8668632388405
76.5488371354872
76.318951009849
76.1658280145373
76.078717643507
76.0473425244792
76.0617349843019
76.1121041224021
76.1887302837141
76.2818851615431
76.3817767736042
76.478519282608
76.562128092789
76.6225972266345
76.6549993762243
76.6635582510926
76.6534934125162
76.6300518606803
76.5984861583382
76.5640397201008
76.5319392979225
76.5073946294978
76.4956051937335
76.501774035816
76.5311286832431
76.5889492736777
76.6798394953216
76.8018473087131
76.9496219682074
77.1177585712306
77.3007930721566
77.4931764943414
77.6892567686486
77.8832685076038
78.0693311138911
78.2414556630988
78.3935609886483
78.5194993266159
78.6132822521456
78.6727420027144
78.6992952283895
78.6945790550665
78.6603070633988
78.5982560809186
78.5102533897668
78.3981644894827
78.2638815331214
78.1093125335729
77.9363714159585
77.7469689718769
77.5430046507411
77.3263189258682
77.0986267584856
76.8616011108731
76.6168850157635
76.3660883051008
76.1107850735393
75.852511843715
75.5927663969034
75.3330072305566
75.0746536032558
74.8190861277144
74.5676478734891
74.3216432818382
74.0820229946256
73.8490967585153
73.6230973617901
73.404253516052
73.1927904197187
72.9889303283398
72.7928931320325
72.6048969404937
72.4251586762044
72.2538946766001
72.0913213061443
71.9376555794031
71.7931157963911
71.6579934561056
71.5329963657
71.4189791247519
71.3167941807416
71.227294477498
71.151336515768
71.0897836270426
71.0435094736319
71.0134017915718
71.0003663968917
71.0053314801207
71.0292522187404
71.0731157426983
71.1379049198215
71.2227576175111
71.3242109265205
71.4385940887194
71.5622051324943
71.6912991141981
71.8220801611503
71.9506974316197
72.0732451345893
72.1857667620501
72.2842636778449
72.3647081784508
72.4230610915143
72.4552962782793
72.4591442416207
72.4371451564081
72.3927040898988
72.3292557451687
72.2502449476803
72.159110352705
72.059271441096
71.9541188127354
71.8470077419594
71.7412549275445
71.6401383511642
71.546900152065
71.4647524314442
71.3966537057684
71.3430524768426
71.3028869449673
71.2750941111594
71.2586278106497
71.2524552529348
71.2555538972692
71.2669086471414
71.2855093509656
71.3103485994626
71.3404198130479
71.3747156150034
71.4122264883237
71.4519543748454
71.4946731193791
71.5446145092971
71.6064346118588
71.6848308946703
71.7845609215307
71.9104675104827
72.0675107143603
72.2608071492182
72.4956774087079
72.7777025720877
73.1127911535579
73.5072582699738
73.9678771701071
74.4968529539985
75.0865767318164
75.7279627597386
76.4114125325856
77.1266715436812
77.8627062455901
78.6076056715211
79.3485136924337
80.0715991807819
80.7620722817721
81.4042553646027
81.9821531385166
82.4893997222569
82.9300440794381
83.3091899733788
83.6324832399845
83.9060297556665
84.136316789018
84.3301402540031
84.4945399770312
84.636744679763
84.7641279941395
84.8841689636233
85.0025528861924
85.1206566178215
85.2392548763608
85.3591310497141
85.481077389131
85.6058953501348
85.7343960855818
85.8674010957006
86.0057430404447
86.1502667201073
86.3018300722279
86.4605237905936
86.6238380323189
86.7886847380606
86.9519289156944
87.110388450495
87.2608362272017
87.4000046501113
87.5245926376002
87.6312751498915
87.7167152831214
87.7775801444323
87.8114389502946
87.8183382002084
87.7987914384967
87.7533596741515
87.6826480928817
87.5873026509164
87.4680065806784
87.3254768378391
87.1604605183415
86.9737312727414
86.7660857230248
86.5382388561826
86.290590363527
86.023494874538
85.7373309483575
85.4324997835344
85.1094238714183
84.768545601295
84.4103258254579
84.035242392429
83.6437886565002
83.2364719716497
82.8138978931667
82.3786300783768
81.9350828801952
81.4875843940204
81.0402857998548
80.5971618105493
80.1620151685119
79.7384847454309
79.3300568342329
78.9400792688525
78.5717780627212
78.2282763190454
77.9126070446439
77.6257120661202
77.3638870780058
77.1229155213368
76.8987151074637
76.6873175870966
76.4848530904783
76.2875387085092
76.0916710462332
75.8936225224491
75.6898412145002
75.4768540572513
75.2512732014251
75.0098671015692
74.7518084431922
74.4792372384942
74.1944458259408
73.8996773171501
73.5971196567321
73.2889011073181
72.9770870831933
72.6636782476583
72.3506097844525
72.039751751878
71.7329104292841
71.4318305689083
71.1381984713615
70.8533266583948
70.5768069198358
70.307694305384
70.0450733553744
69.7880564991352
69.5357823646419
69.287414336333
69.0421393436674
68.7991668645766
68.5577281292596
68.3170755108321
68.0764820901777
67.835241383009
67.5926672176274
67.3481841838853
67.1022031605331
66.8557109836626
66.6096748297537
66.3650339068626
66.1226999694972
65.8835580821365
65.6484676120073
65.4182634330134
65.1937573242048
64.9757395478253
64.764980593781
64.5622330792839
64.3682337944347
64.1837058866117
64.0092672300922
63.8446245152071
63.6889925324824
63.5416017341654
63.4017018183487
63.2685598701865
63.1414587056069
63.0196954050262
62.9025800261733
62.7894344865233
62.6795916070197
62.5723943097753
62.4671949632753
62.3633548693011
62.2602438863364
62.1572436125902
62.0540531365378
61.9509253659179
61.8481665196116
61.7460787636343
61.6449602788397
61.5451053571132
61.4468045250664
61.3503446943013
61.2560093373683
61.1640786886154
61.0748299692021
60.988537635642
60.9054736513287
60.8259077806052
60.7501079050443
60.6783649326239
60.6116244915776
60.5515363367724
60.4997762257358
60.4580142703128
60.4279200544161
60.4111686732245
60.4094477147865
60.4244652202849
60.4579586770262
60.5117051188423
60.5875324324944
60.6873319964399
60.8130728107669
60.9668173152157
61.1507391373262
61.3666962077259
61.6131482368703
61.8868993084495
62.1846906198093
62.5031801856055
62.8389157834242
63.1883110181514
63.5476247650371
63.9129443651545
64.2801730489978
64.6450221510495
65.0030087456683
65.3494593768281
65.6795205643029
65.9881897828588
66.2725513314639
66.5343991892563
66.7762571492541
67.000774224765
67.2107100909676
67.4089222615037
67.5983552843516
67.7820322042803
67.963048507625
68.1445687407541
68.3298259779501
68.5221243088858
68.7248445217327
68.9414377102755
69.1740431748215
69.4223411350352
69.6857540545657
69.9636999893763
70.2555894908541
70.5608225689015
70.8787857096913
71.2088489450689
71.5503629729043
71.9026563300433
72.265032621898
72.6367678151705
73.0171073806226
73.4051012200906
73.7993024851449
74.1981209190341
74.5998948773419
75.0028886107676
75.4052902820195
75.8052108085219
76.2006836277431
76.5896654853608
76.9700383477925
77.3396125394359
77.6961312008558
78.0375387879432
78.363814037346
78.675953619375
78.9750178187783
79.2621213175202
79.5384298445064
79.8051570285863
80.0635615033113
80.3149443090762
80.560646635489
80.8020479442382
81.0405645104625
81.2778250950839
81.5163557042524
81.759002250709
82.008679001557
82.2683729874105
82.541150687499
82.8301670935164
83.138677333556
83.470051072918
83.8277899543449
84.2155483980933
84.6367239543864
85.0872503438615
85.5563554560659
86.0325899757711
86.5039881419909
86.9580576822126
87.3818049619948
87.7617991057541
88.0842783548493
88.3353008907747
88.5009407111441
88.569421179383
88.5478051106899
88.4539700036258
88.3061735165524
88.1226820320174
87.9215874686957
87.7206997316765
87.537513018649
87.3892430050329
87.2929319768156
87.2656201768804
87.3225534652865
87.4597838640403
87.6626683729705
87.9165057572449
88.2064578100633
88.5173978820974
88.8338088413821
89.13973297353
89.4187774783114
89.6541795943738
89.8289349960262
89.9300259690573
89.959352165365
89.9225145592249
89.8254045955769
89.6741221005189
89.4748990452205
89.2340305183523
88.9578138707005
88.6524966303154
88.3242334615385
87.9790503273206
87.6214990785268
87.2523845178309
86.8718870089201
86.4801977123952
86.0775182254129
85.6640601982311
85.2400449291167
84.8057029391561
84.3612735285879
83.9070043163358
83.443150764482
82.9700991639719
82.4901091085452
82.0068003627296
81.5236729660649
81.0440681673864
80.5711722125329
80.1080226480045
79.6575168299218
79.2224223587516
78.8053891962422
78.4089632604598
78.035601336675
77.6876737943906
77.36588870261
77.0678685205091
76.7909876084571
76.5327218567975
76.2906356258897
76.0623705945583
75.8456363457677
75.6382025475619
75.4378926110182
75.2425787259312
75.0501781897712
74.8586509566313
74.6660664134762
74.473071585844
74.2835270373379
74.1014247494031
73.9306808794596
73.775146236478
73.6386206793513
73.5248713188383
73.4376544758378
73.380741436245
73.3579481463337
73.3731691142698
73.4304159260568
73.5337918736991
73.683743535357
73.8750385001228
74.1019918664058
74.3588837713034
74.6399061626901
74.9391179929608
75.2504090417054
75.5674728509377
75.8837894810988
76.1926189629367
76.4870064199638
76.7597998562521
77.0042036556668
77.216691441294
77.3950869630474
77.5372720919099
77.6412014888381
77.7049211482644
77.7265872773709
77.7044852372793
77.6370482467615
77.522875529228
77.3607495709004
77.1496521533403
76.8888468561099
76.5808781037321
76.232613123199
75.8511469490405
75.4434219822028
75.0161783896906
74.5759177712365
74.1288792930655
73.6810272843094
73.2380491830129
72.8053626924095
72.3881310497713
71.9912854056982
71.6195534488155
71.2763956371323
70.9603991830447
70.6689420339226
70.3995252210963
70.1497567140009
69.9173373980143
69.7000489829466
69.4957436519885
69.3023352939107
69.1177921883752
68.9401310362446
68.7674122444767
68.5977363891106
68.4292417904382
68.2606890662261
68.0936774494775
67.9306190538117
67.7738806084077
67.6257871564735
67.4886274906829
67.3646610897468
67.2561265129623
67.1652512316486
67.0942629022263
67.045402115456
67.0209366903231
67.0231776198143
67.0544968201922
67.117092239185
67.209794780306
67.3289972223048
67.4710521510609
67.6322993641797
67.8090422768688
67.9975281840584
68.1939324331708
68.3943466457357
68.5947711928418
68.7911121780531
68.9791832099991
69.1547122529748
69.3133538248826
69.4515645536451
69.5725386089641
69.6827488814637
69.7887862900304
69.8973272417137
70.0151323949293
70.1490584086376
70.3060831618357
70.4933450837022
70.7181975102957
70.9882793933966
71.3116042534506
71.6966700260325
72.1523487198476
72.6804641996084
73.273917686433
73.9248406062867
74.6249492427413
75.3653978293568
76.1366452014129
76.9283380418005
77.729215246984
78.5270393618018
79.3085622943459
80.0595334854091
80.7650690624887
81.4167226149489
82.0131844681594
82.5537444069912
83.037990617141
83.4658094441174
83.8373815670544
84.1531747484409
84.4139333927609
84.6206652094097
84.7746253263365
84.8773050243456
84.9321038072332
84.9465374522695
84.9288158708718
84.8872222893198
84.8300587224288
84.7656075234743
84.7021091631647
84.6477561421075
84.6107028256741
84.5990910056855
84.6210911370654
84.6835558005073
84.784428134052
84.9181426265865
85.0791381426432
85.2618266136463
85.4605600290716
85.6696046269631
85.8831224472381
86.0951605375583
86.299648187669
86.4904026107925
86.6616158016268
86.811537270924
86.9405550145398
87.0491120574776
87.1376867306451
87.2067902927703
87.2569644930443
87.2887790938675
87.3028293724705
87.2997336194005
87.2801306509347
87.2447342749346
87.1947685662521
87.131721983196
87.0570893738766
86.9723656896451
86.8790423203623
86.7786039472231
86.6725259139803
86.5622721132917
86.4492933815496
86.3350263929495
86.2208045613338
86.1067492546102
85.9921194468491
85.8761630615772
85.7581362732855
85.6373037747029
85.5129391683187
85.3843254780065
85.2507557763091
85.1115339225675
84.9659754066354
84.8134347010709
84.6551234777255
84.4952496490737
84.3382371942028
84.188444921311
84.0501719742529
83.9276677094149
83.8251458142676
83.7468025908653
83.6968393966652
83.6794893213888
83.6990482831944
83.758810929502
83.8551064648029
83.9815142329452
84.1316023410453
84.2988927126581
84.4768289115635
84.6587538365676
84.837897591806
85.0073759530636
85.1601998994341
85.2892966557691
85.3878296935279
85.4533688141387
85.4869973847601
85.4899680405773
85.4636016442466
85.409278015081
85.3284267804574
85.2225184429397
85.0930557464877
84.9415654144364
84.7695903209669
84.5786884899114
84.3711835507705
84.1508541371512
83.921586525445
83.68719315859
83.4514068406771
83.2178783943612
82.9901775961126
82.771797203649
82.5661599008112
82.3766280064727
82.2065158247229
82.0588946950722
81.933175269604
81.8257186656591
81.7328525092856
81.6509552830923
81.5764449696356
81.5057709518827
81.4354090739165
81.36185978938
81.2816493378151
81.1913338905251
81.0875065982946
80.9671070008231
80.8300178936824
80.6777589795556
80.5118648630602
80.3338618184887
80.1452631564524
79.9475651898082
79.7422437937005
79.5307515488074
79.3145154521247
79.0949351758378
78.8733818519762
78.6511853704756
78.4294086250244
78.2088728956185
77.9903729452854
77.7746857649163
77.5625711872093
77.3547726426091
77.1520180489414
76.9550208272035
76.7644810368201
76.5810866245893
76.4055147825307
76.2384334108958
76.0804185940283
75.9316373527433
75.7921380124323
75.6619737317563
75.5412027315439
75.4298885075699
75.3281000530137
75.2359120914225
75.1534053210552
75.0806666715401
75.0177895738368
74.9648742445645
74.9220271307805
74.8887427202523
74.862814784337
74.8417558225314
74.8230866158449
74.8043338185437
74.7830291918058
74.7567104690782
74.7229238428067
74.679228057593
74.6232000857909
74.5524423482241
74.4645914252703
74.3573395709439
74.2303519986166
74.0873751159712
73.9326368733963
73.7703110914996
73.6045069620922
73.4392632837338
73.2785472452771
73.1262575561685
72.9862317282246
72.8622573385124
72.7580871453167
72.6774579878822
72.6241134751773
72.6006047214403
72.6046412442874
72.6327709208288
72.6815838278644
72.7476911094077
72.8277071235048
72.9182347633126
73.0158539116032
73.1171130394712
73.2185239994764
73.3165600906983
73.4076574878372
73.4882201279461
73.5552854301789
73.6090598346118
73.650724447102
73.6814789165669
73.7025374697309
73.7151255028283
73.7204765546443
73.7198296752931
73.7144272012159
73.7055129434914
73.6943307937071
73.6821237493752
73.6701333592015
73.6595713662846
73.6514985071253
73.6469255091434
73.646863399071
73.6523246345107
73.6643244836818
73.6838826876559
73.7120254098954
73.749787480023
73.7982149412273
73.8583679135767
73.9313237888059
74.0181807759006
74.1193835729945
74.2321134040692
74.3525362028968
74.4767737784277
74.600897795485
74.7209276165275
74.8328323442776
74.9325372056574
75.0159343992005
75.0788984894394
75.1173063719573
75.1270617517093
75.1041294416646
75.0467524953366
74.958792743763
74.8450128469485
74.7101797658318
74.559035480153
74.3962738324346
74.2265234730644
74.0543367759182
73.8841845214326
73.7204561032824
73.567465003771
73.4294592993542
73.3106367269431
73.2138326440728
73.1374747378374
73.0791260114336
73.0363934789564
73.0069172114945
72.9883610370967
72.9784048173288
72.9747382465238
72.9750561386727
72.9770551815286
72.9784321481009
72.9768835623985
72.9701068190987
72.9562409630023
72.9357554394641
72.9098898623433
72.8798836214783
72.8469737855826
72.812393912789
72.7773732819153
72.7431365414424
72.710903772405
72.6818909612006
72.6573108787009
72.6383743630128
72.6262920047493
72.622165558191
72.6259069076864
72.6367042473133
72.6537388486651
72.6761939543425
72.7032534628575
72.7341007978661
72.7679179604299
72.8038847639854
72.8411782525141
72.8789723030441
72.9164374140794
72.9527406818489
72.9870621502937
73.0189021331225
73.0480576905701
73.0743369589444
73.0975481877119
73.1174998937137
73.1340010252535
73.146861135899
73.1558905677987
73.1609006442814
73.1617038714641
73.15811414855
73.1499469864608
73.1370342772967
73.1197547200743
73.0991836992146
73.0764406295368
73.0526427034669
73.0289044000368
73.0063373351925
72.9860504512441
72.9691505433161
72.9567431211172
72.9499336052342
72.9498288584666
72.9575390544552
72.9741780812927
73.0006491272043
73.0374401445627
73.0850005567225
73.1437912955479
73.2142861612394
73.2969732713608
73.3923566070614
73.5009576654633
73.6233172282658
73.7599972578309
73.9115829333674
74.0786848413522
74.2619143814949
74.4600133577252
74.6685816277487
74.8828367856865
75.097888599233
75.308733994564
75.5102585606331
75.6972449597415
75.8643886069429
76.0063209146171
76.1176402871319
76.1929508919574
76.226909028029
76.2149623175466
76.1593425146684
76.0661286349001
75.9415061951192
75.7916708394058
75.6227830299289
75.4409329279721
75.2521154130192
75.0622149859984
74.8770001710295
74.702126965072
74.5431508817845
74.4055471891921
74.2939173119291
74.207031595428
74.1412063883874
74.0928134674192
74.0582713919211
74.0340304067104
74.0165608705176
74.002345114073
73.9878726713964
73.9696388538186
73.9441466486675
73.9079119236357
73.8574719037859
73.7898629739421
73.7054670990152
73.6061117052354
73.4936308094545
73.369852459042
73.2365928344816
73.0956512800894
72.9488062559107
72.7978121946541
72.6443972403021
72.49026183975
72.337078155371
72.1864902646895
72.04011786118
71.899618093332
71.7666867707901
71.6430006927678
71.5302189868044
71.4299879474079
71.3439466073814
71.2737330439627
71.2209914334986
71.1873798814375
71.1745790691114
71.1843017753277
71.2183033495002
71.2783932004059
71.3652248730708
71.4750494599576
71.6030996359819
71.7445711305688
71.8946009850739
72.0482521790457
72.2005048232041
72.346254188127
72.4803158710767
72.5974383961163
72.6923234913798
72.7596541892211
72.7941307483031
72.791439981716
72.7533257224085
72.6839832378838
72.5876701459987
72.4686668964779
72.3312480001255
72.1796583086953
72.0180943998289
71.8506910179119
71.6815124438225
71.5145486140048
71.3537157809418
71.2028615012652
71.0657299685621
70.9435874735348
70.8340440373535
70.7344511832869
70.6421992856852
70.5547111298562
70.469437425394
70.3838542088788
70.2954620829985
70.2017872444962
70.100384253205
69.9888404890888
69.864782233941
69.7258822995737
69.5700023439913
69.397378586099
69.2102227339105
69.0107845257384
68.8012805557521
68.583887591698
68.3607373718585
68.1339128241122
67.9054456388617
67.6773151204109
67.4514482377819
67.2297207955884
67.0139596480661
66.8059458843398
66.6074206182546
66.4207656937087
66.2500198230835
66.0994181721923
65.9731473491313
65.8753745119703
65.8102816515238
65.7821052612847
65.7951818075755
65.8539996501881
65.9632583464406
66.1279366130847
66.3533706396415
66.645344969594
67.0101988283841
67.4534130579558
67.9711476052221
68.5556618533241
69.1989403169741
69.8925240823733
70.6273456006857
71.3935781966766
72.1805038781194
72.9764048887617
73.7684862338877
74.5428380005105
75.2844475065533
75.9772913920258
76.6094168880016
77.1801179689751
77.6907540649422
78.1431650449846
78.5396380595792
78.8828698289107
79.1759256853464
79.4221966831175
79.6253560449094
79.7893161314246
79.9181870053218
80.0162328459674
80.086668960659
80.1300851261318
80.1467478206416
80.136978108717
80.1011494578026
80.0396853260104
79.9530565456224
79.8417785281728
79.706408317739
79.5475415195108
79.3658091307812
79.161874511042
78.9374539510436
78.6976416932109
78.4481321593982
78.1944912386112
77.9421475815169
77.6963917054528
77.4623824152346
77.2451600666502
77.0496662602702
76.8807696485493
76.7432976657984
76.6420741467242
76.5816778094174
76.561092339309
76.5741872158645
76.6147281472659
76.6765233887781
76.7533841916473
76.8390952904896
76.9273953617008
77.0119675526308
77.0864402808426
77.1443985332503
77.1794058536634
77.1850382966359
77.1568337162621
77.0961866912652
77.0056507631583
76.8878299228783
76.7453597447222
76.5808901237348
76.3970697481908
76.1965323930931
75.9818850792418
75.7556981061251
75.5204969360435
75.2787558816792
75.0328933450976
74.7852562318709
74.538110857826
74.293662594159
74.0540592667086
73.821393817119
73.5977081206936
73.3849978859831
73.1852185723075
73.0002922746358
72.8321155403304
72.6825680990989
72.5535225060585
72.446854602324
72.3638876602101
72.3040957731056
72.2666116126086
72.2506133633914
72.2553198387805
72.2799859556547
72.3238985263015
72.3863723300042
72.4667464316328
72.5643807184639
72.6786526299586
72.8089540583434
72.9546884006319
73.1148022131387
73.285757097971
73.4631339890624
73.6424311873556
73.8190592402398
73.9883409007286
74.145516963537
74.2857582491341
74.4041839610406
74.4958865606571
74.5559631862958
74.5795534888062
74.5618836340957
74.5007167049943
74.4026991886955
74.2765110945603
74.1307962350541
73.9741076084662
73.8148729981521
73.6613802733474
73.5217816445197
73.4041160816516
73.3163492334326
73.2664304768922
73.2623671734905
73.312316810973
73.4222364656154
73.5864909091911
73.7959799089883
74.0415763898188
74.3140229229434
74.6038494751088
74.9013137253184
75.1963653009133
75.4786358260466
75.7374569583167
75.9619085716821
76.1408988796946
76.2633898926619
76.3247031074481
76.3298691570561
76.2849674906296
76.1962626643419
76.0701279551063
75.9129784515133
75.7312145126048
75.5311760602098
75.3191078137339
75.1011352957592
74.8832512350056
74.6713118681267
74.4709189774209
74.2842686827302
74.1099692533203
73.9464880405041
73.7923275727692
73.6460214344157
73.5061307957242
73.3712415584535
73.2399620859821
73.110921491803
72.9827684634628
72.8541706014788
72.7238142543456
72.5904093912235
72.4532353833246
72.3126472672364
72.169117795934
72.0231134993706
71.8750943745193
71.7255136381017
71.5748175399518
71.4234452348645
71.2718287107118
71.1203927705752
70.9695550666382
70.8197261836057
70.6713097694634
70.5247652837017
70.3812971456887
70.2425877453879
70.1103029363669
69.9860858123098
69.871560261983
69.7683352519625
69.6780098246131
69.6021788079479
69.5424392444314
69.5003975576089
69.4776774887464
69.475928850639
69.4968371626404
69.5418003560128
69.6101189436713
69.7002809008464
69.8107986193274
69.9402017032139
70.0870283474144
70.2498173630238
70.4271008112642
70.6173972215403
70.8192053818816
71.0309987017537
71.2512201580349
71.4782778449033
71.7105572031372
71.9469105775933
72.1867624274051
72.4295564180806
72.6747208944186
72.9216683142109
73.1697947667573
73.418479582981
73.6670850443271
73.9149561979698
74.1614207861285
74.4057892974896
74.6473551488388
74.8854809351881
75.1208415362778
75.3551754345301
75.5902938958145
75.8280539233913
76.0703594616396
76.3191635603038
76.5764715637649
76.8443453964121
77.1249090243016
77.4203551853013
77.7329534952209
78.0650271963868
78.4159939401197
78.7798623339293
79.1498597055655
79.5189564710553
79.8798585232797
80.2250126324093
80.5466260954334
80.8367017929024
81.0870896064689
81.2895548062312
81.4358635233976
81.5182326991015
81.5371048606352
81.5012207967882
81.4198833320516
81.3024963850718
81.1584717615817
80.9971575477424
80.8277883934091
80.6594573907945
80.5011088832985
80.3615513761182
80.2494897522146
80.1731668037153
80.1326846334406
80.1207224339251
80.1297596522512
80.1523112710559
80.1808955341139
80.208015677824
80.22615565032
80.2277898884649
80.2054072013558
80.1515486765615
80.0588592830809
79.920482120065
79.7363430578089
79.5125294617472
79.2553553512608
78.971078587871
78.6658554964471
78.3457056643708
78.0164866240322
77.6838779342699
77.3533740533568
77.030285334124
76.7197464636404
76.4267317079113
76.154990036166
75.9034451473716
75.6697797348407
75.4517537203888
75.2471943415057
75.0539876898382
74.8700716205389
74.6934299351524
74.5220877567411
74.3541080286411
74.18758907796
74.0206631919824
73.8514961602854
73.6788573035694
73.5040306317192
73.3289575587273
73.1555431103874
72.9856564829903
72.8211325806444
72.663774465777
72.5153566812278
72.3776294087487
72.2523234367419
72.1411559196081
72.0458369220843
71.9680767544274
71.9094394682924
71.869409898722
71.845993758607
71.8371934522498
71.841032875077
71.855549920875
71.8787901071009
71.908801286156
71.9436294239625
71.981315438088
72.0198930961016
72.0573879808717
72.0918175331281
72.1212137660804
72.1451176689876
72.1655537015921
72.1847826581791
72.2050705758579
72.2286886923264
72.2579148309457
72.2950362239304
72.3423537900574
72.4021878927747
72.4768856180882
72.5688296293311
72.6804486782071
72.8142269083086
72.9705580172819
73.1438766775738
73.3275045346505
73.5146395176857
73.6983421699802
73.8715347636381
74.0270138709425
74.1574770234867
74.2555639349834
74.3139124871843
74.3252292774994
74.282374006033
74.1784722308357
74.0109584103559
73.7867132462316
73.5140153839884
73.2011328709989
72.8562286234248
72.4872849125971
72.1020466782737
71.7079828800293
71.3122646847443
70.921759045235
70.5430361324651
70.1823891180606
69.8458649414818
69.5392203423251
69.2649138972676
69.0214025563758
68.8069962920238
68.6201109126817
68.4592559065733
68.3230235042707
68.2100788041833
68.1191508278288
68.0490243912319
67.9985326953841
67.966550552916
67.9519881803758
67.9537854961212
67.9709017008073
68.0018468592494
68.0443067828213
68.0958823933462
68.1541686798516
68.2167490593626
68.281191428885
68.3450459283529
68.405844443635
68.4611018829004
68.5083192585668
68.5449886005109
68.5685997140543
68.5766487783716
68.5666667171517
68.5378380412571
68.4922736425129
68.432398601712
68.3606414621431
68.2794250416725
68.1911589762064
68.0982339960195
68.0030179169846
67.9078533145042
67.8150568388423
67.7269201263872
67.6457122619342
67.5736837520897
67.5130717758429
67.4651105603727
67.4277361075032
67.3982208361056
67.3738536001822
67.3519344515604
67.3297715889767
67.30468046971
67.2739850665858
67.2350212525942
67.1851422876477
67.1217263673256
67.0421861720364
66.9439803273081
66.8246266524835
66.682391932788
66.5228651103061
66.3559643003115
66.1914866232899
66.0390383052663
65.9080567092152
65.807859342768
65.747718978814
65.7369647725739
65.7851103121893
65.9020109252623
66.0980543454426
66.3843911385835
66.7732142886184
67.2778500816962
67.9018184387663
68.6334565901472
69.4595831580576
70.3661617246201
71.3378503558552
72.3575871231043
73.4062243812014
74.4622334267794
75.5015099110019
76.4973181431884
77.4204177464592
78.2394221364806
78.929658895893
79.4915774652392
79.9320771237311
80.2597368644779
80.4845440927736
80.6176136240325
80.6709119852045
80.6569998031198
80.5888023660948
80.479415615868
80.3419521546448
80.1894257757477
80.0319603248074
79.872027450683
79.7107815216969
79.5493588680605
79.3888776602
79.2304381065405
79.0751229574751
78.9239983027596
78.7781146504239
78.6385082764536
78.5062028359363
78.3822112280886
78.267267472622
78.1605283826344
78.0605966466474
77.9660920376469
77.8756500140251
77.7879200293627
77.7015643260244
77.6152571995546
77.527684722326
77.4375449156788
77.343548359908
77.2444192309592
77.1389230068517
77.0266656579941
76.9082286087739
76.7842451189895
76.6553434121629
76.522145867035
76.3852683161517
76.2453194496511
76.102900321933
75.9586039585487
75.8130150603675
75.6667098018744
75.5202557203132
75.3742116923127
75.2291279946163
75.0855464455726
74.944000624131
74.8050161632224
74.6691111145825
74.5367963822895
74.4085762225478
