Value(μV)
-7.03302205675638
-11.1103403477959
-13.2100552541974
-14.2533255474408
-15.4593466506469
-17.239967254279
-18.932545268344
-19.5415536219393
-18.6925434414928
-16.8834947421997
-14.9125020236244
-13.1888993718559
-11.6364415105678
-10.1487916902709
-8.94577825533418
-8.37770505349139
-8.44483250285912
-8.6609747738048
-8.47377978010624
-7.78096190419872
-6.96755608339903
-6.45777246027627
-6.3246532412049
-6.37578254251413
-6.5208508635842
-6.90167214400418
-7.61498467181364
-8.41282214797578
-8.80961643079862
-8.50920831349385
-7.65434978145135
-6.61820268089457
-5.61680266182714
-4.60974814336482
-3.5522478017314
-2.60794418156035
-2.01606059862315
-1.79659676710719
-1.71012997551919
-1.55261322231219
-1.4114918049578
-1.54817085977975
-2.05741254032684
-2.74170294857796
-3.3444873252047
-3.80609853501295
-4.18984779038569
-4.39951850498817
-4.12662545898893
-3.17252246532615
-1.75859771606103
-0.393530708848601
0.588022428752556
1.2642049666524
1.8582630268739
2.33221770074604
2.39361463854278
1.91580928798953
1.19199100581327
0.616469621871111
0.130239109951521
-0.873247083593576
-3.01085223966995
-6.34337171731279
-10.4213686735364
-14.8249314666839
-19.4807982617068
-24.3657326777499
-29.0321191010335
-32.6492264058228
-34.6018894389713
-34.9627284686628
-34.2892086067264
-33.0209984965757
-31.2130164975946
-28.8626279107565
-26.3132758951235
-24.1466024875345
-22.6778483130126
-21.7064261679951
-20.8429716220694
-19.9833746225249
-19.321124999916
-18.9082015975298
-18.3672308104974
-17.1487429025268
-15.0099055960261
-12.1197903733236
-8.71370156292189
-4.81440703423673
-0.413283012763962
4.15631684198234
8.21141758036958
11.1573529461317
12.8530939335116
13.4812040106241
13.1586140309906
11.8461088759267
9.65692084191695
7.06214921354971
4.59660930459482
2.37112855916667
0.0330930590282996
-2.72286113645052
-5.72384457939436
-8.5216615728747
-10.9510648982402
-13.2697591269388
-15.6491013885305
-17.685373472977
-18.6475760834324
-18.2422761904129
-16.9570733565852
-15.5236515745195
-14.1527152147727
-12.4990405484877
-10.3803267594824
-8.28499599341293
-6.95999865806117
-6.56855248377923
-6.49704054565316
-6.07833941747126
-5.31738328574113
-4.69398971909356
-4.31239949254948
-3.52249824667341
-1.53338428550042
1.74610348476674
5.69745145974497
9.78779803999497
14.1083268895161
18.9633008044721
24.099119793635
28.6543073906591
31.9547213279612
34.1414409901819
35.8203263601412
37.2056704993256
37.8884079922449
37.5055272561367
36.3585986197635
35.0865424990421
33.7909593677439
31.8077316215515
28.5053932508976
24.1106283076148
19.468987712984
15.0261102927112
10.3611293288283
4.89747311884888
-1.15295192427223
-6.90267390092109
-11.8607333779415
-16.5515427240637
-21.8056306603067
-27.589125400691
-32.8936333366588
-36.8595415219794
-39.6883806617941
-42.1620333781106
-44.4261470602445
-45.6914921602734
-45.3035640198805
-43.7844061730233
-42.4249453641028
-41.8883313580398
-41.6029845914684
-40.7016430227693
-39.2259222505885
-37.9814859341699
-37.2664999987468
-36.2396998735181
-33.8319154389266
-29.9834685149239
-25.5332048494819
-20.9858915022285
-16.0231830428046
-10.5929419227033
-5.99563530155578
-4.04761228735081
-4.97735031088243
-6.84229452600741
-7.67440746541576
-7.86891152067868
-9.48946625073339
-12.96583207699
-15.6090962640914
-14.8842395841447
-13.3767016001342
-19.1669137400461
-39.7524235171359
-75.2734501317382
-118.312221767482
-160.272051377508
-196.513839287226
-223.847075145339
-233.68660798881
-210.604438520714
-140.579910259665
-21.5864124423724
134.751082615727
312.241347937041
499.447758011096
688.39061911463
864.644261169212
1002.12060875505
1071.70347555244
1057.31815243403
963.852563071157
809.615346212826
612.582815566123
385.512012629954
143.365973040906
-88.9359536615964
-281.470463924419
-415.169024560437
-493.138011868516
-535.351566919248
-561.44384777086
-577.989465244941
-580.787057339691
-566.58276067893
-540.223776358489
-510.47932355894
-481.076352199156
-447.832776393403
-404.684721017537
-351.381532456667
-294.782290840588
-243.51838061124
-202.4517300442
-171.990857521863
-151.069386584707
-139.272177391075
-136.089883220837
-139.306857966937
-145.071265628289
-149.525622943757
-150.051207799508
-145.259789315674
-134.720691788331
-119.301805089651
-101.414043910938
-84.0365534570044
-68.9805969769161
-56.1912078726432
-44.8918664842358
-35.1435496137273
-27.8547198050451
-23.2680178803572
-19.9574561487348
-15.7833823133964
-9.78191138238758
-2.76129111783879
4.02896532333331
10.4416346252758
17.3313772033266
25.1164552650182
32.9653118376396
39.6589405890348
44.9739192022039
49.7944654264565
54.8426015506812
59.6775776046846
63.2107062360551
65.0169599067614
65.7676735894612
66.3244583429876
66.7591748950455
66.5644223476724
65.6826397293991
64.9059338091535
65.0631962829548
66.0247713119235
66.792744155446
66.5373112524523
65.2612848736359
63.3403593014061
60.6938432758521
56.7859342802405
51.4870412817634
45.6227503254192
40.4056815480596
36.3967323446778
33.2664173774374
30.6052548104138
28.6975192588913
28.2548669410977
29.4816444656577
31.716814523736
34.1441646284478
36.6725138252133
39.8605323049374
43.9804267486253
48.4086275057224
52.1123384080647
54.6275776117476
56.3449857627284
57.826841001348
59.0745999650195
59.6464148492941
59.3838940184253
58.7454795667928
58.3016886715217
58.0479894695425
57.4104264721665
55.9239619194645
53.7425192150875
51.4171989043775
49.3257873003085
47.5058137483305
46.0146220067907
45.2071611533386
45.459066336838
46.6488360586633
48.0775148784873
48.9670710677179
48.9622356866213
48.1019371051238
46.4391979135607
43.9092764108647
40.6325795853766
37.177288197332
34.3069975445863
32.4136694599462
31.2866263292476
30.4825353330445
29.8298042460425
29.4707536113957
29.4741731736495
29.6054208419155
29.5967961595154
29.5535433661374
29.908830958384
30.9129380431326
32.2663686010451
33.3610159231593
33.851106684506
33.884289263301
33.7761085897445
33.6121391188717
33.306590354328
32.995122413203
33.1609033762784
34.2247285887202
36.0476803099857
37.961691651538
39.3263097548577
39.984189973786
40.1410318044301
39.9200747452112
39.2093750493324
37.9782072059228
36.5796710980367
35.5441871424461
35.025400612727
34.5431492212864
33.3527919567618
31.0440847878193
27.7351957798737
23.7505998296696
19.2776089064601
14.4369516548696
9.59833744474456
5.4233080778138
2.46728968956041
0.756306362558988
-0.180262886636466
-0.868344816065928
-1.53874280383941
-2.19575943899617
-2.89538364183387
-3.81374982327645
-5.03546280657718
-6.401517170881
-7.68102953181695
-8.88424977676292
-10.318206193274
-12.2895446725456
-14.7880554398724
-17.4910064407011
-20.0231570086475
-22.1261349873951
-23.5813450988246
-24.1072294405704
-23.4939546441444
-21.888571274345
-19.8780496935934
-18.207812850958
-17.3887349345324
-17.5561036453991
-18.6182111510438
-20.4045960691164
-22.6143516976575
-24.7233775686701
-26.1251593383189
-26.4749778972715
-25.8879327506206
-24.7578486637152
-23.3974923030707
-21.8964302576512
-20.2907814332801
-18.7319948679456
-17.3711113585373
-16.1079223775783
-14.6052100565438
-12.6656408302084
-10.5737716655248
-8.97303388019049
-8.36948711855742
-8.80038949989401
-10.0070562219849
-11.8403762989614
-14.3670166630378
-17.5636476605958
-21.0487531787417
-24.2782923194172
-27.0368405539327
-29.6427013631749
-32.5920826255086
-36.0258026601363
-39.5973997592093
-42.8225800323528
-45.4343813019515
-47.342322857072
-48.3619985430203
-48.184011149207
-46.6991028903057
-44.2709446547696
-41.5585349304644
-39.0375539156334
-36.7442881789866
-34.4795148433999
-32.1405551816462
-29.7423936041397
-27.1700524881604
-24.1130310042605
-20.3995244286951
-16.3677854422262
-12.7702711065895
-10.2357088782908
-8.85709705595155
-8.32406496611232
-8.35532500095512
-8.86105448105699
-9.68941395614184
-10.4121138029558
-10.5689557911396
-10.1518631718311
-9.71834976250951
-9.93357692465523
-11.0443959134476
-12.8670608090454
-15.2052494019014
-18.0760669156312
-21.4290762663236
-24.7923518918131
-27.4459078439173
-29.0310863061257
-29.8489753297352
-30.4004550337535
-30.6667447706297
-30.0119169769834
-27.8554703716847
-24.3004210110803
-19.9511683659645
-15.1951432133193
-9.93331381108321
-4.17637189171134
1.24243432354852
4.85055676765089
5.58768148733484
3.61529368781192
0.0134937005136848
-4.21667012220314
-8.67830677156877
-13.1617280811697
-17.0407781899442
-19.4279867832639
-19.9784242919712
-19.3187971565025
-18.4913430792984
-18.0035089728538
-17.525142324477
-16.4341364560509
-14.4054288246101
-11.3514332865158
-7.01881882940625
-1.03238670130059
6.50731578427081
14.6568197817964
22.1035232910446
28.025796503019
32.3550819964295
35.2203675948759
36.4270271192267
35.7432462778748
33.594757280637
31.079564297647
29.0244781923657
27.1302371794445
24.3121248785697
19.9304275352059
14.4764146804817
8.93015683461075
3.66771286309096
-1.65875647313012
-7.14895194998838
-11.9515531571832
-14.8907440300824
-15.739299924438
-15.531494134004
-15.460023627641
-15.6850342565041
-15.4851351800992
-14.4433987052244
-13.0448280487625
-11.9032539857451
-10.7311503897613
-8.57422185279136
-5.14434080484056
-1.51227642733778
0.872687948364494
1.7025859916356
1.95143624815819
2.4531495088468
2.79625280789845
2.05122856895492
0.408405855272246
-0.543704415901924
0.469660300431162
2.72056639730936
4.01931487547482
3.00344350792779
0.45105646816169
-1.97981009886483
-3.99721625348263
-7.06389985269347
-12.379313168801
-18.877863184218
-23.6032134639296
-23.9086723569031
-18.9563678876429
-9.34270498138271
3.7175014695567
18.0270892681066
29.6589705715281
33.9985394270441
28.6474734330259
15.1730769470226
-2.90045729389939
-24.2354403217064
-51.2853449479162
-87.0713270262842
-130.362018220945
-174.540150013746
-211.239579634271
-234.291165134464
-239.465895335307
-221.126856099912
-171.180744579594
-83.0911749789745
42.7489113508037
198.153470481015
371.531688608393
552.057394836166
728.680274756648
885.869648999651
1002.67463143417
1058.27918599974
1039.81818742642
945.906933467848
784.741108309232
571.525119510714
328.636791446143
85.3209875702228
-128.660282181974
-294.487714304666
-411.744285548896
-493.816676648439
-554.209305696236
-596.098401073415
-614.216488515165
-605.327691487066
-575.172923740372
-534.850005155056
-491.813589015415
-445.99354125862
-394.58733582802
-338.880983470423
-285.004081000588
-238.63626466788
-200.842167915934
-169.92942172433
-146.095242994678
-132.170102118413
-129.118454294047
-132.068977507452
-132.46640025919
-124.684195270147
-110.056940780131
-94.2355978669658
-81.2745986512776
-70.9510587542452
-61.3127168910429
-52.3237361236377
-46.0088077387955
-43.5026061155181
-43.2062694976721
-42.376437935426
-39.8969885067076
-36.7108936081917
-33.7027434659477
-30.0981967332472
-24.4904920708946
-16.9591393632889
-9.32242327546665
-3.11503517189002
2.09141750762321
7.87214803798161
14.7290359024666
21.3060271470966
25.9438044793247
28.4872025779488
30.0782884009302
31.3866201379308
31.7159534000884
30.1616894146584
27.2518095313102
24.8859015501355
24.6064631204368
26.3315386531712
28.980593110226
31.9756168320217
35.626006491471
40.0615919361227
44.3559862569852
47.1741833546818
48.1834637739772
48.4111181070676
49.0837862623496
50.4116356171821
51.7610927905741
52.7961043572737
53.9644431665591
55.7046904941192
57.5406337290057
58.4001575791533
57.8440657746965
56.6416179679901
55.9434887201
56.0915291070219
56.5165075574418
56.711496824857
56.8975444635439
57.5093293781998
58.2819212102211
58.28061967345
56.9433849096505
54.8139708868179
52.9974964645965
52.0060219236393
51.4214549893936
50.7017205682643
49.9712683334974
49.7308358185717
49.9401474939123
49.8219465803921
48.7928025045022
47.3827023804516
46.9174467815198
48.2619856396737
51.0968097525545
54.5062718625418
58.0039112422212
61.6446051003315
65.1618681346409
67.4114864761534
67.0410393223178
63.7107749059689
58.4296145830869
52.615189310916
46.9940373000327
41.5365070014973
36.2518153091094
31.6509827499058
28.2671146472658
25.9440415997613
23.9129906383085
21.6260182733672
19.3345734786645
17.7553940063751
17.323504708547
17.9571843161455
19.4688718581815
21.8890655407928
25.1910113604621
28.8426587164723
31.9273549717619
33.8128811306087
34.5603387055209
34.5570519696549
33.867169677929
32.1599175417386
29.2851143797141
25.6706202093092
21.9370198432846
18.1954799892704
13.9840723239424
9.00947766391686
3.79272002903769
-0.622066534023549
-3.5865440731018
-5.3095751600076
-6.36897242166351
-6.97297607430108
-6.92783834993315
-6.2845382596414
-5.71698015281085
-6.02764754167926
-7.3272230310693
-8.89167135588402
-9.87793304895177
-10.0456491981934
-9.69682203723065
-9.07211667779927
-8.0764625054494
-6.66416437775012
-5.27030496692098
-4.59483314675941
-4.91347685170472
-5.73984532438637
-6.24487418814355
-5.91973259629822
-4.74252618358856
-2.81983747037337
-0.135952233373057
3.20764104850773
6.6473194730666
9.2999545392624
10.5470955374656
10.4034785431749
9.26531287077953
7.41367701410381
4.90897269954437
1.91862779990854
-1.10071683546413
-3.7329350459773
-6.05011495471297
-8.53263566885196
-11.4638882488106
-14.5134380433522
-17.0314345934859
-18.6931294554641
-19.6984727655941
-20.3238238275269
-20.4723231554909
-19.8586452755038
-18.5989829620145
-17.3949297715162
-16.9823429058401
-17.4573853251504
-18.2773676785442
-18.9180142880194
-19.3906522768976
-20.0572512516364
-21.0902715203065
-22.3252948591214
-23.6647178446946
-25.4245261161808
-28.0852119887463
-31.7009265621533
-35.6843563015089
-39.2243100817539
-41.8305226168058
-43.4192069640298
-44.0049115170365
-43.5469882812811
-42.1890930160824
-40.4977288269828
-39.2428697685705
-38.8651293946349
-39.2197375684233
-39.8648950296566
-40.496878858449
-41.0113667779665
-41.2351819872397
-40.8388692123943
-39.6633478655871
-38.0532817450939
-36.6822828728009
-35.9714102456822
-35.7438979466122
-35.4934294598264
-34.8953955620926
-33.9304337553551
-32.5496665008364
-30.4395912405748
-27.3000555463023
-23.3213716685004
-19.2122690680453
-15.6560533079032
-12.7888039284262
-10.2707440752852
-7.79136198202802
-5.35681762359301
-3.0690199055919
-0.807525183870887
1.67089238306611
4.31172937648993
6.60253809223049
7.94960859657047
8.17697377491249
7.57546944584569
6.5089782660246
5.12404123758566
3.49998478631534
1.92884861785771
0.825444651454864
0.302128959210785
-0.0326422396800012
-0.717765427560888
-1.89818851167875
-3.22692042653854
-4.287168635838
-4.96939971399803
-5.34681460012877
-5.29725657356614
-4.47049602222996
-2.72070360651085
-0.454469280301797
1.60716458924312
3.02792278612765
3.933451665271
4.6933384773877
5.4725810118771
6.21823316339514
7.00455894093621
8.15647134173635
9.88905079999583
11.9060509303705
13.5254122158035
14.2501671977429
14.1296437594915
13.5225329068015
12.6315774326044
11.4278920632147
10.0039937450313
8.7802792723245
8.17838640573242
8.12134118181318
8.01633565777335
7.30108115957796
5.93017793761612
4.26720795246852
2.60810269733967
0.987838028713142
-0.528939585822584
-1.56781944640705
-1.6587762213808
-0.729723732310791
0.763628612386317
2.27534807803967
3.64999142515778
5.08233094995233
6.69048736582156
8.3250974079536
9.85698411767638
11.4728355067065
13.4658600704904
15.7225131280803
17.5987268619123
18.4331431873732
18.1176059081064
17.0522970106322
15.6106609024832
13.8681613309671
11.9442595871163
10.400472506292
9.98352945048317
10.8740564614842
12.353709916424
13.3747892249962
13.3964561139165
12.5075043074979
10.7865734101015
7.85893163221777
3.33777538764397
-2.39827781137783
-8.20006696415533
-13.0952142388088
-17.1074061853076
-20.9445189974223
-24.9402967891735
-28.5699885320233
-31.1149791810998
-32.5660246233379
-33.5549819578327
-34.3906557938179
-34.4719091563416
-32.8873047103034
-29.4791810956035
-25.0454069289636
-20.4570381661508
-15.8353504014887
-10.792159700619
-5.32682948756272
-0.173659051995639
3.78905689881087
6.19709703660221
7.06437073694629
6.18686598635457
3.08188900115022
-2.34362427842922
-9.29629677041744
-16.4520032065239
-22.6067667555201
-26.6611883728414
-27.1285495185894
-22.4141350467458
-12.2697783187091
1.08224149434079
13.9005830990587
23.3845319728403
28.9349103393601
30.660860097987
27.11643421316
15.7070500570326
-3.89105949582142
-27.2705596283558
-47.6511317628099
-61.6227282665116
-72.3141731477413
-86.1455837602656
-106.318340659031
-129.999524972342
-151.908885339485
-169.41026665534
-182.371533939721
-187.523788733481
-174.262077770616
-127.952564388151
-38.5467696510021
93.6418615209009
259.692080511061
447.443310337244
643.276182211961
829.010290143887
980.148746859835
1071.15058857897
1085.11158177109
1019.34672032374
882.402551981212
687.353802037702
449.525374703207
189.923388761278
-62.9181230053636
-279.396813287026
-440.661884898427
-545.369202178687
-604.846423591827
-631.491950147707
-631.453099086235
-607.064438714017
-563.83736783449
-512.841940919183
-465.626098995219
-427.381138370596
-395.403114408301
-363.657529378403
-328.304445114096
-289.527194754539
-249.883222752063
-212.344559401923
-179.706136112684
-154.41015832362
-137.766173818492
-129.318400804302
-127.439104862604
-130.423225785758
-136.320798224403
-141.529139670969
-140.604706515355
-129.104983466721
-107.557815057162
-82.31353237815
-61.5000508124394
-49.3210917020955
-43.8549931779484
-39.9999742603928
-34.1616361768322
-26.2046970910733
-17.804910910051
-10.0775394818977
-3.1431959094818
2.81656627635302
7.19429291082895
9.93771172103961
12.2786590742703
15.8299529271772
20.9673225410797
26.5460314487063
31.3574531990135
35.4771967944862
39.7995636250868
44.4255071546641
48.0668104290339
49.3051588877821
48.1478076222592
45.9620565580021
43.964387412253
42.2286157348055
40.3743952309227
38.8344421105596
38.8667244355377
41.1946340888721
45.0249127902805
48.7571286452842
51.5482004539215
53.8361144751356
56.29902167704
58.7056578391028
60.1481901101643
60.2705266942643
59.8093657560806
59.7106805316412
59.9734140836797
59.7217320831497
58.4015079907949
56.5641212604473
55.2801262967539
54.9975651971605
55.2991602781022
55.7523674061064
56.6124985700559
58.4111082155127
61.0132099755362
63.4619040964333
64.8873859063492
65.3491864530365
65.571760724465
65.9765523267029
66.2849114455733
66.1388793393902
65.8005975776035
65.9025225623627
66.5323215882699
66.8826043756374
66.0026425114898
63.7613801682484
60.8454985475809
57.8453645682905
54.6171208669733
50.6885381039151
46.0876947696593
41.4486399127526
37.2464432377512
33.1887134150463
28.5947287834594
23.3068778914842
18.0004670415037
13.5498510554309
10.2959167245086
8.09360315024449
6.91906183254169
7.09197507151979
8.77020027024517
11.4433051551974
14.2113170238908
16.5908947938864
18.8554031070757
21.4972770011367
24.5370591689566
27.5722543003722
30.4279455137457
33.4275442504151
36.8055502975686
39.9926879736923
41.7929744984347
41.3937955346988
39.0698944292628
35.7788215981519
32.1994459911107
28.4083551203141
24.5011163293282
21.2056540089436
19.5415370066587
19.8434212374387
21.347476023205
22.8901844627872
23.9154341375605
24.6475627377223
25.36460756929
25.7963633863231
25.4091178171007
24.1300290833545
22.5027805493673
21.0444778473815
19.6290559626393
17.677244731673
14.8869955664824
11.5793128035063
8.2877291747585
5.20230993380434
2.19365834779381
-0.702274913784988
-3.08205638764015
-4.57122611476665
-5.27398988631187
-5.63169055704949
-5.84840318452099
-5.64676354761944
-4.68652430924144
-3.08494940361827
-1.3383375857027
0.235749600639473
1.74253624811917
3.25950591989087
4.28807401165092
3.92490086592121
1.6776126040812
-2.02159475388576
-6.23707145553663
-10.3771817513932
-14.4484416888665
-18.4841918123668
-21.992193087623
-24.2343591585045
-25.0440311280665
-25.1335730778114
-25.4331859535961
-26.1941673216318
-26.8752191635757
-26.8618631057595
-26.0888707883729
-24.861216168266
-23.2486025599022
-20.9458810063196
-17.8158827892682
-14.3933264795291
-11.6589134008131
-10.3196976182203
-10.4263789544703
-11.6758641435699
-13.8745908834427
-16.9303928639936
-20.4828587519175
-23.8210400622992
-26.3339888947073
-27.9633635557493
-29.0641146481767
-29.8416032633633
-30.0951918175502
-29.5833815250996
-28.4768723256716
-27.2348550820552
-26.0294666720961
-24.5017354038839
-22.243532730858
-19.4356421058435
-16.8087922690115
-14.9262680207984
-13.6621741155592
-12.5196040434459
-11.3678344697754
-10.6463698984816
-10.7813689913311
-11.5887074357995
-12.4604676321544
-13.1118123504031
-13.9242934463483
-15.4258154712039
-17.5508506651499
-19.6056131203528
-20.9663459658292
-21.6274375597744
-21.953974218873
-22.0435090544333
-21.5865365866115
-20.4190432237497
-19.0166005762073
-18.2298885992076
-18.5340885987826
-19.6856642576688
-21.151422866627
-22.7039783171922
-24.4280197092604
-26.2149277466446
-27.5141335051431
-27.7492997303213
-26.8944463275747
-25.4635925718043
-23.917729293098
-22.2375345813051
-20.1681428288512
-17.747939310169
-15.3801762298018
-13.3535414291273
-11.4849230491144
-9.40642757691457
-7.14509914873442
-5.22083642130677
-4.09932670783309
-3.6862318772777
-3.50757744163741
-3.33054939502605
-3.40907401478433
-4.04524548778157
-5.07459915780868
-5.99437180031238
-6.60230164547722
-7.31879822412667
-8.75143256391346
-11.0322511334282
-13.7455674671759
-16.4925855755759
-19.3243446677524
-22.4821587097223
-25.8277351237599
-28.7669525481672
-30.8114300381803
-32.0592985274189
-32.963510938377
-33.6864553370261
-33.8829839552625
-33.1855340033643
-31.7336228168173
-30.0322053456707
-28.3214576356706
-26.3033013776908
-23.6076592852401
-20.3946805384036
-17.2866535315776
-14.6887180668903
-12.360060533506
-9.77681933817992
-6.80034251554613
-3.78164754897426
-0.997810752154244
1.78798642021923
5.01700950307063
8.66159410368205
12.0821593809306
14.6263898151129
16.2063574447058
17.1224691885708
17.4129213875026
16.6492876447242
14.4997208849012
11.3237337350984
7.96952140441159
4.97793507805448
2.20168457539672
-0.670263060376634
-3.38806123954946
-5.21390451528962
-5.7545761615869
-5.48693747447984
-5.26130354007765
-5.38237907120693
-5.43476532038093
-5.06658878238224
-4.68623380037462
-5.11597266198452
-6.60118099437425
-8.44351022780118
-9.75616609811547
-10.4021371291595
-10.9369053097918
-11.6635164476189
-12.0578538013776
-11.3342454890672
-9.4232298083042
-7.07953765062488
-4.96153750334895
-2.86250872884073
-0.075810659748754
3.6042645835636
7.5656985651089
11.1485530260667
14.4590557650902
18.1287295004346
22.3348168844694
26.4066347425712
29.5808467189637
31.9237936384303
34.1751452975078
36.6809194669077
38.8234386123793
39.7397450158371
39.4053085768501
38.6152198851966
37.812324250074
36.2808882793908
32.8450061362698
27.2860734273182
20.7026094980843
14.331021654545
8.31834791440917
2.0268759575867
-4.5217630845616
-9.97316660177728
-12.7158447644155
-12.4502357586176
-10.3264839435745
-7.51370855468417
-4.02892466183752
0.732197180639361
6.55595080438324
12.0383947315994
15.8501322763488
18.05272948181
19.7962228618228
21.8177525058201
23.6767935669993
24.6188156784753
24.7685734849464
24.9558185765962
25.405599929841
25.1601535982683
23.1661567885711
19.6636225085807
16.0046328789499
13.1301927157063
10.8429360662711
8.98634366514312
8.85992952630559
12.4873797619016
20.060133945047
28.6722016320197
34.3925759936049
35.6282593921249
33.7377760198709
29.9653125849366
22.5345869767968
8.05855683381611
-13.7373827350528
-37.6157861818822
-56.4630805511574
-67.8270853880673
-76.4010506905202
-89.5498557175111
-110.49313193843
-136.043369200966
-160.24661957216
-178.608423536394
-187.737407865341
-181.708758575536
-151.009202156387
-86.8369207810121
13.3132709200281
144.773674273967
299.947578760653
471.84002562733
651.990473504427
825.128793753574
967.64383919274
1053.4557179816
1063.24604877712
990.125801868999
839.484112071381
626.570669900314
375.171409626408
115.719117954593
-120.946433018125
-313.269786479682
-455.214496444963
-553.126984481722
-615.697482369971
-646.32424611681
-644.490101541438
-613.145406478613
-563.060018145862
-509.019527024054
-461.741467299626
-423.417680261875
-390.167024133623
-357.551677735054
-323.624257175552
-288.338297627853
-252.301049616969
-217.070437349723
-185.734275102262
-161.650529960935
-146.024016964687
-137.196918407247
-132.705341606903
-131.532342273472
-133.547065950949
-136.818780456159
-136.686991738598
-128.770032058969
-113.208540659906
-95.3352013595287
-81.5006073717036
-74.0331328548934
-70.2013061517394
-65.6524833424994
-58.2975879944498
-48.9414673868146
-39.1215233774228
-29.3882672115349
-19.756726828578
-10.8601110173607
-3.69181217736733
1.81034962891862
7.20613118724224
14.0888557874694
22.3786285196442
30.4871326096752
37.1305554770852
42.5013106981191
47.4064757069274
51.6448393863038
53.8515308952999
53.0805868956992
50.1036180953405
46.7459426368961
44.0798763120685
41.7064969532646
38.9042903414857
36.0378069864174
34.3724715153113
34.5773875596429
35.9020123959187
37.1081880946473
37.9598151528438
39.3806114804647
42.1281015901277
45.7076947632512
48.8731022426502
50.9990376294918
52.5632466783345
54.2248234414871
55.8207115936567
56.6302601752567
56.5188028182515
56.3955774744028
57.3292019341216
59.418288499063
61.8131317761924
63.782099038307
65.4146926739966
67.1261636033441
68.7550413388609
69.5562437829961
69.1466531239234
68.1445794897985
67.6077726288879
67.9269807722812
68.5279912148622
68.6813652791522
68.3210438160235
67.8495267576392
67.3047262049876
66.1046221823731
63.7735314572519
60.6986311878107
57.8804930430655
55.9372301287519
54.582756141283
53.1699898708861
51.5212409366392
49.9646936229611
48.6208216635647
47.003146165291
44.5481543300468
41.388478158924
38.2961607549926
35.7929803815387
33.5393352756634
30.7791431047309
27.2584794645291
23.4432511194866
19.8219535683991
16.3153676014514
12.6665804143992
9.32370046242568
7.56185267986439
8.48663141704489
12.0032664265243
16.9485015491504
22.1802356551728
27.282011627475
32.118064884056
36.0096538144277
37.7999013616622
36.8863174669254
33.9687453457983
30.5207177690067
27.5324082682658
24.9414346806877
22.2820627482009
19.5979519362797
17.4532507845139
16.1366146750987
15.206377250858
14.0314328114662
12.6413897488664
11.7803138640731
12.0813586958761
13.385329903184
14.9946030433214
16.4414915058701
17.7619068112992
19.0213310261401
19.8718565696563
19.8384641940775
18.9804767646842
17.9971860581612
17.5414939985738
17.5526402548765
17.4177099559512
16.7126444629391
15.5545157978074
14.1628642366187
12.3142300226193
9.52285815017639
5.78238496091439
1.88543304908934
-1.18880624471383
-3.15040364844891
-4.51417583450069
-5.86954513518479
-7.2448410339956
-8.3100135398996
-9.03370680838272
-9.838844762395
-11.0154226428354
-12.1822302582919
-12.5680757937259
-11.8350726766981
-10.4655241308629
-9.28459488357015
-8.75619145538392
-8.88691699780707
-9.69556023344514
-11.4590891446104
-14.3200236434303
-17.7970991689407
-20.9596255031267
-23.1843519318365
-24.6274625985051
-25.8740301861932
-27.253086307801
-28.6782048227907
-30.109318728217
-31.8668760068369
-34.2391112778709
-36.8415677854661
-38.6404365218012
-38.7802861718978
-37.3265800995069
-35.0909189960385
-32.8089005981876
-30.6851343817802
-28.7638770123874
-27.4713597249483
-27.4663744820557
-28.8964558462256
-31.017602625337
-32.7521789945047
-33.6095542290459
-33.9501698746045
-34.3904315012488
-35.1586663810949
-36.144515297819
-37.3946219029409
-39.2337947965234
-41.7658405475875
-44.4197887633458
-46.2141757840256
-46.5021591530675
-45.3468375486459
-43.1658490694829
-40.2088611787718
-36.5603032507798
-32.5536558233724
-28.8693776021577
-26.0238265102219
-23.8562672917146
-21.735360892036
-19.319812474683
-16.970379512201
-15.3232647512273
-14.5921128779977
-14.4877952817861
-14.8002313015085
-15.7876221145887
-17.7705963166585
-20.4222667946637
-22.7331700187702
-23.8275502142301
-23.7210000289522
-23.1480379863846
-22.7212538543489
-22.4639378407302
-22.1982540040765
-22.1264648673898
-22.7185141746894
-23.9981138553452
-25.1951159859545
-25.3287908416071
-24.1086279296855
-22.1150491969968
-20.1062081332045
-18.3469685408348
-16.7307170832069
-15.3685460099269
-14.7143659261721
-14.966627326486
-15.5269107618132
-15.3084172444793
-13.6365144474384
-10.7331357479521
-7.29620522211655
-3.78758370616277
-0.306756469258764
2.93819849057659
5.35857676404133
6.39255536831102
6.09381374643031
5.10032052817734
3.9706613804753
2.69709594140258
0.96081867931581
-1.2789852458852
-3.66458229335032
-5.89045224273129
-8.01181408940709
-10.1017590351236
-11.709174515304
-11.9533413914912
-10.3048266346744
-7.15154637743727
-3.43286705259167
0.227549390169571
3.83090837006039
7.43960874689497
10.5936225986974
12.6001965693253
13.4042923898486
13.8770433303593
14.9972227719984
16.7917847495366
18.2672219029172
18.3965848672598
16.9808971628236
14.4441884558127
11.0135772553413
6.47932164526218
0.886238265305444
-4.7961921708912
-9.02891960895873
-10.8119570840856
-10.319372612259
-8.41615173856676
-5.75832673738697
-2.5610542171249
0.88532945353974
3.88073767998052
5.7767089738696
6.67853121958011
7.41327661843907
8.70148281280407
10.5034970369263
12.2872032014265
13.7792659452338
15.1894843805468
16.6813752852365
17.9245841094233
18.4564903827315
18.4350186461598
18.7371008336057
20.1403158672207
22.5234922601733
25.0454992703788
27.0446481593526
28.5218862923251
29.6777844844732
30.2559852412388
29.6951663677884
27.9674997376725
25.9810330756209
24.9047369378872
25.1421698725811
26.1464693333801
27.2138853379832
28.1895636110296
29.2302517432616
30.0822044591694
29.983453291961
28.4220693602692
25.7663775786327
22.8845333675815
20.1835677102017
17.2754971337968
13.6647625551329
9.51601550728695
5.48878068218012
1.91802347215974
-1.47022849968071
-4.85222169000629
-7.57021293070326
-8.4881761388495
-7.15879409410994
-4.37913643062251
-1.40043386990277
1.24731711622582
3.86533259516602
6.5847348356948
8.69186763970777
9.29899897438059
8.55293772870675
7.74063900557638
7.98003492903661
9.01333285303473
9.56134250835726
8.76982665086959
6.94451619350005
4.75453013565277
2.10024314891876
-1.75043550917547
-6.89185399863743
-12.099086755097
-15.7690533911062
-17.4177871101458
-17.9100372766857
-18.2044018508329
-18.2773545772364
-17.5716718663575
-16.2248946031289
-15.2638799404558
-15.3618293970309
-15.7842847414862
-15.043735064202
-12.5802714889212
-9.37048200176031
-6.68244465934372
-4.5946528616463
-2.21570368535046
0.718415087639592
3.09147373821826
3.68196316682828
2.92637747141263
2.79883878996642
4.72392491510546
7.99531637242985
10.6550722059591
11.7444557122971
12.1177954115183
12.8493252942853
13.3479822128883
11.6925738157413
6.90672631806922
0.477383522376414
-4.59860290661446
-5.96899449835153
-2.89474524202774
4.37008887380539
15.0399843697195
27.0445941312589
36.4396537117392
38.8262623080681
32.036505497692
17.1046813951628
-3.89316175505543
-30.663643136377
-64.5225962465253
-105.088108882245
-147.827816306393
-185.758176774811
-213.510327511196
-228.775826747513
-229.206294751316
-208.724453819409
-158.501807529121
-72.5173590549883
48.0291650405492
195.996709561088
362.995257430217
541.141441787744
719.482086313408
879.958334263451
999.261227232974
1056.51352607241
1040.17826229287
948.991564284899
789.126851634244
573.565298972807
324.699954779209
73.9776275554994
-146.886531033346
-319.158697582181
-443.530376458645
-533.078308773044
-598.886244661132
-641.688344512319
-656.266870046913
-642.021930956336
-607.642292215268
-565.510935510009
-522.930549978005
-479.644685407203
-432.927330319791
-383.195365135984
-334.032631996724
-288.269121448261
-246.19956954755
-208.172534650835
-177.358813926279
-158.030581992132
-150.642984524854
-149.63094685703
-147.12262590245
-138.969311623143
-126.849061082809
-114.760137490766
-104.357626438853
-94.1697387100736
-82.6431508077793
-70.6757355232638
-60.6358582983369
-53.518009868581
-47.9075752464817
-41.7669761674206
-34.5479266754523
-27.1529895494325
-20.3059545788818
-13.7565688763261
-7.23114363830213
-1.50560343431263
2.1217684615219
3.37560228150981
3.50846076315167
4.04332326229352
5.34017524047072
6.76680447120464
8.11292630422325
10.2729955924739
14.2435085409496
19.7472542676832
25.3217245029514
29.8310986629547
33.5489104425767
37.5374226670293
42.2120641998363
46.9210746085978
50.9546369437149
54.5433761807467
58.5046112511007
63.0255550010263
67.1997109801652
69.930047750863
71.0542103447188
71.3188988329895
71.3504548156994
71.0014344378892
69.8383976641094
67.9806103331847
66.083601615424
64.4782973706223
62.6501605658031
59.8074527276194
55.8469348836938
51.5018138477487
47.5287475345807
44.0234761435969
40.7282451165252
37.8374717154259
36.1337055113144
36.1836277410902
37.6005686200866
39.3471118087437
40.7423614270843
41.9521748378312
43.4162338823483
45.014968574989
46.0656166965061
46.1259798430051
45.5397897778989
45.0144587975121
44.7803286215884
44.4019840864184
43.4539440077382
42.1752077087082
41.2813930692649
41.2058208220819
41.7306004255451
42.4099557814984
43.1668755934445
44.2871566511352
45.8825066918229
47.5888364960316
48.9162651315012
49.7870816770147
50.5634237237432
51.5517277983307
52.6355386146724
53.4676326583897
53.8891414669704
53.9784624713317
53.694645355621
52.6727332710244
50.5347835085232
47.3654302680178
43.7411528244477
40.2600712370053
37.1539424193816
34.4296696567039
32.2674996560911
31.0643536972069
31.0091104030421
31.7445167474027
32.605287355214
33.1918648754168
33.6006101402425
34.0656305450391
34.5112878997127
34.5995815124042
34.1835817234032
33.5408315802784
33.0635943288939
32.8149612099388
32.5444823576832
32.1459419551685
31.9417680027899
32.389901870216
33.5599066256529
35.0306871034424
36.3182023917449
37.260030727099
37.8611548338972
37.8436871087401
36.5703259487062
33.5499812371332
28.9648413065595
23.5777705808025
18.1110491037499
12.8149844413796
7.6800827060649
2.93270037468744
-0.879751431963919
-3.35628647567535
-4.68229625444074
-5.47866536442396
-6.21451357184552
-6.85078335992096
-7.07502923267722
-6.7806714250817
-6.21286508051125
-5.67705159855529
-5.24040530472408
-4.80054958515
-4.39226175558277
-4.3255443141583
-5.00729371841949
-6.69590579323204
-9.45750387953296
-13.2743992353006
-18.0749363989263
-23.6345138010812
-29.5352514008283
-35.3024039296877
-40.5650675769287
-45.0326612023969
-48.3495145381208
-50.1081107656427
-50.1194737982109
-48.6598568557115
-46.358041376556
-43.7881764724473
-41.2025860725805
-38.681653055184
-36.4592140274478
-34.9559799855583
-34.4288153997313
-34.6607489404949
-35.1120709546763
-35.4093989396058
-35.6361271392786
-36.1211576556368
-37.0140591414339
-38.1543670513219
-39.3392944564389
-40.5960873192075
-42.0946966423615
-43.825834873136
-45.4755049457407
-46.6686058930816
-47.2846239712039
-47.4736242528427
-47.3944901892314
-47.0313628555265
-46.2961501369221
-45.2203480406445
-43.929644703971
-42.4183970621187
-40.4488403144838
-37.7633442000892
-34.3860645464066
-30.6495070176824
-26.911688194383
-23.3117960317158
-19.8505649531107
-16.6520999435403
-14.022221563316
-12.1822775280747
-10.9930442871708
-10.0304988875494
-8.96302380593484
-7.81727093716697
-6.85317586518508
-6.22601257225013
-5.8348291259764
-5.49429911962399
-5.17018990130206
-4.97156590273239
-4.91915180610465
-4.78288036122277
-4.18300944008506
-2.83774705268102
-0.705449584128703
2.06643935179818
5.25900967560134
8.62884978608904
11.8905806548561
14.7138462074942
16.748536153703
17.6375757395141
17.034460172738
14.700466924261
10.6713261596596
5.33795616304534
-0.689741684903536
-6.83796302415412
-12.6838389070647
-17.8248788609593
-21.7207561813655
-23.8051749780934
-23.8486722849028
-22.1949407901452
-19.5576562869412
-16.5291541748748
-13.2834078638698
-9.74165584917177
-5.94394252974641
-2.15642593634039
1.40110796446045
4.83425517392993
8.46340572993055
12.4012577789016
16.2891422210368
19.4977412302335
21.5769299243377
22.4858174783801
22.4274817442554
21.5695735765459
20.0021558835849
17.9249630860235
15.7481000412244
13.9121648085709
12.6040646309982
11.6840814310712
10.8866462496714
10.0476641260147
9.12531986527708
8.06731068118301
6.75204537820532
5.09012852154643
3.13376753923962
1.03060391830631
-1.12484177705616
-3.34799607658837
-5.65770611841332
-7.94774185950618
-9.99499227201862
-11.574087111989
-12.5211023759572
-12.6938162641542
-11.9505998393356
-10.2510763789587
-7.78198800111911
-4.91743469250754
-1.99812998333356
0.84900710710281
3.65587688334802
6.41265758217795
8.99438262653086
11.3128387660517
13.4684885774431
15.6357600950402
17.7470363617772
19.3427875542525
19.8207186427988
18.8695890587877
16.6487919626644
13.5612030883527
9.92838255402992
5.95319321210611
1.95604073170773
-1.50078886441249
-3.85932629426852
-4.9671606237532
-5.18798299122673
-5.08406224044066
-5.0099397348064
-5.02652072793117
-5.13917904083086
-5.49313465043492
-6.26822654312886
-7.43556971363603
-8.72447110748442
-9.87317637316384
-10.867503479621
-11.8817826528067
-13.0047892525202
-14.0853730105685
-14.8596282011951
-15.1660809971682
-14.9779804916169
-14.2599355000086
-12.9001291278357
-10.8506207760971
-8.29503818856694
-5.58946602000447
-3.00245385706017
-0.54746435378749
1.90646328975845
4.41142162037943
6.90303276857014
9.37925670215077
12.0114189229815
14.9726712768244
18.1532374566634
21.1279723757056
23.4660003302308
25.0512426871173
26.0546388787891
26.6172966850445
26.6487193903124
25.9781522406062
24.6322160782901
22.8477111454266
20.780897947355
18.2897625169971
15.0990132692712
11.18080467532
6.90352033646917
2.77871729858865
-0.880152986895212
-3.99998086728289
-6.52204614205704
-8.29134301185647
-9.2650528419166
-9.77223218586053
-10.429430876917
-11.7262586468771
-13.7199369474235
-16.1570569138519
-18.8164175196651
-21.6158282014932
-24.3771264741199
-26.6342541444314
-27.8393154125186
-27.7890491510963
-26.7548921431436
-25.1258290328441
-22.9759924419035
-20.0780199024592
-16.3415279846925
-12.138425317596
-8.13058351802324
-4.83188417490028
-2.42969911204857
-1.01447691221615
-0.837266336958098
-2.20567853687071
-5.09454433872104
-8.85276895219431
-12.208590692305
-13.4944160141425
-11.0615179557006
-4.00110482474273
7.000290759465
19.4025143598864
29.7921603708771
35.6140028436803
36.1013354880355
31.4102737113571
20.9945758967515
3.48931135371366
-21.1136362521315
-49.2338279801097
-74.6271351097088
-92.7445617577932
-104.63905035063
-116.001731523225
-131.413714580044
-149.035807304243
-160.908229726382
-158.323320559779
-136.426413365993
-93.3851205515889
-26.0798700514255
71.2255626017156
201.926853252058
360.147421552056
529.436851972972
689.321759227392
823.476412546688
921.425852193036
973.099467324289
964.260258928537
880.790057914856
720.28966384937
500.416281858197
254.835526985372
18.654471255913
-185.345601686768
-349.832003116275
-475.893030293458
-564.766743748497
-615.915010400629
-630.841596031048
-616.325926953019
-582.798317334973
-539.763760590035
-493.105701221202
-446.171223968293
-402.035320217927
-363.631655495388
-331.774705417863
-304.025746784268
-276.417779839199
-246.668793083621
-215.796722670797
-186.814429858674
-162.148896675896
-142.289746296024
-126.396475148237
-113.558579324522
-103.267731991324
-95.0461561069197
-88.137245358037
-81.7481965014942
-75.4404799191702
-69.1378280476362
-62.8414578046008
-56.511371455269
-50.2140149108994
-44.1679942853959
-38.4651176727859
-32.7870932070905
-26.5606923161161
-19.4618291050144
-11.6969292380503
-3.74004121193512
4.10868053110424
11.7593747376983
18.9394594959933
24.9600026533836
29.0754063249762
31.1135798686881
31.6571246986034
31.5451756698452
31.248055117803
30.7793920774593
30.1327833607079
29.6197014911105
29.6810974039521
30.4532170770098
31.6733793144412
33.051022677276
34.6235797315314
36.6436327604953
39.1485832562948
41.7616747881054
43.9702937058747
45.5342422083559
46.5505365896898
47.1737135672058
47.4275666504388
47.3846899806118
47.4607793771162
48.3714968708583
50.6955716325832
54.4778934607951
59.2743214982857
64.53245535682
69.8522529240238
74.8896978806181
79.1484748549623
82.0367704297011
83.2036918759349
82.7884387178242
81.2920850733885
79.2081625867571
76.797336766407
74.184114966348
71.5744031411602
69.2995719203561
67.6532603426326
66.7426835150508
66.5229278326994
66.9311675791089
67.92540868411
69.3813261213657
70.9942082668684
72.325785955762
72.9615050138756
72.6363606995272
71.261865459092
68.9128322128579
65.8377512678504
62.45731398851
59.2734693287822
56.6981288174419
54.9132666101065
53.8553044361974
53.2991379101268
52.9461206110633
52.4685495128695
51.5466592096681
49.9383705467496
47.5540184751308
44.4721015410314
40.8793597192446
36.9856785778508
32.9707668634455
28.9745668488195
25.115100923007
21.5256269693206
18.4012611815554
16.0135005870645
14.6445231158071
14.4582466275611
15.4036466442638
17.2295136010625
19.5757854844307
22.0316671983545
24.1232464720107
25.3299989463264
25.2378670652298
23.7691213596824
21.2794366328216
18.3916087593769
15.6883899728061
13.5262865478902
12.081886767822
11.4739626349632
11.7451367335907
12.712321702681
13.9196576059841
14.8505849289673
15.2476617136575
15.2246524465451
15.0557994396004
14.8720890725612
14.5780772887803
14.0280859094622
13.2012223040521
12.1489274855125
10.8016325234999
8.91687378173931
6.28453064685651
2.98133857755306
-0.614860634378562
-4.07939017337837
-7.2007736659324
-10.0011709716974
-12.5561787781175
-14.854835661479
-16.8393600629193
-18.5187846748538
-19.9742016115878
-21.2394056392867
-22.2166540861546
-22.7493867968521
-22.7839017168124
-22.4549458433202
-22.0321626903199
-21.8151625520051
-22.075456662777
-23.0313550897517
-24.7856134625635
-27.2376808712257
-30.0773807838161
-32.9202869085207
-35.4944033740012
-37.722647300225
-39.6575493035903
-41.3798019228174
-42.9800942896345
-44.6021787462779
-46.4237473258648
-48.5266944481774
-50.7672573160045
-52.7956525404417
-54.2359653507265
-54.8777925573214
-54.7286481112941
-53.9191079663737
-52.5736614920574
-50.7455009330097
-48.4186000938843
-45.5291719626671
-41.9849300090493
-37.6970227215989
-32.6333373413736
-26.8784301829097
-20.6840602671274
-14.4987083685562
-8.94249717375369
-4.67745510948312
-2.17908224325498
-1.52627997380498
-2.3656150809982
-4.08578156828147
-6.05837383021604
-7.76397518241471
-8.78332893779651
-8.80169469730419
-7.73245754213497
-5.85476518551747
-3.75566336997391
-2.03851845319067
-1.02746902825948
-0.730438679832402
-1.05336278186578
-1.99409605070534
-3.6043007770701
-5.81651853538716
-8.40282491102543
-11.1448139979145
-13.9926874065311
-16.9747368310582
-19.9307485384388
-22.3948426616354
-23.8099350888833
-23.8749107884547
-22.6750696467128
-20.514523233265
-17.7155895115768
-14.6344811928074
-11.7937062616836
-9.81989500584474
-9.10410380786953
-9.49427874335237
-10.3680798988916
-11.0316110458585
-11.0309850133634
-10.1035405744984
-7.96508319160984
-4.32949391531518
0.780190115366473
6.81726045019057
12.9424976290282
18.5317693441781
23.4282669780029
27.6779652324777
31.0888429847782
33.1563053379941
33.4443639384696
31.9571800765039
29.0606593697838
25.0807673809686
20.1019536705619
14.2203929835064
7.91368999390012
2.01740786084538
-2.73606193111587
-6.13856415288478
-8.46895390673459
-10.1231668761669
-11.3765225224577
-12.480655128913
-13.8143719909178
-15.7468544991639
-18.2995069036927
-21.0258265802558
-23.3075998148358
-24.7632520376556
-25.3325972794828
-25.0190660502064
-23.6980445529173
-21.2804839978683
-18.0092375757045
-14.439920671808
-11.0394748508767
-7.85208474803213
-4.65707297069871
-1.46901890242102
1.19647143496061
2.61113251824699
2.35890496601265
0.532818682572531
-2.53351509591187
-6.58176521412963
-11.3723778265304
-16.3626786274783
-20.6050502350562
-23.1119195281772
-23.3846625342105
-21.6128499499061
-18.418059727869
-14.4675965596044
-10.3005361716376
-6.35658503229909
-2.97032482454149
-0.244365037400598
2.0265483728508
4.22021175626264
6.63232984357301
9.32718659122329
12.1615187400216
14.8470160741189
16.9581701801924
17.9897087076112
17.5854814130992
15.817357665356
13.219642417551
10.4794246708838
8.05905505461675
6.10751660629288
4.6677769240746
3.83502041827508
3.62565694619787
3.75405335176986
3.70285417811566
3.1298914157555
2.19445622469858
1.41372259958275
1.18285613393831
1.47590116570001
2.00936897168457
2.59177730039052
3.2024914734281
3.75297517989836
3.93281012246922
3.43663746945958
2.34348144216512
1.1691918295237
0.479236489610706
0.474000570470906
0.975227364119803
1.74109734944096
2.67147922577537
3.68911004443819
4.56476251118264
5.03204137587278
5.10795019871009
5.19294895318667
5.75609956110647
6.92974495248825
8.45538650258167
9.97488932529996
11.2444450332534
12.022264036812
11.9005938817211
10.4824512379902
7.82092599238081
4.5807848114315
1.61717141297697
-0.636342715707428
-2.31079237227777
-3.67123259370197
-4.70819419907465
-5.28151964870797
-5.57292987642276
-6.12753857766194
-7.25541985703853
-8.44067548530995
-8.52764219919976
-6.59271799260421
-2.59859266882444
2.81521126165103
9.02730489024458
15.7158847961674
22.4487066366895
28.2571390841335
31.9266462886736
32.8176078095783
31.3103168686354
28.3706383588568
24.7549768541777
20.7367530831073
16.5202705739976
12.6573423763204
9.86590995940773
8.49626713042294
8.36033889566104
9.13732054767527
10.7962255109547
13.4661645810471
16.9327355784935
20.4358388920806
23.043629665785
24.1423701075616
23.4989093254891
20.9935514785248
16.5699676746163
10.5766557817305
4.01266843400328
-1.80373985285178
-5.90944903405542
-8.01950288272039
-8.25074533122863
-6.76035476451356
-3.84210715741073
-0.270633978518461
2.78262410944015
4.40441632878744
4.46613478653862
3.37876164577045
1.40842665902276
-1.52866560899886
-5.34824850266452
-9.38310585002714
-12.8300761777565
-15.576313444509
-18.2096148946268
-21.0112675269408
-23.2565013124043
-24.0129014148413
-23.6590021020768
-24.0338953502263
-26.5401278406732
-30.2514086222316
-32.560164574479
-31.9979445327322
-29.8930594518627
-28.5262287176155
-27.792826833611
-24.8496339118178
-18.177076406206
-11.9309574427514
-15.1201918690048
-35.3408414994703
-72.9330775299364
-121.186402925806
-171.510685765897
-217.125371887213
-251.328846686054
-263.832466143311
-241.69955169116
-175.889352732567
-66.8346300276028
77.3524198811546
247.876034753969
438.467516790156
639.843244527966
831.596312651432
982.799242212266
1064.41284731223
1063.42424096626
985.616199807744
845.368205362858
654.539394688014
422.728013082238
167.303174115835
-80.8665721923423
-286.596555124815
-428.877902323753
-511.807725413389
-557.342205547859
-586.595965968847
-606.641603906285
-612.820964218735
-600.772064165682
-574.375394834517
-542.571024895403
-510.568498414604
-475.773895038732
-432.221262034056
-378.028128801167
-318.282982770945
-261.550325508771
-214.434816765395
-179.14038272885
-154.754200519144
-139.535197148002
-131.848129795984
-129.779116245062
-130.714856348154
-131.555882508575
-129.341061973541
-121.977011750098
-108.947870700228
-91.6414045272872
-72.7567509669805
-54.9144559997593
-39.5493745875902
-27.0593857480691
-17.8000971467535
-12.4695796716191
-11.1909715646796
-12.4046789632796
-13.2418197108899
-11.4564199787599
-7.05479305731626
-1.88924527078482
2.33902376878696
5.53134868753886
8.7332389955154
12.6432496266413
16.9721771693657
21.2300897363544
25.6791601506565
31.1133684722852
37.7653753692783
44.804313173173
51.109180072306
56.3557579677512
61.0774131947739
65.6910230873197
69.7705195709888
72.4727435470998
73.5226667531561
73.4873249692284
73.02598104991
72.1116221903813
70.2122114810572
67.1744645292935
63.6941458966725
60.8285547122212
59.1968355799755
58.799039004773
59.4973392492668
61.3718501642022
64.4409226466945
68.1670980594233
71.4888591869263
73.4394942751679
73.6750568870456
72.3913624321447
69.8960425785427
66.4509965356633
62.50106272216
58.8008462637608
56.0849446153824
54.5947124956848
54.0377795202844
54.0355956148492
54.5041245363762
55.5331782384042
57.0144247569397
58.5917935552366
60.0372210785034
61.5322881907808
63.4171009693777
65.6663077210396
67.7462242559307
69.0600930449729
69.4650736374084
69.272041614719
68.7969523165167
68.062349716688
66.9860304909631
65.7219872744096
64.629174201454
63.8608223398761
63.0832439214692
61.6733262323111
59.1480606191788
55.3430549782491
50.2542948961626
43.9057329294203
36.4926867027124
28.5727782409581
20.9399096651443
14.2393237067626
8.77189236588564
4.71389387155792
2.40993411687504
2.26669028592809
4.31031001239312
7.97655525033578
12.466439505843
17.2777538172623
22.261384335525
27.1444347202517
31.1783652299756
33.4629635444194
33.6530519547987
32.2341090782098
30.0411614557417
27.5980687092291
25.0331649409327
22.558294829131
20.7705733980708
20.2847215330894
21.1037562951376
22.5200596777621
23.7053831543539
24.307911346289
24.4004026473756
23.9664310643797
22.6748066445269
20.2599560452385
16.9862107449994
13.5378349089018
10.4235110246495
7.63056095898566
4.95473882272288
2.56027992238773
1.02472209657922
0.78787201858789
1.69399893975993
3.19425893283618
4.92434200960222
6.89877866037933
9.08257302147876
10.9367655706539
11.5989166503739
10.5610256393471
8.06750200247965
4.79027519169399
1.21414566216693
-2.52920865443856
-6.26850914907807
-9.46267906594914
-11.4528156928587
-12.0360721018689
-11.6604157939541
-10.9957196025669
-10.3918465545326
-9.8310941318091
-9.33090706712659
-9.20788855874432
-9.84982698439093
-11.3087272048619
-13.2508715892778
-15.3227286165449
-17.4654470060479
-19.8093220591055
-22.3354274120837
-24.7640359869419
-26.7944134319049
-28.3592897259841
-29.5755403770619
-30.5020935706022
-31.0530832561157
-31.1584485208469
-30.9031007065805
-30.4201455987841
-29.6873614953511
-28.5371890625947
-26.8993814168383
-24.9578558694492
-23.0063502983665
-21.2069520303763
-19.6047543711174
-18.393137296029
-18.0308662600538
-18.9502043686878
-21.1321962914133
-24.0572193322294
-27.1164534782622
-30.00301704046
-32.6296662457695
-34.7357147184203
-35.7648073394893
-35.2574922717616
-33.3199656628324
-30.582587133244
-27.6627482113814
-24.7481631347385
-21.7550989079445
-18.7947036078156
-16.3144244014798
-14.7255485894028
-13.9988441766226
-13.7463390849827
-13.678240589065
-13.8549668970994
-14.4444588583312
-15.346662830823
-16.2027230265262
-16.7765800934972
-17.1968528556648
-17.7412507395799
-18.4668338535621
-19.1978502100753
-19.8903754079916
-20.8570998491968
-22.4910013263695
-24.7939987221549
-27.3130883438034
-29.5874602149398
-31.5400844499398
-33.2928783839843
-34.6275518062948
-34.8134396571643
-33.1100632766348
-29.4133055363849
-24.3064267809361
-18.485958440948
-12.2863711580799
-5.88065821162977
0.139117354780101
4.60958708337751
6.38772114206572
5.10534409827293
1.30038384096003
-4.13936256163681
-10.5282654485607
-17.3485632810634
-23.8366004992908
-28.8699166851801
-31.437093635558
-31.2333146714803
-28.7558511018535
-24.8430527904546
-20.185722769526
-15.2637791753063
-10.5921626983622
-6.82415210969058
-4.51666048230107
-3.82131805062665
-4.45062531947129
-5.93016696781343
-7.84604784643452
-9.87396382878291
-11.6692743222426
-12.8244220271956
-12.9605592992305
-11.8517007882273
-9.48388600742418
-6.05279585034721
-1.92833918144995
2.43200661585229
6.62219025641389
10.3896565612518
13.6063584208699
16.1621982367558
17.9512871071343
19.0061377946339
19.5940973193765
20.0589116294384
20.4807314792673
20.5104321077161
19.6142839348995
17.5210006642855
14.4163911797323
10.712168584919
6.71164543233834
2.59732685552985
-1.2690983929354
-4.18184209202762
-5.38729897538099
-4.60957997544865
-2.25734184553453
0.910902874369464
4.30111127615673
7.66549595889595
10.877140456105
13.6905582537046
15.8212219406159
17.2131926652562
18.1077915402535
18.7862724602436
19.2746907656704
19.3366591793932
18.7194484661646
17.3434503687574
15.2661676932554
12.574607026621
9.41342498298841
6.09192387731919
3.03378052605161
0.521430496631027
-1.50067305116312
-3.3099426242715
-5.08593359605109
-6.75288206451683
-8.14800566664496
-9.25841438668664
-10.1767628729557
-10.8020363433963
-10.685441609918
-9.29681245632888
-6.48803734860508
-2.66548523756495
1.50961788374605
5.55523784469625
9.28348783919239
12.5477095404704
14.9948020780048
16.1442394229142
15.6953476006011
13.704442587584
10.4582609642531
6.23005960678408
1.20085422544442
-4.40730453667663
-10.1804419438628
-15.5179029847475
-19.7777103166526
-22.445380920156
-23.2636698481294
-22.3163167837559
-20.0246113217958
-17.0001995186877
-13.8064042849503
-10.801290055704
-8.17146382880185
-6.04709458832352
-4.49380290244696
-3.36638125547935
-2.26100970046409
-0.759445582043682
1.18702159175062
3.12170976452238
4.37522272685429
4.51817660674257
3.54360279747459
1.67616771205708
-0.874827299601648
-3.90204732882424
-7.01119989118433
-9.6142241428192
-11.2432936384536
-11.8890062777209
-11.9797537600161
-12.0091089943527
-12.2039387688001
-12.533047679654
-12.9212933764138
-13.321312945089
-13.56127683767
-13.254060249179
-12.0117809495374
-9.79701265522888
-7.00231499664657
-4.12335777330289
-1.35778002542828
1.4592885363897
4.5792197994099
8.09983542634517
12.0242522113781
16.4459194331309
21.507430190866
27.0916495432507
32.5991179191881
37.1281565925075
39.9386763245785
40.7809684590657
39.8550220990918
37.5735674250963
34.4272112730123
30.9916634140391
27.8701268009752
25.4664313305512
23.774510065741
22.4286999484169
20.9892265820861
19.1893912455032
16.9639868352114
14.3686162310185
11.5857214085529
8.99222052145045
7.07472965712777
6.12978252047217
6.00685897473269
6.19321637243119
6.18657611486115
5.77164669313054
4.9421096451516
3.65793329819053
1.83047453698626
-0.399096824488765
-2.48058975937862
-3.74311630820715
-3.96923988724473
-3.63959817559459
-3.49602703694283
-3.81541094935118
-4.17948532976868
-4.05602115071673
-3.61327868982838
-3.84261982644921
-5.71818254668837
-9.16759898023705
-12.9574485675977
-15.7539661925098
-17.3609762406263
-18.7854395332715
-20.8901539343971
-23.0152797235064
-23.3720245083516
-21.4662446608463
-20.5316848227669
-27.2711400117984
-48.2202513802543
-85.1714558490079
-133.270047477912
-183.187876558688
-225.170696276347
-251.369002129833
-255.150486778447
-229.568290568577
-167.968844024955
-66.9816106630935
70.9231081061797
237.805967804024
422.677899051252
612.792783345493
792.47762270882
942.084609118596
1040.62879043536
1071.88907304368
1029.36992906205
916.126975152018
741.006813614713
516.883454481352
263.47094592524
9.96239779695204
-210.003064896818
-371.801968572704
-472.228391340422
-529.133964595566
-566.679889006283
-597.92066273787
-619.342108869672
-620.731654357706
-599.339450288527
-564.204785220873
-527.535956170606
-493.327198068091
-455.307682213808
-405.701181763457
-345.040421921909
-283.067871888451
-230.746027918284
-192.236219390674
-164.426755929771
-142.821903986186
-126.463977089732
-117.04174046461
-114.471826030601
-114.704093128914
-112.177455048204
-103.919414165584
-90.9532239920984
-76.1887909292631
-61.6774261220166
-47.9890144514663
-35.4592320779424
-25.0931067072294
-17.9526829363559
-14.0320878830903
-12.1335770556322
-10.8250564413498
-9.28544331701609
-7.24820157073099
-4.51846713338019
-0.918125273324979
3.32290866269686
7.45797100150929
10.7565210346944
13.1284979132807
15.113799111507
17.2874083618069
19.8049190951822
22.5272350039414
25.3715154134754
28.3171439179341
31.0872130440307
33.0591429778517
33.6829381867398
32.9817676622367
31.5431308424435
30.0162824097407
28.7116535814727
27.6979462719282
27.1083652394916
27.1277727809659
27.6466264414066
28.1178587737729
27.9651911577989
27.1792979899113
26.4324811106627
26.5663973688956
28.0149271852574
30.7354156301701
34.5545354764053
39.3625306313564
44.8957563748531
50.4869515906485
55.2698638939385
58.7511901859523
61.1570056860359
63.1815380720148
65.4333649212957
68.1520124335734
71.348928253274
74.997438280504
78.9386789415043
82.6754200193135
85.4727632049283
86.8188963247896
86.800281232653
85.984367922411
84.9500870030076
83.9720587032607
83.1023210366323
82.373830591133
81.757712293189
80.9372190919279
79.3087069682511
76.3879278288191
72.2675419170375
67.6340018640839
63.312223034538
59.8059383392698
57.2347233171299
55.551694434265
54.6301207113774
54.0880262086404
53.1737029921337
51.0416057376456
47.278538697647
42.1888500193223
36.5656840528843
31.2028934327366
26.6104953860399
23.0770961728216
20.8129075162055
19.9039073717901
20.1533254144375
21.0937214233516
22.2565903133219
23.4599564919643
24.8385405089713
26.6213594500243
28.8956029158236
31.5282639334554
34.2016636475072
36.4569535961793
37.760713712259
37.6719012874511
36.0588351265198
33.1812953976393
29.5405121589044
25.634851819816
21.8385447593807
18.431043226852
15.5993989170767
13.3058575132894
11.1765311988538
8.65322963494416
5.39093824332359
1.56820536257927
-2.18990495682429
-5.20064791399416
-7.05783316201
-7.6678928977221
-7.10498198521775
-5.5534201214254
-3.39253533761469
-1.21462163819944
0.390364879733292
1.15589593369824
1.27407238906617
1.22472235543905
1.46755462157222
2.23556302119471
3.48758610394329
4.92313681104285
6.01564915553578
6.1405722679693
4.83293167697649
2.03450384063893
-1.86328393004824
-6.1985219746385
-10.2610312069539
-13.4119745354495
-15.1573953686804
-15.3025524111473
-14.1337717387495
-12.3973478733467
-10.9653905254581
-10.406448486653
-10.8125112528912
-11.97609407341
-13.6544783463915
-15.6349667289874
-17.6387979249259
-19.3373638139008
-20.5824748508464
-21.5982446356569
-22.8358871666224
-24.5608689261567
-26.5800610897642
-28.3861231132225
-29.5384103032247
-29.8725862857378
-29.4021860772909
-28.1777095581133
-26.3762213330252
-24.506938923821
-23.3657000032414
-23.6201504068323
-25.3689582526302
-28.1045731762604
-31.0896520344264
-33.7375624906595
-35.6706064383551
-36.5801915427603
-36.2401804375764
-34.7467307970195
-32.6611971601512
-30.7620769916252
-29.5585030745972
-29.0237552555755
-28.7806444597891
-28.4853838845985
-28.0002802316437
-27.2766590397903
-26.2371398927153
-24.8865463190287
-23.5044974145372
-22.598026035481
-22.5607770086981
-23.3560708471322
-24.5427661953714
-25.5953495799603
-26.1857412561729
-26.2127154495508
-25.6894165129002
-24.7108481361712
-23.523961527223
-22.5232398401078
-22.0692710136275
-22.2623397012991
-22.8804936166403
-23.5251782029564
-23.836814882248
-23.6522396025965
-23.0920306318372
-22.5862371724516
-22.7734611794281
-24.2316789940388
-27.1713549463211
-31.3200252135542
-36.061306160777
-40.6266628461231
-44.1321359424779
-45.5515137727516
-43.9216993876526
-38.8381293571477
-30.846944816032
-21.2741044554184
-11.5475240638635
-2.61623946617362
5.03248750356366
10.9479420849877
14.5385613279088
15.45010883587
14.0471743024991
11.3238183450018
8.20806982308985
4.97432849691819
1.40453552506785
-2.51058933921188
-6.16053521352196
-8.66996765821608
-9.5924801851698
-9.14769982993016
-7.78922791758544
-5.68516149011423
-2.73608746975974
0.960022679102533
4.84613203413987
8.22546926336637
10.8120822060137
12.8895460676527
14.9344230989447
17.1604254680371
19.4398351184887
21.5413568898507
23.2875348712354
24.4631666998522
24.7176121533702
23.7225071417058
21.4736963397244
18.3950566894352
15.1272192084398
12.2486479472613
10.1903217332811
9.28156729986836
9.68260344996486
11.1825198617428
13.1428347151949
14.7843981488136
15.6113548882896
15.5711692096008
14.8477046790167
13.6047420750633
11.9937455454985
10.3257494236068
9.05137968668245
8.45608544236336
8.41142472152228
8.52353785078913
8.54737664631836
8.59639619616144
8.92885746944648
9.61775766198764
10.5242428748955
11.5498119134973
12.7459629103953
14.0626548054724
15.060598175377
15.0492323095797
13.6088941485704
10.9434887973856
7.67662334275308
4.36778147595383
1.33540516027357
-1.08052319651274
-2.30890209430086
-1.83664741885737
0.248221540159633
3.13724369347692
5.84853921313848
7.88816399577637
9.32821427556629
10.3149848929332
10.6984917500644
10.2603392712401
9.19240926492755
8.11643052739706
7.51512656538223
7.22864742051607
6.63983712717572
5.34828745542905
3.55174766055041
1.73973551373291
0.15165172488811
-1.31321045950334
-2.68626673319282
-3.63046463822624
-3.69148150038502
-2.79649443205185
-1.36623901944303
0.0968104089042416
1.42685034852432
2.73777846602864
4.0476527667604
5.11784474653451
5.68295403159057
5.68736125431733
5.16088036488134
3.91891542595275
1.56980914484635
-2.08638866674141
-6.7428599883302
-11.7638896321526
-16.630637871993
-21.0834247557402
-24.8260794972178
-27.3022339898611
-28.0026917144749
-27.0279631439871
-25.1823448648492
-23.3721757442731
-21.9387092859529
-20.6617052045445
-19.3450514919176
-18.1825086551667
-17.4298455890884
-16.8623202386627
-15.8220216630979
-13.9058182737379
-11.4784349113429
-9.35945743761159
-8.04293915991034
-7.36980199985398
-6.96650000037705
-6.78898005251365
-7.0408051448694
-7.635953384351
-8.02675784726299
-7.73189659604136
-6.92315316635215
-6.28660970682166
-6.28893935639865
-6.7494764265684
-7.20622558101981
-7.50559906472357
-7.76593186504395
-7.76456787812302
-6.67261659527568
-3.68387140124477
1.11273770447182
6.69639661545474
12.0096347960242
16.7138695478828
20.9215302858687
24.3668851125902
26.2318672008792
25.977181464482
24.1390811133131
21.9834178382868
20.3248687711159
18.9160316220761
17.1309267402464
15.0382207292239
13.4764496506304
13.0510430642727
13.3860114314404
13.6331303146884
13.5820813250949
13.8969768591129
15.1260146943988
16.7501031772299
17.5283982171297
16.7452976255905
14.8089173474642
12.5071593950839
9.97431494035866
6.75926466963996
2.86764581533341
-0.706632590322418
-2.81007078217996
-3.34670160916371
-3.32256887213978
-3.63035600938662
-4.11731686817122
-4.10192298147813
-3.58085527765564
-3.43401691386229
-4.26546786957857
-5.3905522166571
-5.39509071586736
-3.68763045182779
-1.13252959177538
1.03443001237745
2.64610162390968
4.61376777664155
7.56510410324245
10.8762681397824
13.2616190582758
14.0606270246967
13.6085081311313
12.4693975792861
10.8127411201081
8.76695491970574
6.97139192937533
6.22263072748746
6.59742116447207
7.43326035026947
8.26589906515192
8.92985732774306
7.67651781195558
-0.719974124708109
-23.4147491890428
-64.1764312330849
-118.82621786277
-176.37217192576
-225.151862204165
-257.673886044161
-269.291768059854
-253.348558382216
-200.134501279621
-102.658053407563
36.4583817552037
204.942244086449
388.012990422032
574.293952042687
753.415132555165
908.864257780077
1016.77692880534
1055.37837448355
1016.89041925095
909.525991115928
747.847513435196
543.288747713654
306.3729193922
57.225774046198
-171.20646264021
-346.548857786544
-457.085008244477
-518.315976967575
-557.614590925413
-590.906400882597
-613.668870150517
-613.358416655738
-588.086788103689
-551.14747028612
-517.765600125364
-489.943230543776
-456.238519331166
-405.99695433841
-342.093018269764
-279.165133093995
-230.734945147483
-199.494917395756
-179.520376216046
-165.391160458638
-157.153813109782
-156.932658004521
-163.077718477247
-169.367934234083
-169.684371137602
-162.290298672933
-149.348811590213
-133.41728285205
-115.500077182428
-96.2008780957517
-77.3829203396187
-61.6978339330086
-50.6322596016516
-43.6106251182078
-39.0220570475997
-35.5504272223975
-32.2616426417739
-28.0373762202578
-21.8828899742162
-14.0898582770934
-6.56011448775467
-1.352144115532
1.17206804182771
2.49174537003183
4.23308555047067
6.70716613122822
9.34065518928388
12.1868343282036
16.3747929029414
22.8398704861858
30.9839116663891
39.0392626279563
45.743166516508
51.3060653166472
56.6266192652299
61.9288298488458
66.5924909236034
70.2509792419335
73.5459920293305
77.4390866156955
81.9344636292019
85.872256395573
88.0922390178417
88.5567240965776
88.1497178933972
87.5776232055161
86.8278238042554
85.7414522102533
84.7295479794246
84.5388292028047
85.3345120009925
86.3376704269627
86.5527874530125
85.7184891781184
84.3668353227118
83.0532502356283
81.8191528670347
80.489931019449
79.2040013720407
78.2853568239014
77.5665853852855
76.1388893463511
73.027620173013
68.0876499075042
62.1005085278827
56.0592112292678
50.6065239374707
46.2515097439185
43.8217481448373
44.2305578368388
47.5989536752066
52.7876685281872
58.0529226005705
62.2092160668596
65.0692721111946
66.8415823212542
67.4301497824882
66.575259292604
64.5455320056644
62.2876557525943
60.6355552232484
59.4624275630188
57.8293588327677
54.9928729933966
51.1054411164535
46.8816671788311
42.8032322250475
38.9063137692071
35.2833525946969
32.4133928223693
30.6902136591513
29.6895244607644
28.2031099900262
25.1694011866197
20.4996388830577
14.9245812386733
9.21365145106725
3.83834784835109
-0.574139008123433
-2.83798380954373
-1.72609592662584
2.9500281652431
9.9416865182498
17.4130502647229
24.1543461555892
29.8685106436452
34.4101947535725
37.1258194159346
37.2189653455149
34.6632796170784
30.4201022264353
25.5757743860788
20.3972132836275
14.446610480693
7.60970920065501
0.788083156032471
-4.56068042888728
-7.46494597683034
-7.88480608712971
-6.23347667061026
-2.79647821736875
2.13152899997419
7.64133904157857
12.0893762718392
13.8588551638985
12.3139171312235
8.01644194040528
2.12507588755422
-4.26481637335947
-10.2428063264996
-14.8933976610075
-17.3894972208139
-17.4585071093136
-15.6792434413143
-13.1692274732228
-10.9071762872782
-9.31524203781734
-8.36280349502664
-7.87633330152234
-7.66952769984657
-7.51774171255914
-7.24758243401691
-6.97007763139647
-7.1619221919826
-8.40679477641043
-11.021342648377
-14.9296720569497
-19.8175441267755
-25.2639116214296
-30.6849188694439
-35.3218469499455
-38.5452874810699
-40.301051608022
-41.1863139100628
-41.9537819334983
-42.8913135364003
-43.6959932466859
-43.8942715658847
-43.2429830119144
-41.6597579948073
-38.9212323310957
-34.7177599956301
-29.1747493422355
-23.2452847603101
-18.3860134867544
-15.7030143149492
-15.3629516877904
-16.7588491789679
-19.0856105041881
-21.6425023547311
-23.6998736599132
-24.4122089575509
-23.1765042733019
-20.1544632501575
-16.3203952480974
-12.8625387643966
-10.4837167476993
-9.22474735631599
-8.80172865506005
-8.92179157944096
-9.24846125170582
-9.2772673664842
-8.5317457768707
-7.0040583687349
-5.31799763882757
-4.31881864122529
-4.44077771906149
-5.45805912539072
-6.77439557789165
-7.82990076921163
-8.20633407739501
-7.52293135695618
-5.51650856859658
-2.39114197419411
0.962564181407913
3.2641342524293
3.50428224873238
1.4178426022042
-2.56450027072488
-7.67519703945783
-13.0664066434259
-17.8666325208766
-21.2836414591964
-22.9023258954485
-22.9521500686409
-22.2114789147354
-21.553317085896
-21.5025626838895
-22.1218221959808
-23.1709779079783
-24.2752723341681
-24.9996004483101
-24.9607962343485
-24.056367803453
-22.6351662041188
-21.376426564847
-20.9105381790022
-21.4821808470749
-22.8851425594354
-24.598733874791
-25.9269699341952
-26.1136995474719
-24.5697932414129
-21.2108544609619
-16.6362661183012
-11.9011637365427
-8.00632684663162
-5.5196443385738
-4.56691932733878
-5.00033546133015
-6.42767469189137
-8.12609756152587
-9.18707247433103
-9.04051173763803
-7.97110439131461
-7.06533404307101
-7.52908893939374
-9.96041862126975
-14.1838601044992
-19.6129345374641
-25.5733350431785
-31.2245147739443
-35.3696863245537
-36.6899016129331
-34.4364374910142
-28.9763275750216
-21.6149892220295
-13.8219042055559
-6.55715040830742
-0.204204663725989
5.06766263904716
9.05631813508052
11.6384759021189
12.9685340647369
13.4036257538567
13.1795744337906
12.2000323234279
10.1893285802253
7.07209857320251
3.23728400388276
-0.507375299998699
-3.21856794486416
-4.15500965791072
-3.03104225883707
-0.104167613419058
3.94750568993479
8.3067664494931
12.2880031933885
15.4455067128502
17.5552215608894
18.639758502706
19.0774843158286
19.5843439194895
20.8563299121341
23.0189991586239
25.3595943116659
26.662704158233
25.9163818622164
22.8024720144977
17.6466599806248
11.0787077096465
3.86565585585945
-2.99334057537771
-8.2754886957625
-10.9433281395425
-10.727898986527
-8.33567362820397
-5.02913693765088
-1.92320619897612
0.447507970435723
2.09487165711383
3.33608040068263
4.64367673153031
6.5760617480177
9.59984499146471
13.7963039211321
18.6933860784461
23.4128523932151
27.0283930665521
28.8739848231008
28.6869248687956
26.663521994076
23.4691006529309
20.0846384995682
17.4146712479335
15.8586992936794
15.1968511919816
14.889039715543
14.4821265113559
13.7561243012001
12.6066849706323
10.9848422167276
9.06554376623035
7.39300351736786
6.6495429440361
7.11703287599678
8.34156848262131
9.38218516599324
9.42522514544483
8.18256707319364
5.79482290095466
2.53725845605237
-1.24052604180768
-4.94870236295319
-7.77143192428321
-9.07869602837438
-8.90781032787166
-7.99519828063851
-7.27283642499338
-7.28836311497619
-8.02286774252995
-9.09826145458218
-10.0084206901985
-10.1688023339225
-8.95563492650572
-5.95609677876248
-1.32234225967191
4.11524147481498
9.13360860742394
12.5879398053801
13.7546270216749
12.4635265337667
9.12833244388497
4.69928360116867
0.421527653766013
-2.60256867496934
-3.78295386676125
-3.06793833406792
-0.694363814311215
2.99475838977771
7.50178973687727
12.1393403313565
16.295681341688
19.837355415795
23.1389643392476
26.5510239084341
29.8073308537096
32.0519337336078
32.506408535974
31.0518005287074
28.1104791439826
24.0842997982144
19.144965795496
13.6641786933703
8.64274686600972
5.3738832346208
4.49647822330826
5.43613495030481
6.89636621398567
7.89956957810424
8.29547586479437
8.35772622743757
8.17965173905415
7.69649677276866
7.20847412489983
7.53185612455263
9.35029827304116
12.4010891439966
15.4310165081214
16.9998238442822
16.2818719118849
13.1585483666149
7.83773283677193
0.71512590849569
-7.36330240000366
-15.0197776201292
-20.8820218940551
-24.3267470331709
-25.6427415162693
-25.4864872439077
-24.3368304635781
-22.5405180392966
-20.6414298360331
-19.2638125713242
-18.5032182054054
-17.6418124803819
-15.7767870105388
-12.7981436796343
-9.57923139855122
-7.11623173941212
-5.64331186075638
-4.77959128181455
-4.42369885945451
-5.11239944129535
-7.25091742603697
-10.1699229276391
-12.3435224457716
-12.7253408749168
-11.7199766413377
-10.6595736714706
-10.4122080825638
-10.7320558291865
-10.9732152638947
-11.1252405362231
-11.8732661160973
-13.7341455712892
-16.428198613058
-19.1402242989443
-21.0735805611325
-21.5034002946887
-19.5686237926879
-14.6508416253857
-7.31625314811785
0.349547068753344
5.7496107441362
7.12530908369848
3.57299007855403
-6.29618872075091
-25.0323996788876
-54.7859698477777
-94.7239214228981
-140.27583404957
-185.089825224372
-223.182618492953
-248.443314845857
-252.333385422754
-223.83992500806
-153.887914743132
-41.0149615529831
107.307638886899
279.132140389529
463.294773505472
649.618157154583
824.375815719833
967.466443212847
1056.30987970916
1073.93989653826
1014.17692457494
880.70069878897
684.222283660126
443.103430522595
185.82375536833
-52.2699432038441
-241.405298886166
-371.382227445018
-454.347872199602
-512.171000685122
-558.840329848341
-593.266616363164
-607.284731578667
-598.607992653079
-574.933229393632
-546.392473554517
-516.247743553173
-480.320092426117
-434.720257184918
-382.274450095449
-330.656380645596
-285.412305630886
-246.416588858073
-211.23114353251
-180.351412904218
-157.649733111151
-145.726290848561
-142.027557563186
-140.305592174854
-135.537333911808
-126.855518494138
-116.08905744805
-104.700894547652
-92.9033135023497
-81.1115943517967
-70.8684111389405
-63.6212839332174
-59.036453912679
-55.2606194527102
-50.8884848815506
-46.1100112672896
-41.6633313504607
-37.170160555504
-31.2047238531035
-23.0652568803729
-13.8933929645461
-5.59016860786886
1.18172360896014
7.46142807398369
14.4471300644586
21.9643406554361
28.7876410225668
34.1857326966275
38.5741681440646
42.505894902897
45.5004135491362
46.3918729816718
44.8081567901617
41.8712183593142
39.2198655454858
37.6069249937908
36.7741817307118
36.5398826028797
37.4530097195827
40.0596669206757
43.8072275917138
47.1970625812396
49.1881642532752
50.1806033777908
51.3879273894643
53.422677053111
55.8472498927759
58.1094012852895
60.4725002451819
63.6307563159544
67.5178733840893
70.94813239906
72.6810667616159
72.6554897803026
71.9047336577111
71.3265305911667
70.8665604933421
70.0254881971461
68.8362871248537
67.9115637370291
67.4959121749523
66.8540341030442
64.9196855339616
61.4709493423261
57.3820945063197
53.6676352855333
50.5436801855404
47.6255451090945
44.8453639864371
42.7558563475344
41.7755422492762
41.4118187795616
40.5887350289801
38.7780610445237
36.5644739898702
34.9689273667931
34.4005311487406
34.5039569025177
34.9445209622063
35.9674535580819
37.9487333726763
40.5705992819189
42.8040808830863
43.8371925140084
43.8375216942021
43.6285019488427
43.729606006475
43.9645455584487
44.0235349266951
44.0965727263667
44.6560211793015
45.6756512925226
46.3889916009607
46.0111983410675
44.5729400211151
42.8361098004843
41.4219995527781
40.2592858762501
38.9831626183222
37.6436119215865
36.7046124856281
36.3201214777876
35.8982078704064
34.62631166965
32.3618956060386
29.7756637737179
27.5696278471752
25.7638284113006
23.9207863283702
21.9284673373173
20.2418393340032
19.2399832216307
18.5817893857563
17.4990602597968
15.7488098406456
14.0430175085304
13.3849952149727
14.0996891811269
15.7037849768927
17.6664126336582
19.9898551919276
22.8391435908284
25.7576522712924
27.6002358686386
27.4123465003545
25.2527533443166
21.9935629273632
18.3863175687348
14.544604210386
10.381802255963
6.28727512905004
3.05623951130974
1.12049999132478
0.0816835187218885
-0.822050223441977
-1.88407624605816
-2.76341971605049
-3.15455723020544
-3.40501685132384
-4.29384043503708
-6.27669305874809
-9.15753171878566
-12.5443713987095
-16.4133791021715
-20.9927009298978
-26.1033261811402
-30.8317797923368
-34.0106933415185
-34.9880858666253
-33.8531912246968
-31.007911989615
-26.7519702629012
-21.403043697048
-15.6696953250579
-10.6316925339589
-7.2123380529687
-5.70721153418484
-5.86264375580356
-7.30705756850624
-9.76278027079337
-12.8647004109
-15.9894049009681
-18.4586664688559
-19.9141802970007
-20.3832482707137
-19.9633656438239
-18.5763680346174
-16.1417864665223
-12.9218498842597
-9.52584736010122
-6.5135459224949
-4.09508957301238
-2.30546308310446
-1.37118673861037
-1.69071974675709
-3.36393658209438
-5.86730330708495
-8.36403081857755
-10.3455637363748
-11.8523754337273
-13.0446743372774
-13.7366789610871
-13.5560159333457
-12.5418732321394
-11.3514824084349
-10.688638365888
-10.5761227608652
-10.3617558446397
-9.47993344802486
-8.0586831226218
-6.66019218386937
-5.54017033981519
-4.41724523421778
-3.07626488049149
-2.03067321156337
-2.3437130342088
-4.73212198112066
-8.96614403489688
-14.2211545971535
-19.8884672703359
-25.8513784769578
-31.9706688665783
-37.5352725214375
-41.4521735851004
-42.9997561802756
-42.2773948798134
-39.8896336162354
-36.3338715071684
-31.8347602363753
-26.7108591495416
-21.6750124017858
-17.6144457475399
-15.1012077466009
-14.1976511513333
-14.690306942478
-16.3515697203857
-18.9003157665689
-21.8391047374821
-24.5380280334845
-26.5545380384671
-27.7967493677265
-28.3251339429925
-28.0912136331379
-27.0028625170713
-25.219926498452
-23.1940097109924
-21.2658271138069
-19.2707829882545
-16.698026132898
-13.2902535819101
-9.38087873031676
-5.55106146481857
-2.04291886363883
1.30658566439234
4.50954496749861
6.98161782509199
7.85619236882501
6.76638749687128
4.18524385362294
0.924503050995028
-2.59091306480711
-6.40989420511326
-10.4725933828793
-14.1760522262179
-16.6978224905109
-17.7045365766148
-17.5772440410017
-16.8971436420381
-15.8515643028239
-14.2714409794796
-12.1655890967697
-9.98879551469035
-8.26765910629263
-7.07179310266931
-6.01877966210068
-4.79451541400069
-3.50342008476778
-2.40983486146434
-1.45033105429229
-0.198038072534144
1.64750858340021
3.87652009406858
5.99199585236435
7.74959101881792
9.31622999410024
10.8566890277428
12.1079715883217
12.5129366965847
11.75386440327
10.0172624098064
7.68737507231925
4.90507744852732
1.56772795026027
-2.27290067273304
-6.190777682386
-9.66511014938595
-12.5012494011047
-14.8520175197696
-16.8453265426938
-18.3458092766986
-19.1651452851653
-19.3887915043127
-19.3067636208888
-18.9890668557823
-18.0817255152582
-16.1584554570466
-13.2301136010403
-9.77090033717352
-6.22949063832402
-2.67204322707058
0.964210292298331
4.35594901449646
6.76434082553839
7.64168101383524
7.17705478726613
6.10147347415799
4.97492591453393
3.81998482721918
2.50966011826322
1.3364542613278
0.954397046361255
1.71283370889077
3.22271178856669
4.73437649881678
5.88002652946427
6.86593595618059
7.90421254055793
8.65068427390917
8.40424951134759
6.83630753174347
4.33141013978861
1.52014232016172
-1.37714269737979
-4.54692572749193
-7.94449095062267
-10.8890859434907
-12.4782064995724
-12.3632192513371
-10.9666441211836
-8.92581970322907
-6.49958502416541
-3.65623510516081
-0.628353275622707
1.89468696568852
3.27134839319405
3.50712676825937
3.19676321065453
2.88272489381448
2.61928216523985
2.22038936382367
1.76770644851702
1.65361643239354
2.10436469449861
2.85335082065659
3.44317527437327
3.78943190947038
4.27397006606853
5.24238614457719
6.55652712373316
7.77018705027002
8.66927459485751
9.44832537170328
10.3047245165624
11.0333029120293
11.2170006265032
10.8049783636523
10.3183968841739
10.3751601628545
11.0998694163406
12.1328014784756
13.1733050381778
14.3141086155455
15.7384464911041
17.2352454596004
18.252627930638
18.490659148933
18.2843614600371
18.2602620586994
18.678384339134
19.2733514456404
19.744415925218
20.1919418609064
20.8960565015889
21.7567816258655
22.2190003474614
21.8820844661889
21.0480187394939
20.472910920921
20.5932921355685
21.1945200041096
21.9274891246467
22.9618224106212
24.863010782118
27.8028711344103
31.1381745722971
33.9737483543723
36.0545159551943
37.8548408066768
39.7217221682938
41.1478570862467
41.1201542386679
39.1393872539172
35.6549830964778
31.4090257744458
26.5790607863828
20.8475458872944
14.2924821765987
7.88813093949559
2.87416748163981
-0.297729821345223
-2.17676880263743
-3.48547581932228
-4.34958970765654
-4.53122851925451
-4.22986236685889
-4.24550482002838
-5.17246453958747
-6.65222385144518
-7.72364705223554
-7.90044692500963
-7.62338064204502
-7.51809621763891
-7.45731058789589
-6.70430484250054
-4.97764805796587
-2.98969925050282
-1.63135924013022
-0.785803087340389
0.613081588664015
3.15549104712815
5.84398887255363
6.73856689206016
4.69710348124059
0.175162700566696
-5.81483574170244
-13.1861739854515
-22.7003711102944
-34.2211754868144
-45.301521985373
-51.8937584518935
-50.7371499328979
-41.3546910605721
-26.2519272361531
-9.69826295556383
3.78187567904754
10.7178173865654
9.79731079421864
2.25049565831293
-9.31313514783249
-23.2280854236079
-40.1737143034126
-61.9134596262581
-88.4320412512583
-116.702174944128
-142.738468957473
-164.531834314949
-181.824556449263
-192.163910299003
-187.664275683854
-157.15312351804
-92.6945360423172
5.87474766356388
133.021146615354
283.236105935163
452.759253061386
634.10532240721
809.375823997531
951.46224021187
1034.70129184358
1046.127254045
987.164324376202
865.615889945899
688.225743896973
462.87099965028
207.461842645246
-46.6859744647388
-264.796842509695
-425.598745857051
-530.451440159027
-596.355697068688
-639.626102876703
-665.010097339037
-668.288625477506
-646.794042775925
-605.984579499535
-556.422460067967
-506.092141699908
-456.615780340665
-406.204654162617
-354.782206970405
-305.594528944624
-262.61409030373
-227.555979636099
-199.697033529166
-177.82710942217
-161.557053650991
-150.723719637934
-144.133694344232
-139.301246550736
-133.311922122544
-123.851229142034
-109.881580157483
-92.1697072185652
-73.5406287827191
-58.048964470397
-48.7931753735654
-45.7393920877929
-45.6091577953194
-44.2775436449173
-39.6673753026697
-32.5810195912368
-25.0289783210463
-18.0823096063822
-11.4009151636358
-4.44205539270482
2.44557155912531
8.32576119406625
12.7589444606441
16.1900958491543
19.23905953772
21.9350515311579
23.8937247274425
25.0974330048797
26.1364954899424
27.5244996901078
28.9672104963013
29.5712689561031
28.8020455991741
27.0649601313896
25.2639485284379
23.9355052543224
22.993150735019
22.263916546971
22.0058734751447
22.7082054698267
24.4669909997085
26.7837856290142
29.0713966548464
31.2474222988267
33.7101679857652
36.779052449796
40.3000072798634
43.8183334084671
46.975000113601
49.5781442947797
51.3428929682008
51.7931463078349
50.5988278748992
48.000426684362
44.7993235444657
41.8993366674216
39.8985447337445
39.0913240163699
39.6723656006159
41.7145812363455
44.8981359394671
48.4170452729736
51.3433475729742
53.1576680040622
53.9142609655691
53.9281659726642
53.4150293604777
52.4885052772092
51.3909004195986
50.5220110815202
50.1479344061569
50.1687266860048
50.3045937826126
50.5233390266088
51.1866113855828
52.7166333978519
55.1746552577119
58.2314717867156
61.4847852489524
64.638198740655
67.2945504136406
68.7179971040351
68.059102529698
64.9735561275351
59.997933998255
54.234140291165
48.6554985008668
43.7512023598092
39.7664929849454
37.0514659856217
35.9438292106735
36.2881382721759
37.2618622248654
37.8856243337414
37.7743254935631
37.3510560433191
37.3246897966988
38.0327150669169
39.3224220067705
40.9437275931605
42.8416122000402
44.9594431938424
46.8603954076473
47.7436163921185
46.9505756808479
44.4474508678467
40.7844841103044
36.625578643997
32.3722238502004
28.1934874929552
24.2537098060315
20.7642582557085
17.8178840805776
15.2974905779692
13.0450172488671
11.1058380608212
9.74154207471089
9.18447643160463
9.40998601654606
10.1428952930292
11.0082021843139
11.6073249180154
11.4972067556304
10.2569678859729
7.72641581750435
4.21888744938227
0.448875167519598
-2.80706894214322
-5.01961386866037
-5.96415743373222
-5.62396393850682
-4.17514180815191
-2.07683982226454
-0.0400434664534295
1.26543888112732
1.5677738631389
1.07255837863066
0.194001664771044
-0.76712776349494
-1.69457976206325
-2.51813389353152
-3.15152591437683
-3.62514350739113
-4.19565572709022
-5.18400239350022
-6.6360016527628
-8.17351798448703
-9.23143310319907
-9.44982880647389
-8.83837700649141
-7.63162622565486
-6.11103940431367
-4.62693808894898
-3.69476208225411
-3.87225816486814
-5.39835561799602
-7.93947376450653
-10.7455836176551
-13.0851839749004
-14.5386935520473
-14.9459047931709
-14.2392902426003
-12.4831838272259
-10.0732962876943
-7.73543928882354
-6.15144946857297
-5.52461971749061
-5.54746164126057
-5.81540124919351
-6.23101710661394
-6.9807826900974
-8.19790384999851
-9.78880821982408
-11.6458462533091
-13.9284097965506
-16.9691224316531
-20.8285780789881
-25.0022241505345
-28.6631220395874
-31.2283017295861
-32.6766059731135
-33.3448308305712
-33.5104887785213
-33.2400622491547
-32.5805724601218
-31.7347288268849
-30.9232488665298
-30.0861808711657
-28.8232574981278
-26.715290454681
-23.7340211168687
-20.3574692661713
-17.3326301643206
-15.3509551640563
-14.8746038702427
-16.0941194382552
-18.8775401691456
-22.7026208257199
-26.70687793144
-29.9200214834079
-31.5574928720015
-31.2071030218052
-28.8768169182801
-24.9789468633037
-20.2631401462777
-15.6184347316346
-11.7488837708955
-8.92199620550977
-7.00740437103809
-5.76291969232047
-5.06941280103917
-4.89865458140092
-5.14367479980634
-5.61364576956892
-6.25230029358707
-7.28126058448517
-8.9883247095854
-11.3096426604922
-13.6738207800247
-15.3449733362583
-15.9472576162244
-15.6352898917224
-14.7763926623418
-13.5612967386556
-11.9948067559588
-10.2022046708477
-8.57046798768827
-7.45525998218075
-6.7669406470803
-5.96765087389736
-4.57038078357812
-2.6476853812107
-0.832138976956824
0.151377273258317
-0.0918162130937619
-1.61438518598338
-4.35556102801069
-8.19391565860623
-12.7243977776979
-17.0973484187874
-20.2486265585342
-21.4099528769976
-20.4640918534956
-17.8777737532932
-14.3697517149584
-10.6444639889665
-7.30565618180017
-4.8072946730748
-3.33259471454018
-2.70892535732779
-2.51776570890821
-2.35597117253642
-2.0297921945186
-1.5596096459806
-1.10084239397457
-0.923985936431755
-1.40525721434698
-2.86726763934507
-5.29075187027783
-8.17456484779187
-10.7643004055098
-12.4905054573893
-13.2022501511618
-13.0003894696625
-11.9339991829333
-9.95827029174326
-7.18111450914475
-4.01357929313847
-0.928694500740345
1.95873941845347
4.98982988864968
8.56156116437215
12.6296060553223
16.6420520515326
19.9477135305866
22.2078980701221
23.4039817557624
23.5618855298521
22.6335367736887
20.7045082100141
18.215342111419
15.824866592263
13.9821307312037
12.6455471723962
11.4256208282414
9.9502077661933
8.05954958997674
5.73437065018387
3.01219931215207
0.0863862201549601
-2.57375506622057
-4.36852961885884
-4.95294316118992
-4.49045338590631
-3.50840596211783
-2.53547277535122
-1.91924606893667
-1.92759615392788
-2.83014826156934
-4.69936683700834
-7.12630196494773
-9.29200875891748
-10.4823797394389
-10.5801973757317
-10.0288922311149
-9.33917322812645
-8.71210889819774
-8.15180221374778
-7.78725865420241
-7.85455261720689
-8.26766776636751
-8.32610877023123
-7.04834340812066
-3.90093666634747
0.812967990748838
6.28902183992685
11.8579369937197
17.2130566438324
22.0854910671044
25.922128774959
28.0854112936446
28.3874599160143
27.2993919051411
25.5389853538573
23.4847591049074
21.0685405139372
18.2213583251977
15.3093888570642
13.0595616667935
12.109642767928
12.7171384446341
14.8733974086373
18.5258434542049
23.5208304106995
29.3175143688876
34.8844320889998
39.0080598996732
40.7728781930576
39.8158018472452
36.2670630911645
30.6163232311941
23.6761743279951
16.5195422134178
10.2098493923088
5.42280328046855
2.27399215805547
0.486400242507008
-0.327695214101594
-0.561493859924761
-0.671808262333881
-1.14597381361159
-2.28605733313442
-4.05087792655905
-6.20180912296183
-8.6237764408118
-11.4363048160575
-14.7496980518457
-18.3700185927235
-21.8148889064653
-24.5795331217793
-26.2640790919883
-26.4103200873864
-24.3876599793301
-19.6987405586138
-12.5170771942582
-3.83766996791212
5.03675475588292
13.181619111704
20.1984553168778
25.7894683897023
29.4618626757404
30.8821917312075
30.4721456506988
29.3662912562415
28.5409608284533
27.9829250190632
26.8370024109531
24.3720258759985
20.6540170742243
16.2123099976119
11.2528718870547
5.51224393882886
-1.03980672237007
-7.61457544397008
-13.0240659126064
-16.7218200732704
-19.2382909010398
-21.4869055222928
-23.797020912285
-25.8207910214586
-27.2884301128512
-28.4855592304362
-29.7532916838811
-30.708679305491
-30.3682331027363
-28.209776133478
-24.8953391521978
-21.6846955024292
-19.2020745969428
-17.0767768066129
-14.8696830005265
-12.9941390101843
-12.2946358681505
-12.7292244263828
-12.9342197851808
-11.4890880641125
-8.52530108825626
-5.7109655969565
-4.52077938259976
-4.81676382054268
-5.4310853874691
-5.97694591678009
-7.55528948694681
-11.3488210038476
-16.6926161899314
-20.8858317857049
-20.9881041779531
-15.6902677834429
-5.63153365836519
7.4037809670171
20.9717053233315
31.891927368198
36.741150672394
33.3634692496611
21.9512751695664
4.0954105224198
-19.4014661981668
-49.1762662637205
-85.1508649549448
-123.960463698468
-159.483793873027
-186.50241844832
-203.289939714028
-209.564728287242
-201.757235720181
-171.482301753268
-110.07909925129
-14.9717520496869
109.059785433897
254.905997998595
417.835697751082
592.994509930691
767.382143804726
915.867690104203
1008.24031506039
1023.196765579
957.615523692342
824.029582695961
640.869406318383
425.844445104464
196.83831066536
-25.2956353323296
-219.606555989552
-373.116163017921
-485.763645807482
-566.099695311059
-621.512155651487
-652.730934224194
-657.38578054418
-637.341923309309
-600.964831414377
-557.984557178185
-513.145722483908
-465.57662319361
-413.71410200463
-359.572238733352
-307.8942498246
-262.253780009476
-223.248024468543
-190.419993277994
-164.609325673687
-147.346850214516
-138.242535794813
-134.077211786311
-130.986488378874
-127.028057687423
-122.032685051016
-115.382529847543
-105.188576346597
-90.4347206989718
-73.4455865508234
-59.0590692388023
-50.6402901263255
-47.0232234631716
-43.7056279094117
-36.9870203944889
-26.7127264438183
-15.2479504545863
-4.60048589237157
4.88465763709847
13.4318709215147
20.5347447058498
25.387189553332
28.264992631649
30.713130870069
34.0805718977883
38.2395585695847
42.113171273421
45.2531697969065
48.3694435122075
52.1663819415728
56.1167946842141
58.8839986075254
59.9106330251644
60.1354793632608
60.9106367000768
62.493724151042
63.9849965932132
64.6725752769337
64.9652694015873
65.727925517425
66.9856751705716
67.7825232927414
67.4242607495459
66.4864674910647
66.2537713050524
67.2816092230072
68.8833103258385
70.1221543534345
70.9611612246927
72.096074983574
73.7796370682453
75.2677063375642
75.6654588394759
75.0814123683536
74.5716222679513
74.9142937151238
75.7466688155245
76.0976309052034
75.5544320661321
74.5581342919734
73.5458208624142
72.1852394405342
69.7741452014584
66.2802926544027
62.6184914797854
59.7515027727379
57.7338482788025
55.8736354569564
53.7225633127983
51.5692872242204
49.8493006666166
48.371232620225
46.4963556300216
44.0875433718332
41.946729777465
41.0743223465181
41.617819355633
42.8012995314182
43.8682983594101
44.7795591526438
45.784781795809
46.530518073849
46.0218923362751
43.6326796242002
39.9222431254329
36.1791215903919
33.2028327392619
30.8026664825193
28.5666146282721
26.8226425250023
26.4901962385373
27.991130459435
30.6405797769598
33.3379440176166
35.7005306344026
38.2036428502356
41.1652080290166
43.8976116189955
45.1353790818804
44.2227221716562
41.6034421838796
38.0826268409538
33.8934118367232
28.7818704679067
22.9266037408362
17.3857986977963
13.3742192881216
11.2022165901385
10.1609737017172
9.43960751863526
8.88266203100957
8.68620274471488
8.57039365607719
7.65288508987435
5.29125164082482
1.83705776086702
-1.69823683515368
-4.6858154901966
-7.34013776055296
-10.0510451083093
-12.4827859270165
-13.6237059182933
-12.7478386660589
-10.0958382791337
-6.4641249827618
-2.29023730720645
2.56241171650537
8.04983782649705
13.2155257337117
16.466541057631
16.61152567525
13.5293152817663
7.85807907062614
0.279633780000378
-8.68106057177561
-18.2493248812422
-27.1360756579637
-33.9465736732474
-37.8872287553371
-39.0173485716099
-37.8799653837353
-35.0574106960262
-31.1185008956795
-26.7694824865475
-22.7490343898585
-19.4647794416517
-16.8467053543569
-14.6668062706006
-12.9406007530495
-11.891317230724
-11.5522868050522
-11.6014691235928
-11.7183627209132
-12.0051513492731
-12.8560110122262
-14.3694457149636
-16.0579908643055
-17.2938959120966
-17.9852208900961
-18.6322689708013
-19.6694260417922
-20.9120497804345
-21.8066570919545
-22.1509580749051
-22.3366196297671
-22.7884259911721
-23.3420221529381
-23.4200495329921
-22.8455351445202
-22.2735910482993
-22.653081873889
-24.3275513476063
-26.8281701245543
-29.5326799182711
-32.2875719008617
-35.1915745997638
-37.8746219534014
-39.3038121624775
-38.5009972081197
-35.3907256589943
-30.8010668760374
-25.6574076190337
-20.3460340798833
-14.9201679648521
-9.71582906810331
-5.46811512620086
-2.73833962827446
-1.39628286448655
-0.835547333725405
-0.65617127824591
-0.976259716552956
-2.05279279432429
-3.781183504205
-5.73707927401749
-7.6474935816702
-9.60365341664995
-11.7170134506986
-13.7179671627536
-15.1018121423951
-15.6828093117999
-15.8291870789556
-16.0343188516037
-16.3492616776205
-16.4022217384444
-15.9698928520568
-15.3304461916592
-14.8990746305532
-14.5966588761573
-13.795207702612
-11.9815349360005
-9.3607050036712
-6.66288474930668
-4.38655242252934
-2.39483404945082
-0.330109697706785
1.69588268739416
2.98950943380687
2.85810880738012
1.17682620724781
-1.68530854126676
-5.37992366282171
-9.83404962079362
-14.9416414123599
-20.1090915517056
-24.2165893358527
-26.0373947855384
-24.6938528908518
-19.8419213826414
-11.6716561872522
-0.910427035627141
11.2201032689869
23.2458608955234
33.7960446417475
41.7890772510921
46.3815229609953
46.9803294142948
43.5528964555627
36.9497960292768
28.6889052777765
20.145323861877
11.8475404196383
3.60298094895011
-4.71090428427863
-12.6337454507263
-19.4972358893142
-25.1849803179033
-30.249365594538
-35.1285504169245
-39.3648467195388
-41.8164947717769
-41.7057974305281
-39.3394512653618
-35.7157190440063
-31.5442706304165
-26.8468604566395
-21.5212734989824
-16.0495528887964
-11.405455131265
-8.26986753328731
-6.53082670130384
-5.65238083253177
-5.39657371517649
-5.99063542875126
-7.59944372072726
-9.85263745520312
-12.0505826382497
-13.758419049331
-15.0216154389866
-15.9925993305238
-16.5568355555618
-16.5102966332343
-16.0421727908196
-15.8165135438841
-16.4569553212922
-18.036173965956
-20.1804983142863
-22.6020665563805
-25.3336378320871
-28.3844391079067
-31.3575026013975
-33.6478652571773
-35.0489575340402
-35.9914341855839
-37.0615961871729
-38.3679963094667
-39.5265608911324
-40.2298408087245
-40.6088891741998
-40.8982839542828
-40.8847145437915
-39.9549181208727
-37.7773414546786
-34.7695389747019
-31.7157656277039
-28.9767693555069
-26.2744707256135
-23.2984305708052
-20.3046946898433
-17.8815929801854
-16.1679581926569
-14.5754324641098
-12.4430338268979
-9.81210606678645
-7.28712513214604
-5.09690797734872
-2.53948776032721
1.43163524533013
7.15176989454701
14.0016894560833
21.232235399679
28.7402374818066
36.7401288916541
44.7341901811529
51.1821937578232
54.4860734446652
54.2765719602324
51.5661650168634
47.674468063475
43.2730086971389
38.6409396866289
34.6188031768157
32.8364043969599
34.7183647278489
40.347050307269
48.4938116523639
57.7431697845951
67.385143454899
77.1653028665425
86.4573953527593
94.0706902190602
98.9793025671133
101.040400035727
100.821287076149
98.8277471041106
95.1365594204538
89.7990408676716
83.3261889990455
76.5163679104069
69.8518781534419
63.3035703534935
56.7972011643286
50.6442444505003
45.2776825939726
40.6441499705285
36.1780646923462
31.5469276747666
27.2440281574661
24.1696070934122
22.6225891293345
21.9653226749722
21.4253118245203
21.0071723295966
21.2734738964833
22.2087860286874
22.674455440842
21.3350892720939
18.0679881377544
14.131470057674
10.8106998288108
8.14002378478291
5.22354478897837
1.67462059391954
-1.71881528009599
-4.00053929926912
-5.45144182381532
-7.54306010436632
-11.3629414226578
-16.3231248427397
-20.5901824105295
-22.5838263098801
-21.7942209049465
-18.374611321891
-12.686322513109
-5.78663674435238
-0.0590844426239228
1.52510766051109
-2.6666508055072
-11.9466010272831
-24.6780236524995
-40.4654640583544
-60.2453043443267
-83.8164522989831
-107.947901185579
-128.131750433012
-142.673051603871
-154.238333547864
-166.181200759786
-177.099770487043
-179.883175825886
-166.890350355808
-135.667352988525
-88.4717447575628
-25.9597116517183
57.176781003086
168.213235620728
307.057061467922
461.404133362373
611.969413072785
742.283591391687
842.37102018733
902.938423113722
908.604106031794
841.225103910027
693.626815918282
481.348003733499
239.723839516801
6.92453011056149
-193.214334372896
-355.24431263836
-482.868759461125
-577.940861206243
-638.032249180652
-661.932458200551
-654.494547987602
-625.07082665285
-582.331934209959
-531.941820958531
-478.857754654922
-429.68376490065
-390.560025843259
-362.185714038989
-338.002048469993
-308.779732212189
-270.004041929265
-225.324365450531
-183.259992987685
-150.78033538279
-129.536369946574
-116.92396850692
-109.426821583662
-104.664660550816
-101.219792282795
-97.8346031084253
-93.3961703496395
-87.4123883150328
-80.0101162523776
-71.4064632423814
-61.6528947639363
-50.9833594085586
-40.1206801069863
-29.9047361441774
-20.603733875712
-11.8146417159268
-3.13453768163241
5.24462953455813
12.7805265047564
19.3085347732836
25.2406870181091
30.9280178511684
36.0281307741383
39.7757054419421
41.900842074782
43.0633289465744
44.2275344700746
45.70853030075
47.0216563301977
47.6635622189776
47.8222839164069
48.1663745264715
49.0552571266071
50.2080201753595
51.2205333813922
52.2161110506373
53.774620029889
56.2410253427197
59.2996651677685
62.3255360074062
65.0255284893738
67.5651354046996
70.1023383687758
72.4205011187384
74.161862280404
75.3117340947933
76.2318383475992
77.1543499817716
77.7939785107453
77.6088363082909
76.4016074013808
74.5085299476531
72.3622591393015
70.027269655119
67.3238990619234
64.3574695354224
61.7070662093566
59.9524884309684
59.0864840232303
58.5441066704848
57.832365516314
57.0130790510311
56.5017461779071
56.5073869847483
56.8461351204451
57.3215390260785
58.1085739388225
59.5875790856715
61.8120477753312
64.2848411926454
66.3327267422173
67.6272456967059
68.2590425827697
68.3794698451202
67.9549304456735
66.9522927804726
65.6323294141163
64.4563573178054
63.6419720350402
62.915212323061
61.7963866474437
60.0871355427206
57.9797266628576
55.7147242245711
53.3013966936744
50.7030172465839
48.2223488605726
46.4953083945257
45.9756982621996
46.4740606906265
47.3058088580647
47.8873270569619
48.0920597991735
48.0083476849465
47.5016159266619
46.2041912951607
43.9662694179501
41.1715068120074
38.4635060817263
36.1613108807246
34.0315750926388
31.6499286866436
28.888063429131
25.9711129082252
23.130920762989
20.3642804716596
17.6001275331934
15.0080123546831
13.0046803091198
11.9325216593256
11.8083413002356
12.4196181265483
13.5787854798975
15.1774944748888
17.0141556857252
18.7084680889687
19.8821882921138
20.3733282182083
20.1622210542598
19.0804084240329
16.7161090944893
12.7181850348993
7.17168629577593
0.57550205847555
-6.57339893866816
-14.0845725637589
-21.9004707735509
-29.7033422635267
-36.8712735945896
-42.921505686213
-47.9376033345186
-52.4486935444975
-56.8717849733839
-61.1440495971772
-64.9192040045658
-68.0114785358514
-70.5143533517524
-72.4958923284953
-73.7378066505891
-73.9108022801859
-72.9849317315109
-71.351103243912
-69.4945911374744
-67.6231290495278
-65.6775749873392
-63.6316757841184
-61.6267393646231
-59.7601011436846
-57.8648447381845
-55.6620821563241
-53.1587835342371
-50.7847337859849
-49.0450416972891
-48.0686779341369
-47.5726670492823
-47.2395215148006
-46.9912180586306
-46.8068970005324
-46.3635637827865
-45.0501673889658
-42.4444016352343
-38.7286817680202
-34.5483221405029
-30.4629328347064
-26.6034439380664
-22.8564086717726
-19.2433319346645
-15.9736109366366
-13.1317309171299
-10.4606672264117
-7.57857692076087
-4.39963853104998
-1.26522723702676
1.34722324057054
3.17296507265428
4.19973549946199
4.47808643396714
4.05382645074338
3.12891665655667
2.17199660842013
1.73038222472085
2.10610092540962
3.27378432970423
5.12015812539206
7.6647167696071
10.9581783703708
14.8182021009574
18.8238126914105
22.6660229901518
26.4452676399857
30.5041790249619
34.9410539016596
39.3714975122714
43.2313998252242
46.2596966504345
48.5826785416079
50.3233240381361
51.2523119758967
50.9369939230815
49.2120952728379
46.3913742801039
42.9642463838643
39.1537950761787
34.8607252049373
30.0216325362231
24.9138203979779
20.0479961863813
15.8194767281706
12.3479410213967
9.63370436903841
7.73859888416268
6.71479522433521
6.39413606051005
6.36232413930142
6.1962567728354
5.69111496357383
4.82946014345986
3.6006579195812
1.96527801956493
0.0174500902904775
-1.92939407967756
-3.54771440004839
-4.81223208166246
-6.04892261206846
-7.63007960081242
-9.65734714603595
-11.9843475827501
-14.4988226728238
-17.2648307626017
-20.3316606187558
-23.4780936284284
-26.2730718890718
-28.4421484905298
-30.1308763561679
-31.7589412037125
-33.6321336869745
-35.7344791776937
-37.8675394326694
-39.8902471424988
-41.7555650613239
-43.3630695768057
-44.4969422866754
-44.9866104573982
-44.9243253457713
-44.7057865637495
-44.8788159440674
-45.9661043523213
-48.35311208468
-52.1773841912414
-57.1915237188912
-62.7375639225488
-67.9574498446854
-72.1055794753661
-74.6650920880163
-75.1913471264673
-73.1850152575058
-68.311245419878
-60.8239928753754
-51.6740984594285
-42.0294209149366
-32.6087231248253
-23.5184413077504
-14.757459577253
-6.78027559683442
-0.417584533030785
3.79284102096261
6.08134983181423
7.12356476631344
7.2281740268914
5.92886466463919
2.43903673425648
-3.52625356223661
-11.4339047846078
-20.3896499656863
-29.7760902573933
-39.3392326383053
-48.6731614499101
-56.7412606052521
-62.0188356050258
-63.1757665697505
-59.699446950502
-51.9861893464311
-40.9691076732884
-27.7118458461031
-13.289626571465
1.08935213643257
14.0155304882559
24.0967320047706
30.4246071751315
32.987895056332
32.6920145843497
30.8963544802105
28.7592010366702
26.8527696653701
25.2740549440365
24.0268221024029
23.2422625788535
23.0604902622177
23.4074621123515
23.980091487691
24.4251729410939
24.4203425091178
23.5319406703685
21.1209538948305
16.6172724925137
10.0255606291231
2.11231193972886
-6.05037928708433
-13.8136510175933
-21.2320732613579
-28.6325910734211
-35.970044687062
-42.6400339893398
-47.8353202787126
-50.9462056306566
-51.6247161631611
-49.7081014441202
-45.382535534992
-39.4815765356738
-33.3579242568063
-28.0966365429648
-23.6809135024567
-19.0169486248163
-12.9620305282763
-5.45560429752835
2.28358125225041
8.58999983341969
12.34804103458
13.3188361268769
11.802918945381
8.26109674898179
3.32457269048051
-1.94670463936847
-5.94429391565139
-6.73563884453241
-2.615896849842
7.142549233594
21.6748225115322
38.5907945477623
54.982103169699
68.7117707264007
78.7442288872369
84.1095344360867
82.8532659195586
72.8765924786408
54.6171259541537
32.7930621054473
14.3642123549994
3.46349572450382
-2.14169584916181
-9.10670891477598
-22.3584564192684
-40.5255665441735
-57.2754759847372
-66.580745078339
-65.7228474150459
-52.7220413775739
-21.7973223647899
36.6571799746956
129.984686464776
256.758521395894
406.603901066673
566.229553865604
724.469386938473
870.322750688856
986.631553596363
1048.43803847959
1031.46650508603
925.777805065626
743.408105387012
513.439581034575
268.708815565273
34.4511503299657
-174.597917214255
-350.598673274025
-488.729803467973
-586.43766560165
-644.257829852862
-665.503684642954
-654.889437929071
-618.205988464162
-563.585500912088
-502.003470575641
-444.652336363544
-398.195643403722
-361.837817215163
-329.102802619612
-293.139154582104
-251.438062968492
-206.770890970443
-164.557590744198
-129.353652254974
-102.920310012656
-84.4630429095947
-72.0742926289256
-64.0709343936712
-59.4153334926017
-57.1931389204152
-55.8555841992307
-53.1881483351447
-47.3360458513999
-38.0612198402006
-26.9184969599695
-15.9827544255242
-6.29048772301832
2.46707304005909
10.8171148366835
18.3590439584206
23.9649446994929
27.0334899614511
28.2335129167122
28.8304875514036
29.4371537841289
29.6936518270372
29.1716153323825
28.2733217085055
27.971277576765
28.7505102420571
30.1078723560941
31.1991230189
31.7539660663162
32.111705537469
32.4529013417382
32.3609272901369
31.3555001974007
29.688576667559
28.3001885035526
27.9258338484848
28.4744099499946
29.4536688521744
30.8492201390046
33.2696930236535
37.1447751792063
42.0297917055867
46.9592184463306
51.4307624972819
55.7625863321272
60.3544580210202
64.7942722564557
67.9687182454698
69.0804982594595
68.3495268377975
66.5962893855809
64.2991281680988
61.3043037753974
57.4563081857712
53.2326357840985
49.5167651894112
46.7890504528999
44.7441050516755
42.7671124533202
40.6430349365608
38.6939981163746
37.361618736175
36.9050544658421
37.5504715157073
39.6828323531944
43.6044886023582
49.0627786241014
55.1633998259084
60.8126107923168
65.1292930180368
67.357556537634
66.6013381001458
62.0586958743435
53.7553958883132
42.92788977084
31.417002313796
20.5851467285489
10.9075054445576
2.59857869455112
-3.65703837982687
-6.93267260138731
-7.04333599106968
-5.00947669108223
-2.26890953233868
0.552164732886411
3.89865992453798
8.31096303119932
13.4359655837152
18.2212149537592
21.99382644424
25.0485651816803
28.04082592818
31.0036073534839
33.2405018147889
34.1863071867635
34.1033175203156
33.7452502553647
33.4677335810476
32.9281388977072
31.6895777133303
29.8715769350962
28.0070577717393
26.3792859442835
24.7924824256019
23.082356532909
21.6151354693532
21.0147011002496
21.4187132148471
22.2506834040783
22.8482427514668
23.1492995134346
23.5406695112848
24.0818202263143
24.1685511792678
23.1386607167638
21.0528300325568
18.5882910792484
16.0961956278367
12.9767289512733
8.17408345969013
1.2105226957496
-7.47193638075634
-17.190170452031
-27.7681264394551
-39.3897898377609
-51.8203872028437
-64.103158436156
-75.2084614040443
-84.859220338772
-93.5268196325537
-101.659559224803
-109.148148206763
-115.631944914977
-121.090085002809
-125.815538945764
-129.784862081857
-132.345706958844
-132.78142781327
-131.129879673987
-128.220804603209
-124.852624690472
-121.128979911547
-116.762227755447
-111.878451523649
-107.191176307173
-103.247463206303
-99.7172164363494
-95.7250935729968
-90.9313696576229
-86.0932672510563
-82.4374244277052
-80.5979494078781
-80.3332116474776
-81.1908807916556
-83.1161352804834
-86.1763409009985
-89.8115898952996
-92.6812887772995
-93.4305365581163
-91.5488541047819
-87.4139590344247
-81.6437653127153
-74.6485039191225
-66.840930388666
-59.0016910323623
-52.1180064956923
-46.7995072891137
-43.0013483002622
-40.391865091515
-38.8496162004646
-38.4395923571721
-38.9715005820061
-39.8293960349622
-40.3673944085831
-40.3464339416301
-39.8024239365207
-38.5352991509291
-35.98966702129
-31.8108828599396
-26.4145871053722
-20.7965323801983
-15.7492583181438
-11.4243978951445
-7.72981657485892
-4.93763872980926
-3.58683823646037
-3.72687375519279
-4.51468353465253
-4.82552624466063
-4.25782667412169
-3.35643893733246
-2.81224040026945
-2.6515964599484
-2.39235362944387
-1.86070264500327
-1.50560869933595
-1.73560819917718
-2.13414611150538
-1.62945405818113
0.504085968129605
4.00211402729843
8.06204041541822
12.2545151072815
16.7476105932536
21.6799117746569
26.6603109690304
31.1542330381439
35.2524479275683
39.7275604940926
45.1854856729801
51.3284544464184
57.2401999857174
62.2973824185785
66.5269329567554
70.0130206129228
72.2676393866901
72.5501017868423
70.8234047216643
68.0873950662946
65.5354530010632
63.475031356428
61.28815039791
58.4164896118727
55.0905213893706
51.9162298081171
48.959113505316
45.6196241891494
41.5231098873481
37.2679505513686
34.0116316543821
32.3562163513625
31.8845054447222
31.8432667515085
32.0115271841666
32.6428134012523
33.6839928288224
34.4619240779138
34.363383251149
33.624137762221
33.1173405680636
33.3338192542494
33.8450078974567
33.9320904258955
33.5244909483929
33.1763251543333
33.1144062602333
32.6951582038933
31.1279281128902
28.6245051325679
26.4618467778551
25.7659502455541
26.4826510337371
27.8181786449187
29.5783174147936
32.6777174903471
38.1464244650958
45.8929727063282
54.7998140544997
64.0088798976471
73.7201675730144
84.4623100017885
95.7792050925186
106.045149965123
113.691072549957
118.357298643964
120.649541084866
120.998870596079
119.207708482487
115.227247812987
109.987119170539
104.993075599142
101.052555713426
97.6836950804233
93.9153144861911
89.4141098018024
84.5205924450439
79.2875403710175
72.9632020866037
64.7429902417751
54.857017708956
44.5277006363517
34.7660676017729
25.4963872102665
16.0865015866517
6.54447990858062
-2.19095414037498
-9.20356077909062
-14.4860900474285
-18.5810876543793
-21.5135423464143
-22.5374414678876
-21.1315524184639
-17.9670608754624
-14.5400412262781
-11.8870182726267
-9.99164782510066
-8.54559601495805
-7.90321342487871
-8.82576720081151
-11.3037183975305
-14.1045869013511
-15.838330194691
-16.3321037271614
-16.6216416391579
-17.6035096257164
-19.0994709781368
-20.4988558208782
-22.0232271298499
-24.8188056336242
-29.6659122699051
-36.001093192358
-42.600401049333
-49.0815797235354
-56.2595894402469
-64.8763637754208
-74.3805328169958
-83.3688938012736
-91.0668780814389
-97.813147279254
-103.8751232956
-108.272859132911
-109.412047708951
-106.92558247013
-102.364248232941
-97.7256992690053
-93.6161962671642
-89.3674828876524
-84.8460347149483
-81.3573156331259
-80.1789545788931
-80.5251193370571
-79.8021145975692
-76.2193794594266
-70.6527117922433
-65.3688006809835
-61.1555374560424
-56.5467803564103
-50.2233910220859
-43.4705477716244
-39.2298144059007
-38.4989517376407
-38.3833178905629
-34.3818639615841
-24.4829082234463
-10.5575105833266
4.06389167096575
17.4206198879628
28.7650737755552
36.2982845658401
36.4508256702981
26.076138902935
4.85662846041638
-25.012177978161
-60.9376712365334
-100.489682543912
-139.671170783449
-172.229128032784
-192.612038855491
-199.792857823146
-196.42987806882
-182.711103921326
-151.617016312049
-92.3358608413421
0.541821550932988
122.226093044027
263.400572479655
419.769865958903
592.775063513502
778.203273545736
954.789595961319
1087.73400070151
1147.05967401283
1123.89948552868
1028.92560413091
876.252835189802
671.993311562777
420.647702508247
140.894234233244
-130.147598750987
-353.417117704867
-511.058541821637
-613.327039247108
-682.411278015613
-729.764251852289
-749.035248988149
-729.186345387369
-671.706794454216
-593.78025319942
-515.930387194795
-448.459408613082
-389.710934988216
-334.920197005125
-284.277349865408
-242.564409917139
-213.43500516605
-196.088359946546
-187.136746549127
-183.814351773273
-184.38537028847
-186.43489818843
-186.471483852341
-181.782630283289
-171.977670065102
-158.142478556941
-141.030455711501
-121.073775260785
-100.23100129928
-82.6614582275066
-72.3024404875561
-69.4782047716982
-70.4127030339714
-70.4530485779573
-67.5737764926432
-62.5367789146282
-56.1443387806232
-47.3381421906384
-34.5230538717142
-18.32969491288
-2.24077597062985
9.89654251624347
16.8241426533128
20.3010720766354
23.0159132769044
26.5118505372112
30.9479102183899
36.0279667778262
41.4329372876081
46.446732337893
49.9098001226035
51.1281799340351
50.7756067109995
50.5152305197102
51.5784977710696
53.8779314388051
56.5925072141435
59.3525603069608
62.4980926119111
66.1847551806425
69.6324847056559
71.6003252818174
71.5659712425496
70.191922051143
68.5760852345443
67.2641965546576
66.1580624564533
65.1979355422844
64.7372374184883
65.069747455601
65.7993229495794
65.9971918550612
65.0644583679417
63.2912069208546
61.4800473057392
60.1524377379719
59.2850631691577
58.7421944968341
58.6685101953276
59.2568553642743
60.2375145852206
60.8677176241431
60.5629725962434
59.4652156683372
58.2970947657745
57.7139108853736
57.9107987433738
58.8161526829406
60.4300446639989
62.7691030553319
65.5223949110944
67.9898884718963
69.5300467893432
70.0617708034061
70.0623448150622
70.1041441745351
70.4806453428375
71.2515942639895
72.441921819009
73.9823891930008
75.4508106300178
76.0699989980651
75.1559868168996
72.6160773474069
68.9744231255527
64.9419308442349
61.0543600900991
57.7223205131907
55.428707950918
54.6036441608757
55.1931525529991
56.4617966345827
57.3929681961368
57.3452738469572
56.2822414662321
54.3791068711818
51.5393447440517
47.4187113337606
41.8820435525896
35.2645428247382
28.0747606791732
20.5170327752769
12.4770845355866
4.05276657531218
-3.98893012864963
-10.4178013118227
-14.2640570767489
-15.3513379316556
-14.1856088175106
-11.4724937147008
-7.85862408907099
-4.08113010231716
-1.12942728009688
0.00271124194296135
-1.13503535088557
-4.13264244599168
-7.97307553884426
-11.6331282255287
-14.5197692439128
-16.4863155134185
-17.6158507494496
-18.0884430932603
-18.2016113278308
-18.3601789968781
-18.8972223055046
-19.8323973651408
-20.7955722571362
-21.2061645334216
-20.5764576481968
-18.7358798002389
-15.8812596924542
-12.4891607058676
-9.16077137727389
-6.4413401426217
-4.65333855729516
-3.80926766056585
-3.65576909517326
-3.82239828860748
-3.98011416885026
-3.93424359770385
-3.65827240339903
-3.31400006159022
-3.25160282275882
-3.91851969020417
-5.64364550777574
-8.39991822275971
-11.736580821747
-14.9776879573743
-17.5595554799567
-19.2468252106734
-20.0814153213247
-20.1793638552281
-19.6198404772018
-18.5198748360872
-17.1295800925973
-15.7342177460803
-14.3985034313363
-12.850955354114
-10.7340229179364
-8.06011866949797
-5.43413280641537
-3.78262069600337
-3.8134130580724
-5.68801492757307
-9.12507496016244
-13.6715013922976
-18.7482006300087
-23.4532058736621
-26.5181227319482
-26.7266469169524
-23.5744271011108
-17.5932687475096
-10.0267073888833
-2.15868561063956
5.12052756331859
11.2710758006471
15.8822125044232
18.6802691738344
19.7714715147199
19.7449583329931
19.3755028860517
19.125964435792
18.8990348752352
18.243913288128
16.7862184542154
14.500232505937
11.6800257163721
8.76029022857587
6.18176540055385
4.33963457303739
3.54577607336269
3.97385534326376
5.61895153740495
8.29040449683196
11.6295753530423
15.1776454140279
18.5370043709777
21.5663017844344
24.4153627499903
27.2732659887944
29.9979200606956
31.9988546630937
32.5473111509339
31.2416566160536
28.1780806507297
23.7190792216104
18.2263164421277
12.1312997119917
6.21687944136878
1.60494360191423
-0.777324219369426
-0.829382821973294
0.637678587080231
2.47445948476204
3.85009471532741
4.39782946529638
3.91140122920457
2.16319311244503
-0.849474507202842
-4.59266481581193
-8.1641040350598
-10.9198858023713
-12.9364485614006
-14.8268236611036
-17.1528107355046
-20.0793750504514
-23.5260751977476
-27.4291586035468
-31.6759292569288
-35.8376489076342
-39.2043945308742
-41.2680008138064
-42.1670861353371
-42.5659261469886
-43.0892524250517
-43.9487196260941
-45.099096316464
-46.5471130504236
-48.2666300595218
-49.794788018732
-50.156498850756
-48.4604727112853
-44.6489205470178
-39.5800311093256
-34.3386022214324
-29.5541882900041
-25.4421943590729
-22.3386905091325
-20.8779798054704
-21.4698572924042
-23.7207172915163
-26.6143781425663
-29.3589964679406
-31.9532572513592
-34.8287699630219
-38.0299158195658
-40.9209963174146
-42.7168029039818
-43.1174505902063
-42.2749571802773
-40.2514698641065
-36.8067427726992
-31.8926757257479
-26.2477293733195
-21.269059036694
-18.186183307114
-17.3874530857873
-18.5207645288438
-21.0377035140141
-24.4137681619257
-27.8721237215654
-30.2152580240763
