Value(bpm)
67.8145695364238
67.8772187219058
67.9391141799773
67.9993803356748
68.0571356002568
68.1114928933141
68.1615603978457
68.2064425512315
68.2452412740869
68.2770574377651
68.300992569793
68.3161507947751
68.3216410063024
68.3165792631543
68.3000914006155
68.2713158450669
68.2294066171782
68.1735365060819
68.1029003938783
68.0167187067701
67.914240966116
67.7947523626473
67.658754406144
67.5097336925933
67.3515948005431
67.1881813588909
67.0232682847583
66.8605584078326
66.7036832798171
66.5562079633982
66.4216396097684
66.3034396655353
66.2050395973954
66.1298600853253
66.081333711961
66.0629312677986
66.0779289077755
66.126128054152
66.204846353636
66.3114076865541
66.4431747763927
66.5975273963903
66.7718427539206
66.9634779243556
67.1697542691816
67.3879438292228
67.6152577336895
67.8488367097057
68.0857438149017
68.3229595470954
68.557429902747
68.7867959376748
69.0092517455668
69.2229670206409
69.4260747568541
69.6166760334547
69.7928458915581
69.9526403259513
70.0941044018252
70.2152814888903
70.3142235854389
70.3890026826019
70.4377230946388
70.4585346550722
70.4504746974804
70.4162850970063
70.3597556933257
70.2846999989695
70.1949332326675
70.094254498898
69.9864331338614
69.8751991947046
69.7642380167492
69.6571887303739
69.5576466144
69.4691691654089
69.3952857813669
69.3395088202699
69.3037793430002
69.2857184190084
69.2822377347127
69.2902714772829
69.306764784279
69.3286649280583
69.3529151986496
69.3764514765022
69.3962015042018
69.4090868739587
69.4120277453433
69.401950295271
69.3757968795946
69.3305704003498
69.2661688314894
69.1875953222499
69.1003534770832
69.0099021771845
68.9216463696796
68.8409364312215
68.7730758893058
68.7233373085837
68.6969862267235
68.6993131533848
68.7356738268305
68.8115381584276
68.9325485921886
69.1044577634864
69.3273548278445
69.5931795514074
69.8931646635124
70.2183378058851
70.5594401424738
70.9068672237869
71.25063405095
71.5803668559005
71.8853244121964
72.1544516583575
72.3764679896146
72.5399916979024
72.6337129695986
72.6515104904485
72.6001442097994
72.4886848273648
72.3264236639629
72.1227332305869
71.8869507911781
71.628286261861
71.3557546758641
71.0781325933102
70.8039372564916
70.5414269721491
70.2986211183731
70.0833382956936
69.9030736599425
69.7596781615633
69.648537662376
69.5648162766457
69.5037950738413
69.4608382387171
69.4313659432206
69.4108335590684
69.3947169755596
69.3785038860273
69.3576909708882
69.3277869369128
69.2843213718186
69.2228593410534
69.1392929107811
69.0343073511886
68.9126127007323
68.779010195767
68.638244812446
68.4949925220785
68.3538541002476
68.2193552443547
68.095952738799
67.9880464263718
67.8999967960756
67.8361480793593
67.8008568576296
67.7985263240889
67.8335388402825
67.9063651399169
68.0124209147522
68.1468307578376
68.3047188590744
68.4811708899953
68.6712027305211
68.8697360907201
69.0715812524734
69.271427287752
69.463840199384
69.6432694723261
69.8040635130124
69.9404943854439
70.0472377178703
70.12379206104
70.1726744450261
70.1965287188745
70.1980638138172
70.1800354140686
70.1452295261144
70.0964481036037
70.0364968350832
69.9681751579485
69.8942685249834
69.8175429202237
69.7407415988476
69.6665840113474
69.5972990506068
69.5326213152881
69.471471742264
69.4127795359766
69.3554817513809
69.2985226898892
69.2408536208828
69.1814328230248
69.1192259397735
69.0532066432686
68.9823576001424
68.9056717318165
68.8221537604972
68.7308220304025
68.6312431926859
68.5255580295807
68.4166555671773
68.3073904540155
68.2005814463774
68.0990124070661
68.0054355838014
67.9225770994023
67.853144601223
67.7998370397685
67.7653565758704
67.7524226522964
67.7637883095374
67.802258877461
67.8701134830157
67.9649988532972
68.0823645209355
68.2176331101071
68.3661857107965
68.5233401697159
68.6843355445713
68.8443229372842
68.9983629955748
69.1414304091874
69.2684257236659
69.3741947473342
69.4535557327617
69.5013343703522
69.513565336524
69.491467398061
69.4377550721257
69.3552176888136
69.2466954465611
69.1150574603344
68.9631819837326
68.7939389557691
68.6101749599145
68.4147006272843
68.2102804685066
67.999625080214
67.7853856422994
67.5701506007591
67.3563607804662
67.1456723830806
66.9393301801884
66.7385457319849
66.5445025694605
66.3583586518599
66.181249194659
66.0142898501094
65.8585802269873
65.7152077411442
65.5852517938034
65.4697882802709
65.3698944378772
65.2866540485823
65.2211630012127
65.1739029733997
65.1430812618947
65.1264149648315
65.1216463496325
65.1265338329119
65.1388445612498
65.1563485505031
65.1768143605977
65.198006297447
65.2176831438987
65.2335984274746
65.2435022341147
65.2451445741377
65.2362802991335
65.2147051685543
65.1803072616931
65.1363834761594
65.0865377528878
65.0343570630139
64.9834069002429
64.9372307135954
64.8993532199885
64.8732875425373
64.8625461444368
64.8706555695148
64.901175059129
64.9577191917174
65.0439847875116
65.1637824392648
65.3207501055249
65.5137253330133
65.737703637426
65.9875247333678
66.2579282462284
66.5435140939729
66.8387108194517
67.1377524196782
67.4346644207371
67.7232600937148
67.9971477878209
68.2497503588161
68.4743375800319
68.664072226348
68.8124868570569
68.9188196305858
68.9865549309931
69.0194359506127
69.0213347831671
68.9962153323622
68.9481000343041
68.8810408418016
68.7990947718973
68.7063041887931
68.6066818862019
68.5042009480856
68.4027893055188
68.3063288698734
68.2186647785978
68.1437062072546
68.085422825039
68.0477803306112
68.0347597012708
68.0503838352377
68.0987491430924
68.1840624664573
68.310683880192
68.4831761505608
68.7063618857825
68.9853897407399
69.3258114432005
69.733671920442
70.2143923938419
70.7652180636814
71.3796417255468
72.0509019671732
72.771855924446
73.5348451595479
74.3315705676046
75.1529786458204
75.989162739438
76.829284159623
77.6615192884722
78.4730398461986
79.2505436792378
79.9868981322715
80.6798601979124
81.3274247058764
81.9277331169671
82.4790891831717
82.979973333456
83.429055548728
83.8252065118933
84.1675068472022
84.4552542964576
84.6879834308899
84.8667917443033
84.9954107219485
85.0780597869635
85.1191533851836
85.1232550644802
85.095035177153
85.0392328768958
84.9606229083305
84.8639875268806
84.7540937453098
84.6356759843519
84.5130529831302
84.3887103682581
84.2645687297101
84.1425261429501
84.0244588769794
83.9122228294404
83.8076557752388
83.7125804084161
83.6288081619909
83.5581437968514
83.5023907585006
83.46327851677
83.4400699583393
83.429131082318
83.4266776284313
83.4289332827608
83.4321237038404
83.4324739689785
83.426209436374
83.4095600218059
83.3787678789225
83.3300984494897
83.2598548146198
83.1650102272565
83.0458605225246
82.90381398511
82.7403016683162
82.5567694394261
82.3546711413044
82.1354622244834
81.900593877218
81.6515076723591
81.3896307418989
81.1163714827658
80.8331158076274
80.5418184859419
80.246538118226
79.9517063016617
79.6616267908433
79.3804794323158
79.1123284924887
78.86113505861
78.6307732417916
78.4250499753638
78.2477282795046
78.1025539533336
77.9932857585859
77.9231749328479
77.8902002363839
77.8894518286527
77.9160756826553
77.9652696772881
78.0322526933776
78.1122397086034
78.200422758512
78.2919577446317
78.3819571542223
78.4654888096796
78.5375807883668
78.5933456406341
78.6304866887002
78.6493257984748
78.6503245879086
78.6339694417923
78.6007693352459
78.5512536453602
78.4859699656433
78.4054819371162
78.3103671089943
78.2012148409071
78.0786242575666
77.9432063196604
77.7965876120495
77.6427066603612
77.4857730233422
77.3299310118028
77.1792589564929
77.0377728258683
76.9094340199619
76.7981611928175
76.7078459994654
76.6423727233445
76.6056418161363
76.6015974746535
76.6336453128754
76.6978686591027
76.7854728648414
76.887548712291
76.9951162976533
77.0991013901948
77.1903329004378
77.2595620259359
77.2975035622032
77.2948995645243
77.2426050193421
77.1316944383187
76.9536053266615
76.7047272324726
76.3921711411726
76.0246144754796
75.6107049763609
75.1589539037489
74.6776494847719
74.1747903969918
73.6580383856398
73.1346886237576
72.6116561190254
72.095476328336
71.5923181337201
71.1080074330375
70.6477424651686
70.2126819876228
69.801466013092
69.4127737426221
69.045361954656
68.6980579639523
68.3697532635475
68.0593977736459
67.7659946311525
67.4885954620142
67.2262960858258
66.9782326084587
66.743577863935
66.5215381715155
66.3113500647692
66.1122000385622
65.9231228013671
65.7431565603968
65.5713658693459
65.4068391427872
65.2486864723849
65.0960377250749
64.9480409059139
64.8038607704513
64.6626776732877
64.5236866409771
64.3860966586412
64.2491301606134
64.1120227161451
63.9740251382655
63.8349580492605
63.6959265549521
63.5581963671331
63.4230114118165
63.2915947008354
63.1651496697123
63.044861962205
62.9319016445984
62.8274258361182
62.7325817457464
62.648510110202
62.5763490329018
62.5172382293569
62.4723236907195
62.4427627841307
62.4294266908618
62.4310567450892
62.4454848556073
62.4705528663731
62.504108160794
62.543997043377
62.5880596050652
62.6341260688244
62.6800146248152
62.7235307729794
62.7624681950372
62.7946111776253
62.8177386034962
62.8296295182313
62.8280702657682
62.8109781273255
62.7785866283858
62.7332591512805
62.6774423408786
62.6135780306335
62.5440960975034
62.4714092308508
62.3979095955262
62.3259673555342
62.2579310170637
62.1961295480167
62.1428762352434
62.1004742502534
62.0712239090266
62.0574316316345
62.0614204602041
62.084695082002
62.1259820945274
62.1834494894457
62.2552786928811
62.3396554885089
62.4347620177876
62.5387698291639
62.6498339665927
62.7660881036625
62.8856407430852
63.0065725123182
63.1269345945299
63.2447483398791
63.3580061049339
63.4646733678082
63.5632376620961
63.6548145326212
63.7413360928361
63.8247592730568
63.9070632220999
63.9902480685928
64.0763349171088
64.1673671139852
64.2654128195589
64.3725689289001
64.4909663921629
64.622776998661
64.7702217060591
64.9355806181146
65.1211982861851
65.3278792515239
65.552702273936
65.7921556487555
66.0426406269029
66.3004560840091
66.5617869808073
66.8226969129791
67.0791250989817
67.3268881855237
67.5616872589509
67.7791204332103
67.9747013376138
68.1438837470579
68.2820949544697
68.3865689734623
68.459584145272
68.504385737357
68.524312488239
68.5227705889283
68.5032106069869
68.4691076236699
68.4239447665512
68.3712002439469
68.314337925069
68.2568014621941
68.2020119186317
68.1533688488827
68.1142547439822
68.0869367072366
68.069657995887
68.0597590162537
68.0545894115432
68.051503345796
68.0478568544279
68.0410072520169
68.0283145932808
68.0071451817846
67.9748771128213
67.9289078222291
67.8666635917892
67.7856109346383
67.6832697513389
67.557729172646
67.4103635708707
67.2438353572157
67.0607972463061
66.8638756480607
66.6556594086104
66.4386906840392
66.2154578921267
65.9883906620712
65.7598566840519
65.5321603489743
65.3075430632675
65.0881851235273
64.8762090404762
64.6736842105263
64.4822424037729
64.3019308657479
64.1324177608816
63.9733864016068
63.8245343163669
63.6855723785315
63.5562239913111
63.4362243241964
63.3253195968443
63.2232664066834
63.1298310968323
63.0447891612179
62.967924684036
62.8990298109398
62.8379042495558
62.7843480683278
62.7381030171635
62.6988810083836
62.6663997088039
62.6403823359236
62.6205570840823
62.6066565823021
62.5984173819016
62.5955794721801
62.5978858226612
62.6050819505623
62.6169155123195
62.6331359181507
62.6534939687799
62.6777415135745
62.7056329060408
62.7369895805838
62.771718679736
62.8097335755712
62.850948232764
62.895277115957
62.9426350998314
62.9929373817749
63.0460993970518
63.1020367363907
63.1606650659133
63.2219000493412
63.2856572724215
63.3518521695264
63.4203999523866
63.4912143021849
63.5640961139582
63.6386438435385
63.7144315741213
63.7910294372079
63.8680034614242
63.9449154791213
64.0213230922284
64.0967796988714
64.1708345822824
64.243033063496
64.3129167192661
64.3800236665302
64.4438889146075
64.5040447861261
64.5600646978036
64.6131457287004
64.6665739737007
64.7237934454921
64.7882734160177
64.8635143945726
64.9530579145938
65.0605002545862
65.1895102732567
65.3438516136298
65.5274096281158
65.7442234997676
65.9985241893468
66.2947790303687
66.6377440347072
67.0307012769706
67.4698644389517
67.9495136749048
68.4636944001251
69.0061396004526
69.5702005198715
70.1487870224517
70.7343194989382
71.3186947168301
71.893268467068
72.4488581991978
72.9757690073414
73.4638462699807
73.9042876700984
74.296536738738
74.642828656997
74.9457067178634
75.2079893137364
75.4327367754263
75.6232184296273
75.7828806752343
75.9153167902108
76.0242390827866
76.1134538995755
76.1868399041518
76.2483182225251
76.3011954113442
76.3478165057323
76.3904602489607
76.4314174998502
76.4729895486279
76.517487809347
76.5672349055388
76.6245671668026
76.6918385586511
76.7714260762374
76.8657366447297
76.977215585297
77.1075699400435
77.2539424409104
77.4117768044128
77.5764513635363
77.743269981591
77.9074561930434
78.0641530963654
78.2084292550298
78.3352908495392
78.4397002773094
78.5166013163415
78.5609508517378
78.5682910349647
78.5407012625776
78.4846203438922
78.4065993215577
78.3131829161794
78.2108786323993
78.1061368194323
78.0053415385559
77.9148119898348
77.8408142248004
77.7895829176584
77.767353081812
77.7803460843176
77.8309668671211
77.9153147878939
78.0289525440916
78.1674627730196
78.3264167456949
78.5013480276027
78.6877310577501
78.8809647127419
79.0763610152366
79.2691392156517
79.4544255209098
79.627267788705
79.7837350276307
79.9219909107823
80.0404454951156
80.1375198088851
80.2116536809798
80.2613141055433
80.2850040829638
80.2812718655502
80.2487205234493
80.1860177339719
80.0919056858292
79.9652210263501
79.806105269026
79.6171204355679
79.4011233918362
79.160974337416
78.8995194349552
78.6195755270239
78.3239169714527
78.0152645845043
77.6962766462196
77.3695418939582
77.0375744083354
76.7028102801247
76.3674007846181
76.0314572268274
75.6939947197838
75.3540526385134
75.0107071131426
74.6630713375714
74.3102960690019
73.9515702936324
73.5861220338354
73.2132192720575
72.8321709665681
72.4423281340733
72.0430849741453
71.6339000832772
71.2153822813137
70.7897798538363
70.3593867626688
69.926399043462
69.4929139856425
69.0609306750142
68.6323517474751
68.2089862085041
67.7925531818652
67.3846864617067
66.9869397543921
66.6007925094957
66.2276562530704
65.8688813502491
65.5256551882381
65.1981840890645
64.8861961053167
64.5894352130855
64.3076647677862
64.0406669437244
63.7882422322497
63.5502089961261
63.3264030780661
63.1166774616833
62.9209019834137
62.7389630942332
62.5707636702803
62.4162228717558
62.2752760497387
62.1478689044585
62.0335586039368
61.9312626302881
61.8398649741798
61.7582740288051
61.6854189676138
61.6202465490139
61.5617183234287
61.5088082225879
61.460500514763
61.4157881128741
61.3736712250521
61.3331563393835
61.2932555362093
61.2529861225314
61.2113705838107
61.1674952662817
61.1212440409067
61.0730718496502
61.0234438000071
60.9728222782928
60.9216667706219
60.8704337542151
60.8195766578973
60.7695458906042
60.7207889367169
60.6737505170863
60.6288728146901
60.5865957639914
60.5473574032245
60.5115942890344
60.4797419731315
60.452218760457
60.4292971994073
60.4111759032426
60.3980545925581
60.3901350453169
60.3876214407163
60.3907207198058
60.3996429638176
60.4146017912882
60.4358147751711
60.4635038812757
60.4978959295129
60.5392230795824
60.5877233429105
60.6436411228286
60.7072277851907
60.7787052435813
60.8581240747172
60.9454870390881
61.0408026391721
61.1440851054928
61.2553543821699
61.3746361227852
61.501961696481
61.6373682042441
61.7808985053587
61.9326012540501
62.0925309463721
62.2607479774252
62.4373187090276
62.6223155479946
62.8158339382021
63.0182069485924
63.2299482495518
63.4515938808889
63.6837001931934
63.9268455539399
64.1816322023366
64.4486882670385
64.7286699625722
65.0222639822859
65.3301901078624
65.65320405797
65.9921006015115
66.3477169642299
66.7209318270049
67.1118647193956
67.5189157869221
67.9401885977557
68.3736925224234
68.817332649098
69.2689006249289
69.7260665868855
70.1863723737528
70.6472262374296
71.1058992955464
71.5595239874481
72.0050948103336
72.4394716201986
72.8596147018418
73.2633921621662
73.6488993242058
74.0141966417748
74.3573183608761
74.6762822734855
74.969100537312
75.2337915213136
75.4683926133979
75.6709739018672
75.8396526163117
75.9726081874806
76.0681175665893
76.1256568866419
76.1464811190067
76.1320952470189
76.0841024649914
76.0041897964655
75.8941138658521
75.7556870060818
75.5907638637289
75.4012286404515
75.1889830862809
74.9559353370231
74.7039896654059
74.4350732582329
74.1520485794858
73.8587486287684
73.5589550007363
73.2563376329265
72.9544513331335
72.6567359204952
72.366519690515
72.0870259259129
71.8213821989257
71.5726322445526
71.3437502266605
71.1376572686322
70.9572401766019
70.8047062715817
70.6790779118002
70.5784872874326
70.5011408543044
70.4453075444132
70.4093079653852
70.3915046616314
70.3902933346505
70.404094939653
70.4313485927804
70.47050523806
70.5200220362044
70.5783574486725
70.6439539189404
70.714516733049
70.7866319333415
70.856766814562
70.9213609231925
70.9768297716612
71.019572180635
71.0459812895324
71.0524592364738
71.0354354543127
70.9913884596729
70.9168709282586
70.808537754159
70.6631766863856
70.4784925484677
70.258870286546
70.0120321934266
69.7456001735436
69.467019388736
69.1835267782227
68.9021355465201
68.6296344995065
68.3726010551721
68.1374268239812
67.9303548263594
67.7575276766403
67.625046403702
67.5390399945613
67.5054085250493
67.5235126665156
67.5867274585773
67.6883448610495
67.8217220845419
67.9802114922097
68.1571035533875
68.3455826348932
68.5386958388492
68.7293354154438
68.9102354921159
69.0739839582733
69.2130503143177
69.3198301220404
69.3874934143354
69.4177748427939
69.4177254669808
69.3945636196857
69.3555456292253
69.3079251720603
69.25892777473
69.2157404661585
69.185516424467
69.1753944376832
69.192533102737
69.2441599203352
69.337635807046
69.4805360493795
69.6787544206617
69.9268229519769
70.215049288051
70.5335557050945
70.8721799588613
71.2203971446586
71.5672703941595
71.9014332805956
72.2111072832255
72.4841577186631
72.7081910978515
72.8706958357792
72.9592265749674
72.9629256256455
72.8839811552241
72.7321160809049
72.5174509150738
72.2502426334187
71.9407276254227
71.5989935096963
71.2348805678423
70.8579122384588
70.4772531606161
70.1016926547371
69.7396512461129
69.3992078277207
69.0881452768264
68.8130372844936
68.5734485105485
68.366088914199
68.1878193640477
68.0356363261635
67.9066480697845
67.7980540513239
67.7071271413807
67.631198431692
67.5676444184385
67.5138764070947
67.4673320236363
67.425468748497
67.3857594139981
67.3457634977735
67.3043384596976
67.2614386819752
67.217053614988
67.171172982756
67.1237867880044
67.0748853171637
67.0244591452962
66.9724991409458
66.9189964709071
66.8639426049079
66.8073293202017
66.7491487060651
66.6893931681971
66.6280564309441
66.5655321760673
66.5032186162083
66.4426598355044
66.3853888444168
66.3329287693866
66.2867947382792
66.2484964527494
66.2195414429674
66.2014390057521
66.1957048340604
66.2038663540276
66.2274687954278
66.268082032644
66.3273082461862
66.4065284079547
66.5043350654715
66.6175999663286
66.7431506495517
66.8777814408988
67.0182428595021
67.1612340590213
67.3033984114921
67.4413223676244
67.5715377399714
67.6905275540701
67.7947355961859
67.8805797536226
67.944469193876
67.9829979739651
67.9958075686898
67.9851530425305
67.9534196041811
67.9030259069695
67.8364100098475
67.7560169894596
67.6642882783933
67.5636527703688
67.4565197037914
67.34527331109
67.232269202722
67.1198324415902
67.0102572557224
66.9058040798415
66.8079900465181
66.7168042794077
66.6320472616984
66.5535248732475
66.481048039959
66.4144324009627
66.3534979924496
66.2980689471147
66.2479732082351
66.2030422574959
66.1631108557432
66.1280167959112
66.0976006674326
66.0717056314976
66.0502491544347
66.0339264961025
66.0239069185978
66.0213682110351
66.0274923913553
66.0434685987793
66.0704964265606
66.1097897107774
66.1625807964237
66.2301253084149
66.313707462431
66.4146459589016
66.5343005130732
66.674079085197
66.8354282624883
67.0186172510365
67.2219107550921
67.4433726453855
67.6810407756167
67.9329160412108
68.1969524556165
68.4710482773679
68.7530382458218
69.0406870061814
69.3316838249256
69.6236387147125
69.9140801027199
70.2004541875983
70.480150560887
70.7507789290888
71.0100844693888
71.2557646715152
71.4854731893567
71.6968288082255
71.8874260800658
72.0548476348028
72.1966781446001
72.3105198817631
72.3940097708954
72.4448377924777
72.4607665493633
72.4397328790838
72.3828224996698
72.2950922359372
72.1818902561361
72.0485616331534
71.9004151967063
71.7426983757626
71.5805799466834
71.4191404735613
71.2633701475611
71.1181736992473
70.988382068511
70.8787705672478
70.7940833573593
70.7382352543111
70.7098501042449
70.7055116058674
70.7218538336354
70.7555452103993
70.8032705383517
70.8617162201569
70.9275585949392
70.9974553661094
71.0680401379798
71.1359201059704
71.1976769608115
71.2498710701576
71.2890873320596
71.3136456698462
71.3242903854708
71.3219612665361
71.3076127249599
71.2822104564008
71.2467283292635
71.2021455181019
71.1494438929172
71.0896056727629
71.0236113492343
70.9524378828867
70.8770571733885
70.7984348023039
70.7177242998391
70.6374526993835
70.5607216229764
70.4906088012399
70.4301701757425
70.3824470436572
70.3504758119802
70.3373003644648
70.3459870846962
70.3796426288481
70.4414346024421
70.534615368248
70.6625492993634
70.8287162037296
71.0334036403866
71.2704332811418
71.5327880992382
71.8132968859947
72.1045878993858
72.3990565481486
72.6888481863327
72.96585732788
73.2217446915062
73.4479734300166
73.6358656614634
73.7766799817569
73.8617454378109
73.8868370318159
73.8563275127881
73.775794546158
73.6509866619953
73.4877510487447
73.2919695107063
73.0695034277139
72.8261481690051
72.5675970819191
72.2994149077881
72.0270202750218
71.7556767816303
71.4904921021315
71.2359300993906
70.9928447060595
70.7605734578099
70.5384711070337
70.325913886096
70.1222978060358
69.9270370982978
69.73956278864
69.5593213935458
69.3857737305156
69.21839383454
69.0566679738833
68.9000937590319
68.748179339309
68.6004727096287
68.4567229341006
68.3167599397424
68.1804173346939
68.0475320383108
67.9179441130932
67.791496606434
67.6680354017216
67.5474090783652
67.4294687803404
67.3140680928843
67.2010629269923
67.0903114113934
66.9816737917054
66.8750237708789
66.7704990127945
66.6684970453402
66.5694222051299
66.4736745218304
66.3816501189889
66.2937416594402
66.2103388344886
66.1318288962906
66.0585972331296
65.9910279875461
65.9295047175855
65.8744111017438
65.8261316885275
65.7850526919097
65.7515145127949
65.7256048770656
65.7073318202142
65.6967085892486
65.6937537345245
65.6984911573571
65.7109501671387
65.7311655481757
65.7591776364898
65.7950324068619
65.8387815704369
65.8904826832415
65.9501992660102
66.0180009357565
66.0939681464625
66.1783965495626
66.2718812467764
66.3750521369024
66.4885544324241
66.6130505644385
66.7492222552686
66.8977727729495
67.059429383824
67.2349460217971
67.4251061954156
67.6307261569148
67.8526583607627
68.0917952430939
68.3490512200753
68.6238245134788
68.9129271444616
69.2128331266598
69.5198979314522
69.8303474495164
70.1402707287875
70.4456168636125
70.7421964406635
71.0256879579406
71.2916496202298
71.5355368739061
71.7527259724979
71.9385437591657
72.0894091390218
72.2066555323762
72.2930762352376
72.3515781102493
72.3851576130821
72.3968787359285
72.3898531320117
72.3672226518764
72.332144457399
72.2877788218275
72.2372796751406
72.1837879144925
72.1304274699893
72.0801737227963
72.0344136070166
71.9934865146566
71.9577134160083
71.9274160764805
71.9029175393864
71.8845426390692
71.8726185453684
71.8674753406377
71.8694466307446
71.8788701917242
71.8960886540133
71.9214502264732
71.9552981777714
71.9971910106582
72.0453911048212
72.0980348023544
72.1532496511019
72.2091525598983
72.2638489265298
72.3154327530778
72.3619877641767
72.4015895423916
72.432308691343
72.452215031317
72.4593828238926
72.4518972424789
72.4289939495303
72.3936843726199
72.3497602839166
72.3010035120036
72.2511789499794
72.2040315142329
72.1632870073645
72.1326568340602
72.115846530922
72.1165680999797
72.1385561807384
72.1855881574871
72.261508378105
72.369509037135
72.5070052003766
72.6686503745923
72.8490383146966
73.0426864762577
73.2440109757586
73.4473096886921
73.6467538879679
73.8363889114924
74.0101443781047
74.1618544391105
74.2852884521801
74.3741922902173
74.4234992839407
74.4350036487352
74.4130702393226
74.3621554045849
74.2867664040776
74.1914292823264
74.0806621200876
73.958953808338
73.830748369046
73.7004347532902
73.572341982428
73.4507394611298
73.339842280862
73.2433693616408
73.1614727263741
73.0926501073791
73.0354152244956
72.9883027504356
72.9498639741748
72.9186630806705
72.893274024015
72.8722779769105
72.8542613440833
72.8378143310009
72.8215300620608
72.8040042443085
72.783949748815
72.7618360533775
72.739503194859
72.7188233869562
72.7016647364593
72.6898925755561
72.6853717509013
72.6899698696842
72.7055615089045
72.7340334021242
72.7772906281902
72.8372638389214
72.9159175777257
73.0151736129237
73.134286501359
73.2693185431726
73.416111484765
73.5704529656548
73.7280650269293
73.884597431638
74.035625998787
74.1766561747536
74.3031320628247
74.410451101097
74.4939845192921
74.5491036148571
74.5714425829894
74.5607273997151
74.5201848148726
74.4532128299525
74.3632467348352
74.2537366038347
74.1281278961596
73.9898452613994
73.8422795820939
73.6887782292947
73.5326384636931
73.3771038842501
73.2253638078733
73.0805167007951
72.9443991607109
72.8173992240055
72.6998236076521
72.5919812732759
72.4941843228901
72.4067489264004
72.3299962837933
72.2642536253139
72.2098552533479
72.1671436301764
72.1364705162515
72.118198164173
72.1127002060019
72.1200964006088
72.1397824489125
72.1710392462557
72.2131567703741
72.2654318477901
72.3271660740647
72.3976638800837
72.4762307382392
72.5621715039195
72.6547888891349
72.7533820664118
72.8572454022787
72.9656673207586
73.0775443417002
73.1900638237348
73.2999114223163
73.4037333793935
73.4981403691247
73.5797144737654
73.645019366893
73.690613735124
73.7130679235186
73.7089837312589
73.6750172136603
73.607904265503
73.5044886711789
73.3628309994893
73.1868369408258
72.9823188844733
72.7550444983761
72.5106966317386
72.2548437512583
71.9929194490035
71.7302106008245
71.4718536568844
71.222838504227
70.9880193490799
70.7721321174566
70.5798179607836
70.4156237841729
70.2814695912637
70.1746976964903
70.0922714179942
70.0312357312476
69.9886981582604
69.9618123864371
69.9477644261904
69.9437611699836
69.9470212592268
69.9547682004772
69.9642256993535
69.972615199901
69.9771556290379
69.975245780162
69.9674324999847
69.9569356332449
69.9470573959444
69.9410965028524
69.9423503073923
69.9541200519403
69.9797192396
70.022485165561
70.0857936858894
70.1730773546487
70.2878471277628
70.4337179157707
70.6144383702486
70.8324933604004
71.0841970235767
71.3640955323702
71.6666244808113
71.9860663153768
72.3165158957334
72.6518548155951
72.9857352839587
73.3115745293162
73.6225607855088
73.9116719340872
74.1717077993672
74.3953374212987
74.5777112140627
74.7225208366563
74.8354107765383
74.9221906619355
74.9887900368344
75.0412216836815
75.0855541042733
75.1278935587213
75.1743759104836
75.2311684373968
75.3044817474908
75.4005919862182
75.5258162741996
75.6834021840507
75.8718616987116
76.089344776512
76.334021383042
76.6040666730331
76.8976470497463
77.2129070272131
77.5479568491796
77.9008608454693
78.2696265321155
78.6521944862998
79.0464287610411
79.450035533206
79.8604549181075
80.274994145817
80.6908457066805
81.1050839442951
81.5146636687162
81.9164210150479
82.3070767777142
82.6832424481007
83.0414291714972
83.3780598170244
83.6897207845267
83.9755190623204
84.2361735985168
84.4725006312429
84.6853864240581
84.8757818897059
85.0446971274108
85.1931959387399
85.3223903837106
85.4334354348237
85.5275237821862
85.6058990687247
85.670321644785
85.7231085592835
85.7666260479655
85.8032572701942
85.8353978226223
85.8654525682611
85.8958338005343
85.9289607560624
85.967260487211
86.0131701059103
86.0691083901956
86.135264650968
86.208145705338
86.2838963412176
86.3586355167898
86.428455471988
86.4894243598415
86.5375924550537
86.5690019804595
86.5797005614034
86.5657582735157
86.5233014614954
86.4507613630939
86.3513684044246
86.2289788261187
86.0874476833505
85.9306103887353
85.7622677402631
85.5861744205006
85.4060309044976
85.2254786782781
85.0480986470984
84.8774126021067
84.716149040961
84.5630938776076
84.415768737125
84.2717312255534
84.1285730038235
83.9839184549534
83.8354247144777
83.6807830152358
83.5177212963962
83.3440080223939
83.1574571505597
82.9559432101741
82.7378999434237
82.5025666467281
82.2492870839032
81.9774492867736
81.6864884546529
81.3758897623309
81.0451910444796
80.6939853243722
80.3219231552345
79.9287147434165
79.5141318239205
79.0780274759734
78.6233602950271
78.1593715260106
77.6957031874758
77.2415543204369
76.8056988905396
76.3965237288062
76.0220841732145
75.6901755592854
75.4084193186299
75.18436316027
75.0255956262865
74.939876243882
74.9351145560676
75.0133591287651
75.1690739211235
75.3965970907807
75.690550693244
76.0457347487996
76.4570309064789
76.9193138741393
77.4273693618942
77.9758177994257
78.5590435603356
79.1711298752102
79.8057836142916
80.4553682254288
81.1103044355719
81.7602513637267
82.3942058762055
83.0005181103162
83.566940178663
84.0807122629291
84.5286895793851
84.8975124274517
85.1738196698842
85.344507369692
85.4030846287422
85.362230076352
85.2387781494185
85.0499204293439
84.8129113651336
84.544842376501
84.2624863094814
83.9822110161378
83.7199588282472
83.4912878495061
83.3114711974194
83.1949095149385
83.1431639445038
83.1471073452975
83.19750994938
83.285275785929
83.4013504486408
83.5366490147064
83.6820036148309
83.8281307268301
83.9656186589969
84.0849359021758
84.1764662820404
84.2326567632697
84.2513002710758
84.2311073114061
84.1708958556991
84.0696025206869
83.9262932007419
83.7401729849053
83.5105951934053
83.2370693750135
82.9192681170776
82.5570325344472
82.1505084811751
81.7030176667725
81.2208782000777
80.7103829364853
80.1776229890538
79.6284550404086
79.0684783487907
78.5030206550613
77.9371321045685
77.3755862605111
76.8228872941757
76.2832824826264
75.760779217214
75.2588855586719
74.7789638189042
74.3214751586506
73.8868660399248
73.4755765855178
73.0880453915558
72.7247143076936
72.3860332120015
72.0724648105057
71.7844894944044
71.522610291299
71.287357950441
71.0792962061045
70.899007805343
70.7453654882334
70.6141999599633
70.5011270651043
70.4018490986454
70.3121353087823
70.2278077613982
70.1447323390241
70.0588147064605
69.9660011085281
69.8622838741336
69.7437114862546
69.6064030408503
69.446566860685
69.2606350279868
69.0486799041344
68.8149370030809
68.5638166896708
68.2996411055593
68.0266264158914
67.7488706547351
67.4703468495591
67.19490106113
66.9262549585753
66.6680125565562
66.4236707690803
66.1966334792946
65.9902288839651
65.807729943273
65.6517676430911
65.5210661955309
65.4128819583859
65.3245508291624
65.2534750773098
65.1971087022385
65.1529450237354
65.1185063642507
65.0913357205033
65.0689903523538
65.0490372406282
65.0290503830208
65.0066099086731
64.9793029976855
64.9447267498837
64.9012675154735
64.8498946459336
64.792108833385
64.7294047221103
64.663268331431
64.595175173467
64.5265890563871
64.4589615608401
64.3937321756669
64.3323290786743
64.276170549172
64.2266670010671
64.185223628548
64.1532436607387
64.132131889506
64.1227648163503
64.1244119852475
64.136049620107
64.156662469951
64.1852407969445
64.2207776960372
64.2622667371168
64.3086999239312
64.3590659669504
64.412348869832
64.4675268312359
64.5235714654057
64.5794473461965
64.6341118800702
64.6865195095693
64.736102493509
64.7832320718631
64.8283906777789
64.8720639060164
64.9147402579412
64.9569109586837
64.9990698476397
65.0417133434012
65.0853404841634
65.130453044656
65.1775557307028
65.2271564526168
65.2797666787924
65.335901871068
65.3960477667775
65.4600969061395
65.5274332661531
65.5974205387876
65.6694176154475
65.7427781139365
65.8168500293587
65.8909755116397
65.9644907726003
66.0367261256584
66.1070061612743
66.174650061171
66.2389720541695
66.2992820161539
66.3548864099152
66.4053962387095
66.4513535966948
66.4934813957252
66.5325077958213
66.5691654488449
66.6041908994138
66.6383241458976
66.6723083638589
66.7068897939785
66.7428177963223
66.7808450727892
66.8217280597107
66.8662274928697
66.9151091476671
66.9690326025804
67.0276858051414
67.0902520463983
67.1559057927938
67.2238159521123
67.2931451929573
67.3630494683745
67.4326777476525
67.5011719607384
67.5676671598964
67.6312919031986
67.6911688641614
67.7464156713199
67.7961459807573
67.8395389899931
67.8768204664961
67.909041079845
67.9372800717204
67.9626220006406
67.9861556457754
68.0089732555568
68.0321701447893
68.0568446431868
68.0840983979612
68.1150370332653
68.1507711699468
68.192417810226
68.2411020935635
68.2979096537616
68.3629437291599
68.4353951794423
68.5144185166405
68.5991642718449
68.6887774274323
68.7823960542804
68.8791501564347
68.9781607270385
69.0785390204752
69.1793860465926
69.279792293583
69.378837686554
69.4755917890422
69.5691489443309
69.6589311141748
69.7445447598188
69.8255962041287
69.9016900308999
69.9724296032176
70.0374176278515
70.0962567652984
70.1485502848118
70.1939027634601
70.2319208279421
70.262213937554
70.2843952063569
70.2980823590179
70.303373704874
70.301950518698
70.29582499498
70.2870104663461
70.2775192876316
70.2693618728518
70.2645468835439
70.2650825660234
70.2729792369285
70.2902529210216
70.3189301525805
70.361053961912
70.4186910816542
70.4938748166521
70.5866094595254
70.6944799553046
70.814921595873
70.9453488543586
71.0831468989881
71.2256649553394
71.3702115676377
71.5140518279388
71.6544066544574
71.7884542065172
71.913333523116
72.0261504643793
72.123987227287
72.2047893002314
72.2689354259959
72.3172475673798
72.3505740610578
72.3697859460185
72.3757734251671
72.3694424847723
72.3517116932117
72.323509197265
72.2857699310788
72.2394330499341
72.185439598119
72.1247304175943
72.0582829396081
71.9873444706966
71.9132729532972
71.8374168843146
71.7611139473504
71.6856906262491
71.6124623136939
71.5427339041266
71.4778008608497
71.418950748477
71.367465223918
71.3246224817709
71.2917001533727
71.2699761843249
71.2605970357689
71.2645117939123
71.2826669098502
71.3160271097794
71.3655793612057
71.4323371778844
71.517345295912
71.6216847592462
71.7464784595955
71.8928971832192
72.0621662259053
72.2555726474505
72.4744727228432
72.7194627950893
72.988645943259
73.2796236662339
73.5899512210451
73.9171222659287
74.2585549078514
74.6115792304601
74.973426419264
75.3412196387632
75.7119668506708
76.0825557925008
76.4497513604793
76.8102451026984
77.1614804436409
77.5015647965204
77.8285792816437
78.1405608429787
78.4355084773317
78.7113905625671
78.9661533034346
79.19773029714
79.4040532018574
79.5830634700678
79.7327250852168
79.8511595610461
79.9389657685362
79.9990605754279
80.0345251738107
80.0485016691656
80.0441749136211
80.0247566621413
79.9934721872939
79.9535494399407
79.9082108026002
79.8606674500311
79.814116308113
79.7716653633116
79.7347046184119
79.7029165661779
79.6759127244903
79.6533074566994
79.6347175289642
79.6197617066879
79.6080603891614
79.5992352816818
79.5929091045553
79.5887053385165
79.5862480062078
79.5851731828868
79.5854851762782
79.5876217339443
79.5920457702191
79.5992207518983
79.6096109915691
79.6236819954666
79.6419008663803
79.6647367623132
79.6926614118152
79.7261496871501
79.7656802367337
79.8116983913271
79.8632364993572
79.917509927964
79.971601520386
80.0225784751927
80.0674935317694
80.1033883252498
80.1272989317844
80.1362636112782
80.1273327341356
80.0975808512102
80.0441208323642
79.9642293929999
79.8593446462953
79.7361499757799
79.6016188564282
79.4626470353007
79.3260392568868
79.1985078497732
79.0866827724604
78.9971327490876
78.936397237731
78.9110291611368
78.9276485913092
78.9929673018276
79.1089771265073
79.2682694829404
79.4623621671728
79.682708655889
79.9206304685924
80.1672675806278
80.413547566609
80.6501745353755
80.8676391273715
81.0562508635362
81.2061939385256
81.3077691539984
81.3564419566925
81.3538634741845
81.3022268976415
81.2038969977618
81.0613828833914
80.8773109655202
80.6543985639567
80.3954285395731
80.1032252759793
79.7806322734056
79.4304915567414
79.0556293967926
78.6591374198813
78.2445332512547
77.8152803365905
77.3747287805741
76.9261062549502
76.4725119293866
76.0169131765452
75.5621447915569
75.1109104646413
74.6657862522675
74.2292258054673
73.8035671322484
73.3910329127884
72.9928166104744
72.6082731171865
72.2365835090539
71.8769646255551
71.5286664605999
71.1909697839252
70.8631839724244
70.5446450332359
70.2347138023526
69.9327743042206
69.6382322592969
69.3505137278629
69.0690638795554
68.7933551378841
68.5235204664907
68.2607359232302
68.0062388336219
67.7612316921699
67.5268858114919
67.3043453153639
67.0947314569616
66.8991472499122
66.718682406383
66.5544185833344
66.4074349453013
66.2788140596907
66.1696481486946
66.0810457306252
66.0139111384713
65.9673964927359
65.9398557066996
65.9296776321773
65.9352822375683
65.9551126772857
65.9876281922893
66.0312977916465
66.0845946786486
66.1459913968523
66.2139556816699
66.2869470119376
66.363413863313
66.4417916714374
66.5205204738939
66.5990845638037
66.6785636418794
66.7601806228271
66.8451706455838
66.9347821273135
67.0302782895477
67.1329391716495
67.2440641496646
67.3649749823638
67.4970194109456
67.6415753445423
67.8000556704776
67.9739137362961
68.164636969817
68.3722334140833
68.5937353255974
68.8257656052858
69.0648628480551
69.3074715670044
69.5499358512787
69.7884967145319
70.0192934142705
70.2383690290158
70.4416805678473
70.6251138530674
70.7845033593003
70.9156571096937
71.0147802584403
71.0819342689996
71.1194111643791
71.1296154257209
71.1150210728421
71.0781535322586
71.0215729885187
70.9478593857603
70.8595992005949
70.7593740655189
70.6497512849697
70.5332762545053
70.4124667677361
70.2898090857439
70.1673159030987
70.0455167139459
69.9246332027205
69.8048839923805
69.6864847227113
69.5696481413763
69.4545842072529
69.3415002056234
69.23060087482
69.1220885439559
69.0161632814112
68.9130230537798
68.8128638950226
68.7158806685632
68.6231875345523
68.5386676369379
68.4666927449396
68.4116085822436
68.3777536953143
68.3694838131687
68.3912018256921
68.4473936542277
68.5426704691606
68.6818179304156
68.8698533971527
69.1120923854392
69.4142259655429
69.7823472734108
70.2185741556035
70.7178963653937
71.2745690146309
71.8826699052961
72.5359888737348
73.227923633011
73.9513827435349
74.6986971751666
75.4615427661516
76.2308767224082
76.9968921028633
77.748994949651
78.4773656575084
79.1785112049748
79.8507747388401
80.4925379230723
81.1022304027997
81.6783393471564
82.2194189189529
82.7240995662799
83.1910970287349
83.6192209504031
84.0073829931563
84.3546006799095
84.6599433670123
84.9225460584594
85.1416673883934
85.3166968415994
85.447159301837
85.5327185752883
85.5731798392993
85.5684909819832
85.5187428144391
85.4241681539306
85.2851945214129
85.1062049152188
84.8978639159059
84.6712862195818
84.4373914255847
84.2068726349337
83.9901929090037
83.7976081079145
83.6392147422151
83.5250218474764
83.465046508756
83.46943351332
83.5467384088916
83.6926625896227
83.8974267775459
84.1513069221333
84.4445278677621
84.7671564331906
85.1090164933923
85.4596267695349
85.8081627881546
86.1434450096809
86.4539554198938
86.7286202541726
86.9633223028361
87.1579999832654
87.3127556352049
87.4278096356866
87.5034974660277
87.5402659972111
87.5386690515263
87.4993623063475
87.4230976124854
87.3107168046079
87.1634549915935
86.9856043501195
86.7831281472256
86.5619510161392
86.3279117440922
86.0867429193157
85.8440585355007
85.6053491943698
85.3759845032217
85.1612222618506
84.9662240679971
84.7959815774765
84.6518752657486
84.5307668117715
84.429296988525
84.3441680367567
84.2721296498904
84.2099676388629
84.1544951610955
84.1025464307577
84.0509728518313
83.9966415317657
83.9364361420737
83.8681267203287
83.7933023828114
83.7145861627666
83.6345833270119
83.5558797802227
83.4810421121712
83.4126192278597
83.3531455318936
83.305145644713
83.2711406384692
83.2536557943311
83.2551552744826
83.2757775717466
83.3129186711077
83.363828086689
83.4257574119481
83.4959520893839
83.5716449861727
83.6500517798219
83.7283681733352
83.8037689697954
83.8734090415844
83.9344262295082
83.9844986925978
84.0235131219659
84.0519179704999
84.0701712489893
84.0787393831947
84.0780961064304
84.0687213920299
84.0511004296015
84.0257226485079
83.9930807915511
83.9536700413954
83.9080009255631
83.8568237230016
83.8010902023567
83.7417552917251
83.679769697251
83.6160792051608
83.5516242008095
83.4873394019137
83.4241538027931
83.3629908263059
83.3047686802137
83.25040090714
83.2005164773249
83.1547214028186
83.1123924583896
83.072909894427
83.0356569648427
83.0000195485144
82.9653858629889
82.9311462693752
82.8966931675071
82.8614209805491
82.8247262282593
82.7860612146312
82.7465634989356
82.7093460106993
82.6776242145699
82.6546052761811
82.6434935844095
82.6474987574902
82.6698461521089
82.7137899248819
82.7826287344955
82.8797242208733
83.0085224560913
83.1713190484207
83.3631325681323
83.5762646936888
83.8028924072232
84.0350377712527
84.2645486271298
84.4830946556554
84.6821796842229
84.8531710983589
84.9873470474448
85.0759618134398
85.110857586646
85.0921359868245
85.0264307649252
84.9206745337467
84.781859415886
84.6169777216907
84.4329740942774
84.2367092915257
84.034935487203
83.8342827670189
83.6412563691197
83.4622431747913
83.3019626682512
83.1603539263169
83.0364915751336
82.9294829775621
82.8384646418473
82.762598902738
82.7010708505447
82.6530854867558
82.6178650876222
82.5946467595965
82.5826801727379
82.5812085532205
82.5890310736888
82.6044616574627
82.6257919615621
82.6513131906548
82.679314005332
82.7080791365983
82.7358887090852
82.761018277298
82.7817395797669
82.7963220152892
82.8030348434967
82.8004309240395
82.788708540947
82.7686649688716
82.7411021171067
82.7068241830756
82.6666362771528
82.6213432027448
82.5717483932626
82.5186530066899
82.4628551776478
82.4051494261873
82.3463296669619
82.2877666289223
82.2320521401286
82.1819206804075
82.1400950553848
82.1092910261615
82.092223729325
82.0916158930535
82.110207875463
82.1507695769039
82.2161143089846
82.30911474023
82.4324924961245
82.5850639055792
82.7622767579892
82.959438123434
83.1717954380221
83.3945155372323
83.6226690095453
83.8512201039555
84.075022491123
84.2888212170872
84.4872611976797
84.6649018399604
84.8161151678473
84.9349736895224
85.0155182903204
85.0518404450267
85.0381388718866
84.9687833771206
84.8383848375509
84.6418699191523
84.3745587815817
84.0322436956258
83.6112662270941
83.1109032276464
82.5530611295748
81.9710886193641
81.3967850317618
80.8602236036558
80.3899465378215
80.0133613066219
79.7573174262049
79.6488575250947
79.7161558172328
79.9896820041536
80.5036618394204
81.288799602729
82.3162094356652
83.5280933203159
84.8614112367885
86.2452523257534
87.5990070998317
88.8318202719483
89.843804383152
90.5294864900626
90.783762165856
90.5104835196542
89.6799567074444
88.3831665905493
86.7311296938537
84.8325895871213
82.7876232041835
80.683968150792
78.5956710571242
76.5834525402086
74.6961806705772
72.9729535496038
71.4454402798603
70.1402740913199
69.0814128369023
68.2923994602399
67.7792788634697
67.5083783769417
67.4460759381152
67.5632337147716
67.8335222666808
68.2320913349301
68.7344881971769
69.3157676990631
69.9497701334576
70.6085685473584
71.2621077640999
71.8780734777645
72.4220397087987
72.8638244588383
73.2012838937463
73.4418943970853
73.594211727556
73.6676450822449
73.6722390310467
73.618470681074
73.5170691504614
73.3788623723254
73.2146543217168
73.0351340985993
72.8508169932609
72.6720167460126
72.5082410687879
72.3629925165935
72.2364736181744
72.1288744604806
72.0404104711244
71.9713237965275
71.9218847977069
71.8923936760657
71.8831822428805
71.8946158476836
71.9270954824518
71.9810600804713
72.0569890309696
72.1553812981269
72.2758930153364
72.4170751086267
72.5774160852575
72.7554068425668
72.949532522953
73.158264971125
73.3800557767067
73.6133298983464
73.8564798776091
74.1078606622161
74.3657850686403
74.6285199236449
74.8943005932006
75.1616215579526
75.429198913874
75.6957203969868
75.9598369520455
76.2201630288049
76.4752773891874
76.7237244586573
76.9640162538375
77.1946349161752
77.4140358781893
77.6206516844306
77.8128972923223
77.9893116802085
78.1487204573365
78.2899914819468
78.4120029836463
78.5136486223004
78.5938428016383
78.6515262039848
78.6856715069302
78.6952892372765
78.6794337123593
78.6372090140059
78.5677749360614
78.4712388468573
78.3512971964087
78.2125296028187
78.059484896693
77.8966623351743
77.7284981744439
77.5593574680904
77.393530907931
77.2352364983622
77.0886258534502
76.9577949258962
76.8467990170264
76.7594897807502
76.695538197433
76.6504807094585
76.6197255475575
76.5987154703104
76.582913459265
76.5677938556006
76.548838872679
76.5215404496283
76.4814074152197
76.4239779090636
76.3448369590454
76.2396390408442
76.1053471613244
75.9454345340402
75.7654821251948
75.5710090198945
75.3674467735613
75.1601232569835
74.954254338422
74.7549430225007
74.5671856423647
74.3958847208239
74.2458681736593
74.1219146203367
74.0287846915367
73.9699321737169
73.9424793430728
73.9417140010419
73.962989074987
74.0016923590846
74.0532218298457
74.1129667484911
74.1762944835668
74.2385430712853
74.295019585276
74.3410044115121
74.371761517381
74.3825548055392
74.3701152858617
74.3364758656779
74.2848959658284
74.2186464958221
74.1409956097479
74.055197343016
73.9644831431663
73.8720562715439
73.7810890269764
73.6947227275404
73.6160703817183
73.5482219852924
73.494252394745
73.4567789333125
73.4364397227295
73.4333489190149
73.447644802523
73.4794904509765
73.529074491624
73.5966119533444
73.682345225081
73.7865451278315
73.9095121083579
74.0515775638103
74.2131053076073
74.3944929225519
74.594862713275
74.8089675374116
75.0305427802791
75.2531796425539
75.4703167715447
75.675243074431
75.8611123938932
76.0209706682579
76.147796045788
76.234552169197
76.2742544890366
76.2600490065692
76.18555956062
76.0515864282148
75.8666087470479
75.6395468123633
75.3792806660996
75.0945649765218
74.7939651741659
74.4858143198209
74.1781896762979
73.8789076570553
73.5955357127285
73.3354197678407
73.1057260107383
72.9134329892191
72.7610554800191
72.6439809289385
72.5570969028571
72.4954214977642
72.454065501756
72.4282017728956
72.413041404083
72.4038164031915
72.3957687326467
72.3841456314259
72.364201185796
72.3312041237318
72.280451814802
72.208458595606
72.1160450754988
72.0050230466664
71.8772140217532
71.7344405693513
71.5785185623072
71.4112503622978
71.2344189489172
71.0497829883053
70.8590728251975
70.6639873732097
70.4661918711383
70.2673164679668
70.0689501526189
69.8723447509262
69.6782718123482
69.4874485320988
69.300576560924
69.1183428587211
68.9414206739547
68.7704706421953
68.6061419980369
68.4490738956584
68.2998968343591
68.1592341865298
68.0277038267122
67.9059198616503
67.7944937325639
67.6938549070968
67.6040173871659
67.5249456160267
67.4566140302402
67.3990070397378
67.3521190310951
67.3159543941126
67.2905275719078
67.2758631348246
67.2719958785746
67.2789709471327
67.296843981024
67.3256812917602
67.3655600633037
67.4163075824817
67.4764984781501
67.5443246917561
67.6179693719921
67.6956032751363
67.7753820568167
67.8554445487461
67.9339120418996
68.0088886005064
68.0784624317979
68.1407083345896
68.193691245362
68.235470893472
68.2641075674129
68.2781432743605
68.2789049104593
68.2687382967801
68.249999996393
68.2250492110595
68.1962426821695
68.1659312230752
68.1364578797798
68.1101577092602
68.0893591617389
68.0763870549078
68.0735671343779
68.0832322254567
68.1077299967559
68.1490956709509
68.2067489661411
68.278875866888
68.3636591952282
68.4592786392157
68.5639043598071
68.675691549871
68.7927759501437
68.9132703382562
69.035262016195
69.1568113286657
69.2759512496908
69.3906880772553
69.499003275735
69.5992804474351
69.6917574787942
69.7771946952884
69.8563649665275
69.9300522196582
69.99905012532
70.0641609499682
70.1261945814446
70.1859677336949
70.2443033356961
70.302030108997
70.3599823377773
70.4189998350276
70.4799158785867
70.5428868742398
70.6070393465057
70.6714080518142
70.7350207184791
70.7968981054848
70.8560543318152
70.9114974811314
70.9622304860779
71.0072522956324
71.045559327719
71.076147207759
71.0980127919504
71.1101564718439
71.1122065905454
71.1078002162048
71.1021618163948
71.1005177506433
71.1080943518561
71.1301276434872
71.1718807816795
71.2386693446469
71.3358947249854
71.4690860663952
71.6439514303013
71.8664391896013
72.1428110407989
72.4791906136815
72.8726989863262
73.3124128749351
73.7867659210563
74.2836585410064
74.7903514393192
75.2933980689944
75.7786219420857
76.2311455178982
76.635477504235
76.9756646031746
77.2355118299624
77.3988901398593
77.4572022379576
77.4205986198007
77.3027273038165
77.117644431018
76.8795489454044
76.6025666099661
76.3005864074691
75.9871494954122
75.6753888120976
75.3780161753223
75.1073532205721
74.8754027022373
74.693859584495
74.567519673542
74.4901550932679
74.4547601622038
74.4545134303254
74.4827071697629
74.5326900132363
74.5978219397389
74.6714411983762
74.7468430557978
74.8172704568797
74.8759168038705
74.9159410845682
74.930712781634
74.9186296146131
74.883137392561
74.8279340660891
74.7567313733487
74.6732372724525
74.5811420571481
74.4841081710939
74.3857636862977
74.2896993769835
74.1994693010963
74.1185947972763
74.0505718147499
73.9987609265931
73.9641190236887
73.9454083540491
73.9413325510131
73.9506142496317
73.9719902524994
74.0042071711307
74.0460175201905
74.0961762479195
74.1534376914091
74.2165529500281
74.2842676743343
74.3553202712367
74.428433296189
74.5022212913698
74.5752168392275
74.6459394791991
74.7128978480746
74.7745908580915
74.8295094818995
74.8761391518407
74.9129627774778
74.93846438072
74.9511333422652
74.9494692464136
74.9319873036857
74.8979171541226
74.85142608684
74.7987996958221
74.7463029986305
74.7001669323638
74.6665938092947
74.6517730841563
74.6619073817135
74.703248879172
74.7821463566923
74.9051035253232
75.0788496243946
75.3104230813281
75.6038860848657
75.9523559543931
76.3465486338239
76.7769420745595
77.2336648160992
77.7064066674543
78.1843536635284
78.6561503880803
79.1098934249064
79.5331600513145
79.9130762347682
80.2364301079097
80.4940790170122
80.6899063392645
80.8306364338787
80.9233442682603
80.9753640624713
80.9942083851519
80.9874994622301
80.9629139065527
80.928141600594
80.8908590860604
80.8587175454813
80.839330246764
80.8377602232891
80.8537000044551
80.8861778109606
80.9342398304087
80.9969463850053
81.0733683618693
81.1625838876921
81.263675233003
81.3757259345013
81.49781812685
81.6290300780141
81.7684130100108
81.9144479161405
82.0649853472586
82.2178148187268
82.3706931669248
82.5213437590049
82.6674569448133
82.8066917987342
82.9366791969593
83.0550262702659
83.1593222636124
83.2471458215907
83.3168425528842
83.3704857686651
83.411300969429
83.4425408078835
83.4674761237082
83.4893897228548
83.5115727152709
83.5373234361364
83.5699489679055
83.6127692812113
83.6691240221438
83.7423475692931
83.8348921207884
83.9482512586345
84.0839128802403
84.2434166976305
84.4283624645783
84.6404190394155
84.8813343854877
85.1529466292172
85.4571963167528
85.7961400348566
86.1718844419967
86.5809391965975
87.0102341509493
87.4453103055069
87.8711261112167
88.2720566994817
88.631947784686
88.9342291130651
89.1620911270474
89.2987263069601
89.3276334020099
89.2340743676446
89.0233729731638
88.71774521145
88.3400408014791
87.9128104540763
87.4580085640256
86.9968123318918
86.5495500440584
86.1357287706165
85.7741514637794
85.4831149925476
85.2804983109415
85.1713346692281
85.1399527051838
85.1692439773219
85.2423681702795
85.3425457128865
85.4529175118686
85.556470857824
85.6360323428555
85.6743293080344
85.6541208841707
85.5584025613307
85.377755980882
85.1247171495854
84.8159435979521
84.4679023315325
84.0966924351795
83.7179324295022
83.346708997108
82.9975824591673
82.6846440996061
82.4216209708842
82.2220250450352
82.0990446866265
82.0548232497241
82.0775396468026
82.1547761589158
82.2742755325765
82.4237953161779
82.5909989936752
82.7633834240626
82.9282432404346
83.0726735535458
83.1836125237429
83.2479250786669
83.254479303415
83.2037275797744
83.1004662946944
82.9496621497296
82.756388062555
82.5257698603554
82.2629387782862
81.9729902154366
81.6609489768005
81.3317410364259
80.9901716976778
80.6409099025499
80.2882213081053
79.9351104615631
79.5841746887505
79.2379211225091
78.8987698580774
78.5690585485801
78.2510483165641
77.9469308643674
77.6588366840888
77.388844287917
77.1389904012656
76.9112810843602
76.7076370739442
76.5281979789486
76.3712209661075
76.2349331369415
76.1176193664273
76.0176135579098
75.9332908279617
75.8630605418639
75.8053601347136
75.7586496654851
75.721407061938
75.6921240233172
75.6693025554738
75.6517184281995
75.6402426867021
75.6367352423911
75.6430655026656
75.6611109259353
75.6927623701852
75.7399304125374
75.804552678378
75.8886022333169
75.9940971085439
76.1231110504123
76.2777856087719
76.4603256020041
76.6699565494078
76.8993885945051
77.1403502775403
77.3843738944725
77.622777856483
77.8466679957176
78.0469590528249
78.2144174853416
78.3397264332132
78.4135731528296
78.4267584785418
78.3703269019367
78.238740759905
78.0401751562127
77.7866291088306
77.4900761681119
77.162319065075
76.8148819492586
76.4589392376073
76.1052790930596
75.7642989203707
75.4460300618438
75.1601890372668
74.9162531410227
74.7235532142182
74.5872668017119
74.5013310520011
74.4580059628584
74.4497512566395
74.469147892557
74.5088355238987
74.5614649988027
74.6196654678127
74.6760259966696
74.7230917959888
74.7533752719663
74.7593820720397
74.7337048097969
74.6737863729279
74.585644792366
74.4761891389035
74.3522945612706
74.2207697615581
74.0883372124361
73.9616258089198
73.8471755456866
73.7514538031228
73.6808829056319
73.6418787792924
73.6409007800991
73.6844736115252
73.7745112748789
73.9037830777969
74.0640193066109
74.2468958498956
74.4439724847135
74.6466496426189
74.8461443009046
75.0334859766943
75.1995339486281
75.3350167742707
75.4305948908707
75.4769465668826
75.4652846994641
75.3951976537461
75.2740087563449
75.1094558770344
74.9093159646349
74.6813254870096
74.4331170829243
74.172172482099
73.9057912806423
73.6410748338481
73.3849243407587
73.1440521330783
72.9250052305608
72.7341342319969
72.5740362898482
72.4418172243646
72.3342339161649
72.2481337187877
72.1804345413627
72.1281079355939
72.0881649756249
72.0576447762143
72.033605540436
72.013118064014
71.9932616502005
71.9711224073185
71.943793911007
71.9096395179267
71.8720638528476
71.835716022891
71.805226759781
71.785213006398
71.7802884430194
71.7950799467627
71.8342500507557
71.902525575336
72.0047327440978
72.1458392766098
72.3310041732412
72.5656361850662
72.8542122323241
73.191651372975
73.5681362074127
73.9735280724819
74.3972923786517
74.8284234516385
75.2553990302843
75.6661681587403
76.0481766596923
76.3884343689098
76.6736277465145
76.8902802617799
77.0250966097611
77.0745971533867
77.0514260715335
76.9701018231599
76.8453330297932
76.6918260540769
76.5241485240862
76.3566492099219
76.2034329366655
76.0783883945092
75.9952667395887
75.9678097084318
76.0099275533625
76.134547685392
76.3402627611869
76.6169389659333
76.954429393373
77.3425191849527
77.7707675084664
78.2283749515535
78.7040772464679
79.1860676738104
79.6619516611766
80.1187379454623
80.5428711187078
80.9214413346666
81.2501704158293
81.5291086681103
81.7585447743738
81.938974889832
82.0710943801589
82.1557877921044
82.1941172689043
82.1873096421932
82.1367424449041
82.0439290958408
81.9105036535434
81.7389237383176
81.5340946867068
81.3014084228167
81.046206702787
80.7737495165498
80.4891907061805
80.197560588708
79.9037552620926
79.6125322031458
79.3285117322443
79.0561839179212
78.7999205207303
78.5631852688663
78.3446957703403
78.1415326901298
77.9508506882633
77.7698704911596
77.5958707791987
77.4261821232204
77.2581828598159
77.089296811079
76.9169927644847
76.7387856332713
76.5522392175571
76.3550169698091
76.1480806593276
75.9376633531838
75.7303528424389
75.5325946822476
75.350703896366
75.1908871961984
75.0592752508304
74.9619647381476
74.9050701657394
74.8947857744339
74.9374582328395
75.0396713106195
75.2078948015719
75.4400147045511
75.7258060262011
76.0546562451408
76.4157301019934
76.7978554811898
77.1894390313274
77.578414013291
77.9522237750527
78.2978447620864
78.6018529958942
78.8505373923796
79.0302325915983
79.1351059089251
79.1704320700115
79.1426854155794
79.0586450743706
78.9252934449438
78.7497244014037
78.5390629052742
78.3003970901742
78.040723339149
77.7669044163771
77.4856403558393
77.2034515516881
76.9258866554598
76.654565607556
76.3899349553678
76.1324295330275
75.8824736793278
75.6404822521201
75.406861672266
75.1820109959669
74.9663230148141
74.7601853834243
74.563981775045
74.3780930660438
74.2028985507246
74.0383507626892
73.8827116703236
73.7338551249384
73.5896925630374
73.4481696144008
73.3072639070869
73.1649840192218
73.0193695316098
72.8684921367099
72.7104577585801
72.5434096351941
72.3655323092861
72.1750564668014
71.9706285466925
71.7548472688058
71.5326324754831
71.3088252244704
71.0881488716524
70.8752109663073
70.6745111784538
70.4904548881041
70.3273721280898
70.1895416611799
70.0812200863041
70.0066760070927
69.9702294595807
69.9762969878051
70.027601383711
70.1189375730665
70.2429602209107
70.3923240320941
70.5596219624729
70.7373385627988
70.9178187538299
71.0932526206112
71.2556770294268
71.3969949402126
71.5090131960628
71.5834993058403
71.6122572860783
71.5876671001485
71.5100888781762
71.386669664127
71.2248636536888
71.0321365422984
70.815894845202
70.5834310457139
70.3418844551859
70.0982172658408
69.8592050152363
69.6314405503053
69.4213505669872
69.2352238943834
69.0792508771356
68.9591139832632
68.8749766568403
68.8234434234176
68.8011711917868
68.8049057129522
68.831455510036
68.8776691936523
68.9404159087267
69.0165687428046
69.102990996295
69.1965252734541
69.2939854001811
69.3921512112895
69.4877662758366
69.5778994215115
69.6619180876936
69.7401105077372
69.8127731475088
69.8802079301967
69.9427217653542
70.0006260987298
70.0542364845412
70.1038721816944
70.1498557753038
70.1925128247276
70.2321715391949
70.2691624819793
70.3038189286166
70.3366323436501
70.3684579988712
70.4002053966447
70.4327873567886
70.4671201186283
70.5041236812857
70.5447223847808
70.5898457350304
70.6404294766135
70.6974169182298
70.76176051713
70.834423730449
70.9163831433523
71.0084695829658
71.1095768151552
71.2172931430434
71.3291583523435
71.4426829873291
71.5553461995232
71.6645953455381
71.7678473920538
71.8624921847596
71.9458976313257
72.015416835858
72.0683972035787
72.1021915095894
72.1142023397329
72.1036174827623
72.0723060541126
72.0223869153922
71.9559984792247
71.875288412075
71.782404577397
71.6794872571682
71.5686626689965
71.4520377782598
71.3316963902907
71.2096964964846
71.0880688403217
70.9688166645372
70.8538150514508
70.7441968352182
70.6407724140136
70.5443440062954
70.4557084630477
70.3756590006926
70.3049871068383
70.2444846207471
70.1949459923213
70.1571707254878
70.1319660141422
70.1201495813126
70.1225527349474
70.1400232799804
70.1731560121448
70.2218119483787
70.28574215279
70.3647157412277
70.4585187897604
70.5669533105634
70.689836288626
70.8269987732298
70.9782850186303
71.1435516688026
71.3226669814891
71.5155100871264
71.7219702785252
71.9418880173778
72.1746002635167
72.419171686761
72.6746470455223
72.940049877396
73.2143792469775
73.4966067073132
73.7856734888186
74.0804879332353
74.3799231937897
74.6828152261321
74.987961097824
75.2941176470588
75.5995861004763
75.9009416489438
76.1942313458535
76.4753869919047
76.7402346894422
76.9845090918544
77.2038725780644
77.3939395075266
77.5503056113187
77.6685824497732
77.7444367178857
77.7736340094309
77.7525779637927
77.6837899989078
77.5738746735216
77.4295790655098
77.2576575589427
77.0648189523652
76.8576854669579
76.6427635715145
76.426426290053
76.2149064941911
76.0143006015837
75.8305820969631
75.6696243561539
75.535723215304
75.426550970102
75.3380450144365
75.266218008051
75.2071382029111
75.1569140719294
75.1116831110702
75.067604693888
75.0208568977252
74.9676372432585
74.9041672944831
74.8267010550319
74.7315402699871
74.6173600846603
74.4892492857741
74.3533351580783
74.2156654601304
74.0822010287865
73.9588181106714
73.8513200666662
73.7654581444373
73.7069611231429
73.6815738010818
73.6951045209773
73.753482211953
73.8628185167933
74.0256593723178
74.234167380172
74.4786732575157
74.7493656503874
75.0362056772031
75.328866775114
75.616701402275
75.8887367089059
76.1337015403943
76.3400870281822
76.4962425074481
76.5905075326646
76.6120842240812
76.5613252832199
76.4474164532029
76.2800041686617
76.0688254427835
75.823586854256
75.5538684068093
75.2690525517292
74.9782777862264
74.6904156371119
74.4140694988132
74.1575936936195
73.9291312308599
73.7362583434561
73.5802000246257
73.4573673254977
73.3641805232211
73.297171182977
73.2529560424566
73.2282145579534
73.2196698156428
73.2240725942741
73.2381884332796
73.258787615067
73.2826380132391
73.3065007904135
73.3272551432476
73.3446774306673
73.3614494934932
73.3803847867608
73.4043028430764
73.4360320230846
73.4784144496968
73.5343131564646
73.6066215002126
73.6982749153447
73.812265122636
73.9516569496156
74.1196079740036
74.3191820858929
74.5499099644775
74.8082426646295
75.0904883743222
75.3928829215024
75.7115657335057
76.0425592626109
76.381752096848
76.7248860620764
77.0675476944616
77.4051645192536
77.7330066088098
78.046205611328
78.3411839935306
78.6170787276629
78.8733619238106
79.1095293949759
79.3251026889824
79.5196310645
79.6926933972695
79.8439000026883
79.9728943611597
80.0793547329881
80.1629956501526
80.2235882449233
80.2626619509891
80.2848567343609
80.2951659156166
80.2986021160727
80.3001855506711
80.3049385745479
80.3178865075186
80.344064748577
80.388532213405
80.4563911821162
80.5528137328374
80.6829803616191
80.8479064443793
81.0427030430622
81.2620108773066
81.5004000167147
81.7523394256389
82.0121735483672
82.2741062669499
82.5321926823946
82.7803392470824
83.012312806821
83.2217590888473
83.4033236647121
83.5586690514213
83.6923418710493
83.8089959529334
83.9133639641764
84.0102409603861
84.1044732073976
84.2009524688759
84.3046159150208
84.4204517943048
84.5535110247036
84.7087186460553
84.8863365028255
85.0818772528953
85.2905851840167
85.5076236210639
85.7280620532475
85.9468687202835
86.1589089442912
86.3589495192002
86.5416694654915
86.7016774222816
86.8336388001938
86.9354516262826
87.0088851008077
87.055999526633
87.0789150983412
87.0797995018454
87.0608563692787
87.0243146923922
86.9724192753968
86.9074222872863
86.8315759546195
86.747105590124
86.6552841503929
86.5560749354123
86.4493498857534
86.3349864373165
86.2128677550641
86.08288296207
85.9449273630648
85.7989026616516
85.6447171703687
85.4822860127812
85.311531687144
85.1326512533021
84.9465799030994
84.7543671578994
84.5570478084526
84.3556406651369
84.1511475707047
83.944552666263
83.7368219004372
83.5289027711513
83.3217242891911
83.1161971526781
82.9132377632893
82.7141548699533
82.5205792304869
82.3341230994459
82.156371730627
81.9888866416165
81.8332094411251
81.690866203789
81.5633723837823
81.4522382660214
81.3589749619556
81.2851009659957
81.2316710191433
81.1956043285734
81.1717156290431
81.1548288063451
81.1397823969856
81.1214239570722
81.0946109894807
81.05421839374
80.995152380856
80.9123707387682
80.8009092444053
80.6559138974715
80.4736768315607
80.2570466368976
80.0114255997132
79.7421705848231
79.4545531777824
79.1537335903447
78.8447417431924
78.5324651891338
78.2216434614788
77.9168683915813
77.6225899324095
77.3431270470435
77.0826068619499
76.842217117521
76.6195234887916
76.4119339488782
76.21692773888
76.03204609547
75.8548847517275
75.6830880971275
75.5143449015676
75.3463855224725
75.1769805238758
75.0039406423192
74.825118036782
74.6385603615141
74.4449887790338
74.2473369190682
74.0485502273193
73.8515126130451
73.6590470864542
73.4739185744827
73.298838797577
73.136473103459
72.9894491731241
72.860367538993
72.7518138849129
72.6663731324655
72.6066036243659
72.5727729217232
72.5616999513584
72.5699643929806
72.5941777045603
72.6309666181945
72.6769598424246
72.7287779073147
72.783026134543
72.8362907483798
72.8851381648694
72.9261175056627
72.9557663794829
72.9706262775685
72.9688286790978
72.952176257848
72.9230016590277
72.8836447428657
72.8364453314337
72.7837374552166
72.7278451061848
72.6710794906901
72.6157377661475
72.5641032401529
72.5184470093221
72.4810310176261
72.4541125202301
72.4393908937895
72.4358756108489
72.4417743477212
72.4553018101675
72.4746756948231
72.4981133689029
72.5238294271108
72.5500341249303
72.5749326916245
72.5967255286098
72.6136092993847
72.6237789158562
72.6254304227059
72.6169588500796
72.598644898897
72.5718283806858
72.5378634270331
72.4981039523476
72.4539012526348
72.4066021114661
72.3575474118635
72.3080712502642
72.2595005469717
72.2131551465207
72.1703484011814
72.1323882313631
72.1005535716109
72.075182014492
72.0554136123831
72.0403149917375
72.028956412131
72.0204106814238
72.013752312335
72.0080569183612
72.0024008477544
71.9958610547985
71.9875152078916
71.9764420339515
71.9617218984192
71.9424376352548
71.9177521839144
71.8870870019806
71.8499209131743
71.8057382847149
71.7540300037606
71.6942945172362
71.6260389307167
71.5487801614361
71.4620461398835
71.3653770538384
71.2583266280874
71.1404634324722
71.0113722103473
70.8707161533939
70.7193864834015
70.5593814950353
70.3927138676551
70.2213645167133
70.047279643677
69.8723689148683
69.6985047198319
69.5275224573528
69.3612217972085
69.2013688679557
69.0496993252916
68.9079222616079
68.7777249251069
68.6606960193107
68.5569863171182
68.4655484283993
68.3853207043031
68.3152624525751
68.2543507156856
68.2015773996522
68.1559467345894
68.1164730515243
68.0821788630336
68.0520932378444
68.0252504617195
68.0006889787523
67.9774506086434
67.9545945579405
67.9316393260308
67.908642035916
67.8856904571956
67.8628721224846
67.8402743299205
67.8179841479141
67.7960884221298
67.7746737846795
67.7538266655172
67.7336333060204
67.7141797747476
67.6955519853623
67.6778357167143
67.661122224032
67.6461786226182
67.6350832541196
67.6300634609692
67.6333478812265
67.6471711902597
67.6737803278955
67.715442241046
67.7744531914258
67.8531497022301
67.9539212470142
68.0792248191894
68.2316015624674
68.4136956925009
68.6282607646469
68.8763420817703
69.1554638477298
69.4627211595942
69.7951611606683
70.1497575443994
70.523387176876
70.9128089205467
71.3146448290651
71.7253639655251
72.1412691729747
72.5584871953694
72.9729626065971
73.3804579166728
73.7773112769376
74.1616498960436
74.5318503165933
74.8862528543571
75.2231672597752
75.5408791968556
75.8376575450607
76.1117625173662
76.361454573726
76.585004093838
76.7807017566018
76.946869556264
77.0821629007728
77.1884380295652
77.2695648614995
77.3295296862186
77.3723839769953
77.4022242948074
77.4231763269313
77.4393832145256
77.4549982625929
77.4741820834064
77.5011042017408
77.5399491474774
77.5948833733813
77.6670448239511
77.7525603142925
77.8470704141224
77.9461814756972
78.0454578167782
78.140418875963
78.2265414665266
78.2992672568441
78.3540155823557
78.3862016448602
78.3912600791674
78.3646741886174
78.3040853907746
78.2141077440935
78.1008072705805
77.9702310619854
77.8283763350922
77.6811689193436
77.5344510032657
77.3939778591703
77.2654232181532
77.1543929760023
77.0664469715247
77.0071286888187
76.9815170212499
76.9873023068921
77.016416011188
77.0606631301077
77.1118368948938
77.1616952043515
77.2019545783073
77.2243018269402
77.2204236055073
77.1820538380292
77.1010386465785
76.969417921017
76.7795238512644
76.5269649009671
76.2164050777722
75.8542728636378
75.4470162329151
75.0010273624766
74.5225784032514
74.0177685249098
73.4924820492249
72.9523571742261
72.4027645602694
71.848794895382
71.2952544721917
70.7466677821067
70.2072648368501
69.6804555721872
69.1688417556607
68.6748399613344
68.2007285547091
67.7486641736127
67.3206990337134
66.918798931449
66.5448618688128
66.2007372747299
65.8882458471367
65.6092000890682
65.3654256620607
65.1587837322864
64.9911945406619
64.8642979989855
64.7759272349403
64.7216880644516
64.6972973475636
64.6985752952697
64.7214096805543
64.7617257837387
64.8154617200552
64.8785489452943
64.946897852955
65.0163884660597
65.0828662896928
65.1421434263523
65.1900050646486
65.2222214317041
65.2354898404769
65.2305931152928
65.2094591691027
65.1740372300686
65.1262887316723
65.0681793640274
65.0016722940786
64.9287225749384
64.8512727490324
64.7712496371569
64.6905622960443
64.6111011205443
64.5347380629907
64.463327941608
64.3987107754555
64.3425371243903
64.2958614322709
64.2596174923328
64.2347442977749
64.222189265452
64.2229117590917
64.2378869303077
64.2681099004804
64.3146003119509
64.378407283029
64.4606148081644
64.5623476524196
64.6847777982965
64.8291315132136
64.996680833745
65.1872849470201
65.3981812907225
65.6262931242123
65.8684810108026
66.1215266149117
66.382119318811
66.6468458446083
66.9121831200165
67.1744946679462
67.4300308280605
67.6749331307635
67.9052431379782
68.1169160377414
68.3058574020599
68.4710140889651
68.6179266695191
68.7531102862387
68.883203368699
69.0149519139861
69.155206668476
69.3109337707724
69.489239453486
69.6974095567329
69.9429648905043
70.233733913297
70.5779447961292
70.9843397528281
71.4611552042992
72.0059821636096
72.6100468349851
73.2640967353984
73.958303144737
74.682113472345
75.4241256758051
76.1719900755972
76.9123455702452
77.6307986444559
78.31195449248
78.9395098130784
79.4970578896772
79.9776809656632
80.3825494312836
80.7136256338646
80.973416376784
81.1649213588411
81.2915766625046
81.357195116314
81.3659052983156
81.3220908242739
81.2303313907014
81.0953468337824
80.9222598974874
80.7189530014482
80.4946328674793
80.2583643878852
80.0190233762365
79.7852814097314
79.5656099689108
79.3683027448474
79.201515113666
79.0733200598738
78.9917802508505
78.9650365204678
79.0007950997608
79.0975508129859
79.2465977736747
79.4391272544078
79.6663167016099
79.9192403390564
80.1887989636832
80.4656693275252
80.7402740845099
81.0027736859078
81.2430818147008
81.4509059300482
81.617262441656
81.7434533426767
81.8353973485972
81.8991842578215
81.9410106019582
81.9671416646593
81.9838826827507
81.9975595589936
82.0145092621705
82.0410799971374
82.0836411970497
82.1485992879219
82.2394270009122
82.3513474266957
82.4781385698801
82.6135219401494
82.7511443292741
82.8845691526295
83.007277659975
83.1126803461332
83.1941388523073
83.2449985394058
83.2586317334853
83.2289101098924
83.1562576384874
83.0462333203077
82.9045831863679
82.7370591669592
82.5493800681603
82.3472006086532
82.1360884846063
81.9215092765984
81.7088189062013
81.5032632889821
81.3099848121388
81.1336349547014
80.9756684157362
80.8360644031303
80.714816346792
80.6119409216955
80.5274783200602
80.46149260122
80.4140721219834
80.3853300508139
80.3754049697288
80.3844615684243
80.4126914358005
80.4597819475685
80.5220172280537
80.5943182812544
80.6715766352575
80.7486481006188
80.8203496459935
80.8814628853577
80.9267442958886
80.9509422487694
80.948820861342
80.9151905680197
80.8449451603968
80.7340574249978
80.5828293930938
80.3928223335951
80.1656885528122
79.9031571878537
79.6070201676814
79.2791184765216
78.9213288680815
78.5355511592723
78.1236962116339
77.6876746879797
77.229386651482
76.7509016964587
76.2585566664726
75.762663510423
75.2732075152951
74.7996670926563
74.3510499771129
73.9359506602538
73.5626264535587
73.2390902942994
72.9732192583456
72.7728787087583
72.6460630970466
72.601055677445
72.6465284511626
72.7843436743894
73.0036477071933
73.2925114976492
73.6390470803014
74.0311899631293
74.4565185645075
74.9021110469671
75.3544422208751
75.7993250504891
76.2219026153769
76.6066970270241
76.9377215955491
77.2005760860331
77.3944818585545
77.5249701825689
77.5980148170614
77.6199136917286
77.5971999921055
77.5365614688882
77.4447696224997
77.3286198976359
77.1948835590742
77.0502715286646
76.9014101555426
76.7547903331685
76.614127803852
76.4787127986982
76.3474433564072
76.2192337141519
76.0930132289921
75.9677256129222
75.842328470345
75.7157931275574
75.5871047442703
75.4552626972861
75.3192812262469
75.1781903308665
75.0310964981815
74.8783072541636
74.7212151473303
74.5612324978387
74.3997490716493
74.2381313889877
74.0777225491931
73.9198425496731
73.7657890769794
73.6168387490351
73.4742487892273
73.3392591153665
73.2130948293657
73.0969471861731
72.9911802368124
72.8951180520364
72.8080313255855
72.7292041522693
72.6579323511547
72.5935219469037
72.5352878012336
72.4825523876872
72.4346447039736
72.390899317079
72.3506555371644
72.3132567169706
72.2780497282375
72.2444237010029
72.2118786351254
72.179934991172
72.1481149717281
72.1159424714962
72.0829430904712
72.0486442095997
72.0125751283072
71.9742672632207
71.9332544073197
71.8890730486307
71.8412627474187
71.7893665706496
71.7330803250631
71.6733957831076
71.6119637282662
71.5504296795398
71.490427971767
71.4335821049316
71.3815058318105
71.3358049723735
71.2980799461409
71.2699290178399
71.2529522571729
71.2487562203182
71.2589593689769
71.2851818998943
71.3275866182997
71.3837111737665
71.4508212004441
71.5261734879444
71.607008512102
71.6905450582539
71.7739769669219
71.8544720459744
71.9291732006461
71.9952018329316
72.04966355451
72.0896562422333
72.1122804421156
72.115456682864
72.1006673980737
72.07039022009
72.0271167745145
71.9733428558213
71.9115603415803
71.8442508397963
71.7738810699734
71.7028999626461
71.6337374513309
71.5688049250398
71.5104973085272
71.4611967411387
71.423180008188
71.3967735842201
71.3805176328587
71.3728973717629
71.3724063641437
71.3775431926525
71.3868087751296
71.3987043142424
71.4117298772407
71.4243836051152
71.4351615524017
71.4425581597089
71.4450673607766
71.4411845777156
71.4298098415416
71.4110617569594
71.3852916989912
71.352854332538
71.3141069405262
71.2694087838264
71.2191204944511
71.163603503286
71.1032195033664
71.0383299494769
70.9692955946375
70.8964760638364
70.8202294651787
70.74093627508
70.6594568818268
70.5770879289222
70.4951307819313
70.4148747875909
70.3375976941702
70.2645665351351
70.1970389659786
70.1362650458083
70.0834894576645
70.0399541645648
70.0069015019376
69.9855777114042
69.9772369258482
69.9830558176152
70.0035900443945
70.0391382818609
70.0900183307917
70.1565695500176
70.2391542871892
70.3381594210139
70.4539980262542
70.5871111740086
70.737969881187
70.9070772246638
71.0949706373767
71.302224405656
71.5294429204705
71.7768409697924
72.0440621167219
72.3307190599908
72.636434258512
72.9608370504067
73.3035608097354
73.664240126233
74.0425079948004
74.4379930028907
74.8503165052845
75.2790897770975
75.723911137227
76.1843199368436
76.6594123753255
77.1479990767088
77.6488245886262
78.1605640151901
78.6818173450042
79.2111040839548
79.7468582615967
80.2874238904338
80.8310509678169
81.3758921203178
81.92
82.4600707256428
82.9875487382635
83.4921739671647
83.9632397807374
84.3896570846001
84.7600489201544
85.0628770443834
85.2866007665966
85.4198667360778
85.4517264583804
85.3718761595904
85.1729002441232
84.8656637646995
84.4703932626072
84.0073283676657
83.4962931543336
82.9564404199041
82.4060914157037
81.8626636501924
81.3426773625163
80.861830876946
80.4351359724141
80.0771063372987
79.8002114991095
79.6015302033501
79.4707136655122
79.3978542949154
79.3733969562698
79.3880115424822
79.432490182128
79.4976670901476
79.5743599863353
79.6533326868151
79.7252789410436
79.7808278481902
79.8112379349723
79.8142295502802
79.7911907426992
79.7435989957945
79.6729720275525
79.5808588802274
79.4688314616109
79.3384766016667
79.1913886758815
79.0291628345477
78.8533888657356
78.6656457091122
78.467513419282
78.2609360135771
78.0482074565371
77.8315942535008
77.6133160044136
77.3955441570491
77.1804020142329
76.9699659249337
76.7662675912243
76.5712974278165
76.3870089178776
76.2153239178833
76.0581388751783
75.9168087602391
75.7896399922194
75.673878245172
75.5668121574043
75.465767593528
75.3681023572914
75.27120281373
75.1724823614175
75.0693817031018
74.9593708651219
74.8399529130163
74.7086693029284
74.5631067961165
74.4015478244187
74.224881505633
74.0346376765881
73.8323340465976
73.6194712912053
73.3975287969328
73.1679610479673
72.9321946392666
72.6916258952662
72.4476190692119
72.2015050950596
71.9545808617922
71.7081089788435
71.4632914213915
71.2208925180093
70.9813409870865
70.7450454975913
70.5124037078872
70.283802770241
70.0596198701718
69.84022279797
69.6259705500105
69.417213957784
69.2142963428708
69.0175541963914
68.82731788177
68.6439123599596
68.4676573544736
68.2988598283419
68.1378169055317
67.9848235213317
67.8401734026616
67.704159882548
67.5770767375615
67.4592190499053
67.3508840961784
67.2523722651815
67.163988007498
67.0860408199683
67.0188462685891
66.9627270538119
66.9180107487745
66.8846265111117
66.8617236331824
66.8483731543468
66.8436563075195
66.8466620254567
66.8564847126741
66.8722222739587
66.8929743928685
66.9178410557291
66.9459213184601
66.9763123150947
67.008108508121
67.0404011817589
67.0722781800017
67.1030316744076
67.1329551670153
67.1626460544788
67.1927039381847
67.2237305772124
67.2563300104315
67.2911087872971
67.3286763085497
67.3696452782431
67.4146322688302
67.4642584014287
67.5191501438726
67.5799402297372
67.6472687022052
67.7216839836874
67.8028699417057
67.8900604400211
67.9824808527246
68.0793504363478
68.1798811735541
68.2832767906068
68.3887319524721
68.4954316403146
68.6025507168797
68.7092536858189
68.8146946513922
68.9180174851635
69.0183562062819
69.114991870967
69.2082070935407
69.2986892230671
69.3871347903977
69.4742480604639
69.5607407124402
69.6473316622098
69.734747031146
69.8237202651482
69.9149924079326
70.0093125327733
70.1074383372199
70.2101369058084
70.3181847605707
70.4321476370013
70.5520856772354
70.6779894839763
70.8098519355735
70.9476681427041
71.0914354073103
71.2411531836813
71.3968230415688
71.5584486312353
71.7260356503344
71.8995918125294
72.0791268177574
72.2646523240529
72.455788575775
72.6500505383003
72.8442028568404
73.0349402155279
73.2188889234132
73.3926111762156
73.5526125802095
73.6953530696984
73.8172613139318
73.9147526591952
73.9842505869129
74.0222115893036
74.0251532715497
73.9906243909106
73.9208155000632
73.8193656374801
73.6899632412929
73.5363167630617
73.3621291318132
73.1710759518942
72.9667874984762
72.7528344918552
72.5327175653763
72.3098602919298
72.0876055999421
71.869215390592
71.6577483298178
71.4540289583046
71.2570377818213
71.0657221577288
70.8790534429084
70.6960253917204
70.5156528667883
70.3369708455646
70.1590337071445
69.9809147849338
69.8017061715769
69.6205187630524
69.4364825290563
69.2487469967683
69.056607824395
68.8607293023688
68.6625825236108
68.463618185123
68.2652542816351
68.0688762931165
67.8758379421759
67.6874624873103
67.5050445200748
67.3298522371511
67.1631301619138
67.0061022943453
66.8599756729775
66.7259443379046
66.6051844114053
66.4980308595714
66.4033401699847
66.3198420456754
66.2462903399777
66.1814591103072
66.1241391779994
66.0731351688817
66.027263014342
65.9853478969237
65.9462226279819
65.9087264477352
65.871704240179
65.8340061568151
65.7944876440243
65.7521882280722
65.7080744982139
65.6642791830752
65.6229404550849
65.586186079031
65.5561357129785
65.5349045760464
65.5246084777378
65.5273702153358
65.5453273614207
65.5806414829701
65.6355088570407
65.7121727761157
65.8129375694646
65.9401830372644
66.0953139168066
66.2768536397267
66.4828410130171
66.7113158673815
66.960303961699
67.2278029560057
67.5117694160157
67.8101068471881
68.1206547892716
68.441179033373
68.7693630528996
69.1028007670518
69.4389907805008
69.7753321241082
70.1091141761668
70.4375119630104
70.7575987411211
71.0663514272763
71.3606577319215
71.6373261499604
71.8930989645432
72.1246683788645
72.3286958376604
72.5018345337936
72.6407550163917
72.7421737265468
72.8028890406235
72.8217584263356
72.8026970280367
72.750502070815
72.6700431831457
72.5662216820614
72.4439362110439
72.3080549768617
72.1633946574509
72.0147059158784
71.866665356564
71.723873698675
71.5908599161662
71.472091101949
71.371574739188
71.2893086101248
71.2230854717435
71.1707128645756
71.1300287787166
71.0988939195785
71.0751853309351
71.0567913292404
71.0416077177692
71.0275352602828
71.0124784018251
70.9943452289963
70.9710486636993
70.9405119817544
70.9014432928794
70.8543481861028
70.7999865031679
70.7391183536301
70.6725026608595
70.6008958723695
70.525050835228
70.4457158362321
70.3636338055984
70.2795416821454
70.1941699373227
70.1082422549614
70.0224753632872
69.9375655459421
69.8538427477754
69.7712445624822
69.6896897607425
69.6090979188961
69.5293893942775
69.4504853025438
69.3723074969483
69.2947785495123
69.2178217340481
69.141361010992
69.0653210140038
68.9896270382946
68.9142050306413
68.8389815810534
68.7638839160519
68.6888398935277
68.613777999141
68.5386273442305
68.4633176651948
68.3877793243144
