Value(μV)
-25.4638805389404
-32.7120246887207
-29.1833248138428
-23.2703628540039
-24.3194370269775
-24.1286964416504
-24.3194370269775
-28.2296199798584
-28.0388793945313
-28.0388793945313
-32.1398048400879
-31.7583236694336
-26.7990646362305
-18.1203651428223
-15.2592544555664
-26.226842880249
-31.7583236694336
-34.2379531860352
-37.1944313049316
-32.8073959350586
-38.8157272338867
-47.5897979736328
-39.2925796508789
-31.0907306671143
-36.7175827026367
-42.7259140014648
-41.1046180725098
-36.3360977172852
-31.5675830841064
-25.8453617095947
-21.3629570007324
-18.0249938964844
-8.10647869110107
-1.33518481254578
-7.0574049949646
-9.537034034729
1.14444410800934
11.0629596710205
10.5861072540283
15.9268465042114
22.3166599273682
12.9703664779663
4.95925760269165
7.6296272277832
9.25092315673828
13.5425882339478
20.0277709960938
15.0685138702393
5.43610954284668
6.00833129882813
9.82314491271973
10.6814785003662
11.7305517196655
16.7851791381836
27.8481388092041
31.5675830841064
25.9407329559326
28.5157318115234
28.8972129821777
12.9703664779663
3.33796191215515
6.38981294631958
7.34351634979248
8.29721927642822
7.24814605712891
6.38981294631958
8.77407169342041
9.44166374206543
7.6296272277832
10.1092557907104
16.9759197235107
4.7685170173645
-7.91573810577393
5.91296100616455
13.6379585266113
2.95648050308228
-3.71944332122803
-4.57777643203735
-6.48518323898315
-9.06018257141113
-10.204626083374
-10.2999963760376
-16.4036979675293
-24.7009181976318
-23.5564746856689
-20.1231422424316
-23.4611034393311
-30.995361328125
-29.6601753234863
-19.2648086547852
-11.8259220123291
-6.96203470230103
-3.5287024974823
-3.8148136138916
-3.91018390655518
0.762962698936462
11.5398111343384
18.5972156524658
15.8314762115479
8.67870044708252
4.10092449188232
2.95648050308228
1.62129580974579
4.7685170173645
7.15277528762817
4.86388731002808
7.6296272277832
11.3490705490112
7.43888664245605
3.91018390655518
2.09814739227295
-6.86666440963745
-12.0166625976563
-9.72777462005615
-0.762962698936462
8.0111083984375
5.7222204208374
3.43333220481873
2.38425850868225
-6.86666440963745
-12.3981437683105
-6.86666440963745
-10.0138854980469
-10.9675893783569
2.28888821601868
6.19907188415527
3.62407302856445
8.96481227874756
16.6898097991943
16.8805503845215
8.67870044708252
1.9074068069458
-0.858333051204681
-0.667592406272888
1.71666610240936
3.5287024974823
5.81759071350098
13.7333288192749
22.8888816833496
23.1749935150146
19.9324016571045
17.738883972168
20.0277709960938
26.1314735412598
14.7824029922485
-3.8148136138916
-11.8259220123291
-6.96203470230103
3.5287024974823
0.667592406272888
1.14444410800934
10.6814785003662
10.8722190856934
15.9268465042114
21.3629570007324
9.82314491271973
6.48518323898315
10.9675893783569
-1.43055510520935
-12.302773475647
-8.58333015441895
-2.09814739227295
10.7768487930298
25.5592517852783
31.2814712524414
31.4722118377686
32.4259147644043
37.5759124755859
37.9573936462402
31.7583236694336
31.9490642547607
36.3360977172852
32.9027671813965
16.6898097991943
4.48240613937378
11.0629596710205
15.7361059188843
9.72777462005615
12.4935140609741
18.4064750671387
12.3981437683105
9.9185152053833
18.4064750671387
21.5536975860596
20.5999927520752
25.177770614624
29.6601753234863
24.0333251953125
15.0685138702393
12.2074031829834
7.15277528762817
1.71666610240936
11.635181427002
18.5972156524658
2.38425850868225
-18.8833274841309
-33.761100769043
-55.6962776184082
-85.0703430175781
-116.44718170166
-156.121246337891
-191.599014282227
-217.539749145508
-235.373992919922
-216.776779174805
-141.911071777344
-44.0610961914063
48.2573928833008
171.952728271484
353.061004638672
570.50537109375
768.303466796875
880.7451171875
955.992309570313
1057.56164550781
1054.70056152344
888.470092773438
712.797912597656
550.572998046875
320.539703369141
29.7555465698242
-222.880477905273
-365.459136962891
-465.884124755859
-552.861877441406
-601.119262695313
-617.618347167969
-617.332214355469
-623.054443359375
-609.607238769531
-560.0146484375
-508.419281005859
-471.034118652344
-444.521148681641
-421.441528320313
-390.255432128906
-348.29248046875
-282.486938476563
-206.286041259766
-161.938842773438
-134.66291809082
-101.37866973877
-87.7407150268555
-98.1360778808594
-113.776817321777
-132.46940612793
-142.387924194336
-130.848098754883
-107.482376098633
-77.2499771118164
-50.1647987365723
-31.8536930084229
-16.9759197235107
-24.9870281219482
-48.066650390625
-52.3583183288574
-50.4509086608887
-49.783317565918
-37.0036926269531
-21.4583263397217
-8.10647869110107
5.05462789535522
14.5916624069214
16.9759197235107
6.77129411697388
-7.0574049949646
-12.302773475647
-13.8286991119385
-8.48795986175537
10.6814785003662
21.839807510376
19.1694374084473
28.5157318115234
39.7694320678711
39.0064697265625
33.1888771057129
18.5972156524658
6.29444265365601
7.34351634979248
18.5972156524658
34.5240631103516
45.4916534423828
52.2629470825195
58.5573883056641
59.1296119689941
50.6416511535645
47.017578125
59.3203506469727
68.6666412353516
69.2388687133789
72.9583129882813
75.4379425048828
73.6259002685547
74.3888626098633
75.247200012207
73.5305328369141
75.6286773681641
77.0592346191406
79.2527542114258
81.16015625
72.6721954345703
65.6147918701172
63.9934997558594
63.5166473388672
68.4759063720703
65.5194244384766
55.219425201416
57.2222023010254
61.0370178222656
58.2712783813477
55.9823913574219
54.8379440307617
53.121280670166
55.6009063720703
62.6583137512207
67.6175689697266
73.8166427612305
79.8249740600586
75.8194198608398
73.3397903442383
73.5305328369141
61.0370178222656
43.679615020752
31.3768424987793
29.9462871551514
33.2842483520508
26.7036952972412
19.360179901123
25.7499923706055
31.8536930084229
27.2759170532227
24.9870281219482
29.0879535675049
30.0416564941406
25.8453617095947
21.6490669250488
22.6981410980225
28.7064723968506
26.226842880249
13.6379585266113
-0.47685170173645
-8.86944198608398
-3.33796191215515
0.762962698936462
-0.858333051204681
1.9074068069458
5.05462789535522
14.4009208679199
25.3685111999512
28.8018417358398
23.2703628540039
4.57777643203735
-5.62685012817383
-6.77129411697388
-16.4036979675293
-15.8314762115479
-0.858333051204681
2.1935179233551
-1.14444410800934
11.7305517196655
27.943510055542
26.0361022949219
13.8286991119385
8.77407169342041
4.86388731002808
-7.15277528762817
-4.7685170173645
8.77407169342041
1.62129580974579
-7.6296272277832
-5.62685012817383
-11.7305517196655
-22.6981410980225
-31.1861019134521
-39.2925796508789
-39.3879508972168
-29.278694152832
-18.8833274841309
-12.1120328903198
-4.48240613937378
-1.14444410800934
-8.0111083984375
-19.360179901123
-24.5101776123047
-16.8805503845215
-9.537034034729
-4.95925760269165
5.1499981880188
10.2999963760376
15.7361059188843
18.3111057281494
7.82036781311035
8.86944198608398
18.5018463134766
16.7851791381836
22.4120292663574
29.8509159088135
31.0907306671143
42.630542755127
43.8703575134277
30.8046188354492
26.5129547119141
19.8370304107666
10.0138854980469
0.47685170173645
-7.91573810577393
-5.7222204208374
-0.190740674734116
2.09814739227295
3.71944332122803
6.96203470230103
8.96481227874756
8.29721927642822
10.5861072540283
9.9185152053833
0.0953703373670578
-3.91018390655518
-8.29721927642822
-20.9814739227295
-26.9898052215576
-37.6712837219238
-50.9277610778809
-43.5842437744141
-31.5675830841064
-30.5185089111328
-33.1888771057129
-32.4259147644043
-25.7499923706055
-21.2675857543945
-25.8453617095947
-28.8018417358398
-25.4638805389404
-21.5536975860596
-21.6490669250488
-26.7990646362305
-30.4231376647949
-30.2323970794678
-27.3712882995605
-27.0851764678955
-31.3768424987793
-28.0388793945313
-27.8481388092041
-34.6194343566895
-32.8073959350586
-29.8509159088135
-34.3333206176758
-39.3879508972168
-30.70924949646
-18.3111057281494
-28.3249912261963
-48.3527641296387
-52.2629470825195
-42.2490615844727
-29.278694152832
-28.5157318115234
-38.5296173095703
-39.2925796508789
-37.3851737976074
-42.1536903381348
-42.8212814331055
-37.0036926269531
-38.6249885559082
-43.9657249450684
-33.9518394470215
-19.360179901123
-11.4444408416748
-5.34073925018311
1.14444410800934
4.86388731002808
-2.8611102104187
-11.0629596710205
-10.0138854980469
-5.24536848068237
1.9074068069458
2.76573991775513
-0.762962698936462
-1.62129580974579
-4.10092449188232
0.0953703373670578
2.67036962509155
-8.86944198608398
-6.77129411697388
3.71944332122803
6.58055353164673
11.7305517196655
9.63240432739258
7.72499752044678
17.2620315551758
20.8861045837402
18.4064750671387
19.5509204864502
17.1666603088379
10.3953666687012
11.5398111343384
14.1148099899292
11.8259220123291
12.4935140609741
12.6842555999756
18.8833274841309
26.4175834655762
15.0685138702393
10.0138854980469
16.8805503845215
7.82036781311035
3.5287024974823
11.8259220123291
12.9703664779663
8.58333015441895
1.71666610240936
1.62129580974579
4.29166507720947
0.47685170173645
2.28888821601868
7.34351634979248
11.5398111343384
13.4472179412842
4.00555419921875
-4.48240613937378
-1.43055510520935
-3.62407302856445
-10.3953666687012
-6.77129411697388
3.43333220481873
9.537034034729
2.95648050308228
2.28888821601868
18.1203651428223
19.5509204864502
7.53425693511963
1.62129580974579
-4.10092449188232
-7.72499752044678
-6.29444265365601
-4.95925760269165
-11.7305517196655
-18.3111057281494
-10.7768487930298
-2.38425850868225
0.9537034034729
1.9074068069458
-0.190740674734116
5.34073925018311
14.4009208679199
12.4935140609741
4.48240613937378
0.381481349468231
-1.52592539787292
-2.5749990940094
-0.381481349468231
5.62685012817383
10.3953666687012
4.10092449188232
-6.96203470230103
-9.82314491271973
-4.38703584671021
1.62129580974579
-0.0953703373670578
-3.71944332122803
-7.53425693511963
-12.7796258926392
-7.43888664245605
-7.72499752044678
-20.5999927520752
-23.0796222686768
-21.6490669250488
-26.7990646362305
-29.4694347381592
-24.0333251953125
-18.8833274841309
-19.9324016571045
-21.2675857543945
-24.7962875366211
-19.5509204864502
-4.10092449188232
-3.24259161949158
-7.82036781311035
0.0953703373670578
7.15277528762817
11.635181427002
16.5944385528564
14.3055505752563
14.5916624069214
28.3249912261963
41.0092468261719
36.5268402099609
33.761100769043
32.9027671813965
16.9759197235107
12.6842555999756
21.9351787567139
27.8481388092041
36.3360977172852
44.8240585327148
44.7286911010742
39.864803314209
46.8268356323242
45.300910949707
27.7527694702148
28.8018417358398
40.1509132385254
39.197208404541
29.278694152832
10.9675893783569
-8.58333015441895
-6.29444265365601
14.1148099899292
24.6055469512939
20.1231422424316
8.29721927642822
-2.5749990940094
-5.53147983551025
-10.1092557907104
-18.2157344818115
-12.588885307312
-2.38425850868225
-6.6759238243103
-10.7768487930298
-2.1935179233551
5.81759071350098
9.44166374206543
14.1148099899292
17.738883972168
15.7361059188843
5.91296100616455
-0.190740674734116
1.23981440067291
3.05185079574585
7.0574049949646
9.25092315673828
8.86944198608398
11.1583299636841
7.34351634979248
-2.47962880134583
-15.0685138702393
-22.7935104370117
-21.4583263397217
-22.6027698516846
-18.2157344818115
-8.77407169342041
-6.77129411697388
-2.1935179233551
9.06018257141113
8.77407169342041
0.9537034034729
4.86388731002808
1.43055510520935
-14.3055505752563
-20.409252166748
-27.0851764678955
-43.2981338500977
-73.4351654052734
-112.346260070801
-140.385147094727
-171.475875854492
-210.291595458984
-237.949005126953
-254.829544067383
-234.611038208008
-150.399032592773
-45.7777633666992
69.0481262207031
241.954559326172
455.965606689453
663.872924804688
831.915466308594
954.275634765625
1074.53759765625
1147.30517578125
1058.13391113281
865.008972167969
681.32568359375
485.435028076172
221.259185791016
-90.6018218994141
-331.316558837891
-454.916534423828
-539.700744628906
-608.748901367188
-655.575744628906
-688.383117675781
-693.437744140625
-665.589599609375
-608.748901367188
-533.406311035156
-477.805389404297
-451.197082519531
-424.493377685547
-385.200805664063
-338.087860107422
-294.026763916016
-257.499908447266
-219.733261108398
-182.824935913086
-159.173095703125
-150.399032592773
-155.358276367188
-172.334197998047
-187.593460083008
-183.397171020508
-164.51383972168
-137.333282470703
-102.52311706543
-75.0564575195313
-50.1647987365723
-23.1749935150146
-19.9324016571045
-36.3360977172852
-46.2546157836914
-51.404613494873
-46.8268356323242
-27.4666576385498
-3.24259161949158
9.9185152053833
18.3111057281494
33.4749908447266
35.2870254516602
31.0907306671143
38.8157272338867
40.5323944091797
30.995361328125
21.7444381713867
25.0823993682861
39.6740608215332
48.8296127319336
60.8462753295898
75.5333099365234
68.1897964477539
51.5953521728516
46.3499870300293
46.0638732910156
47.4944305419922
53.9796104431152
69.1434936523438
85.4518280029297
94.416633605957
100.52033996582
98.2314529418945
89.2666397094727
76.0101623535156
60.0833129882813
59.0342407226563
59.1296119689941
55.6009063720703
62.0860900878906
61.7999801635742
58.8434982299805
63.8027572631836
63.6120147705078
64.6610870361328
63.7073860168457
51.1185035705566
45.1101722717285
46.8268356323242
47.8759117126465
58.3666496276855
70.1925735473633
66.1870193481445
62.2768325805664
72.6721954345703
73.4351654052734
59.0342407226563
53.121280670166
55.0286865234375
49.8786888122559
43.9657249450684
45.300910949707
46.3499870300293
46.2546157836914
48.4481315612793
49.4972076416016
55.5055389404297
60.274055480957
48.734245300293
33.9518394470215
33.4749908447266
38.4342460632324
41.0092468261719
46.3499870300293
52.9305381774902
54.4564628601074
49.4972076416016
41.0092468261719
37.6712837219238
41.0092468261719
40.3416519165039
31.2814712524414
20.8861045837402
18.787956237793
19.074068069458
24.6055469512939
38.5296173095703
41.1046180725098
35.382396697998
31.6629524230957
25.6546211242676
23.6518440246582
25.177770614624
25.6546211242676
32.4259147644043
48.734245300293
62.3722038269043
53.5981292724609
37.8620262145996
37.7666549682617
32.1398048400879
13.9240694046021
-2.67036962509155
-8.3925895690918
1.04907369613647
9.72777462005615
11.5398111343384
16.1175880432129
18.3111057281494
16.9759197235107
16.4990692138672
8.20184898376465
-4.67314672470093
-0.190740674734116
13.8286991119385
22.4120292663574
29.7555465698242
27.7527694702148
21.839807510376
19.360179901123
11.8259220123291
1.23981440067291
-9.63240432739258
-13.4472179412842
-2.00277709960938
12.6842555999756
15.6407356262207
16.30832862854
21.1722145080566
16.9759197235107
5.62685012817383
1.52592539787292
11.4444408416748
17.0712909698486
10.8722190856934
16.4990692138672
18.8833274841309
10.204626083374
14.5916624069214
12.4935140609741
-3.71944332122803
-13.4472179412842
-17.8342533111572
-20.5046234130859
-21.839807510376
-26.1314735412598
-25.4638805389404
-26.7036952972412
-34.2379531860352
-28.3249912261963
-18.5018463134766
-25.4638805389404
-33.5703582763672
-28.6111011505127
-25.6546211242676
-27.8481388092041
-24.2240657806396
-22.125919342041
-22.9842510223389
-20.0277709960938
-19.7416610717773
-19.9324016571045
-16.8805503845215
-23.2703628540039
-37.7666549682617
-37.7666549682617
-26.9898052215576
-26.1314735412598
-29.5648059844971
-31.3768424987793
-28.9925842285156
-25.6546211242676
-25.8453617095947
-26.5129547119141
-28.8972129821777
-30.995361328125
-30.1370277404785
-20.8861045837402
-17.0712909698486
-25.177770614624
-24.7009181976318
-20.7907333374023
-20.6953639984131
-18.787956237793
-28.8018417358398
-42.0583190917969
-42.5351715087891
-43.0120239257813
-47.2083168029785
-46.4453544616699
-30.2323970794678
-17.0712909698486
-22.8888816833496
-22.4120292663574
-18.9786968231201
-21.1722145080566
-25.7499923706055
-35.6685066223145
-39.4833221435547
-38.0527648925781
-34.3333206176758
-24.891658782959
-17.6435127258301
-15.8314762115479
-12.2074031829834
-3.5287024974823
-2.76573991775513
-7.6296272277832
-2.28888821601868
-2.00277709960938
-12.1120328903198
-15.0685138702393
-13.6379585266113
-15.0685138702393
-18.3111057281494
-16.30832862854
-14.4962921142578
-17.6435127258301
-10.204626083374
-2.38425850868225
3.05185079574585
15.7361059188843
14.3055505752563
5.7222204208374
8.58333015441895
13.1611070632935
13.3518476486206
6.77129411697388
1.33518481254578
3.8148136138916
6.00833129882813
3.24259161949158
-3.62407302856445
-12.3981437683105
-13.5425882339478
-10.2999963760376
-12.7796258926392
-10.204626083374
-3.5287024974823
-7.43888664245605
-9.9185152053833
-5.05462789535522
-4.00555419921875
-2.47962880134583
7.15277528762817
12.588885307312
10.3953666687012
8.58333015441895
3.62407302856445
1.23981440067291
0.9537034034729
-3.5287024974823
-7.24814605712891
-8.96481227874756
-5.91296100616455
-6.77129411697388
-14.2101802825928
-12.3981437683105
-11.8259220123291
-19.5509204864502
-19.2648086547852
-19.8370304107666
-18.8833274841309
-8.67870044708252
-6.77129411697388
-6.6759238243103
-7.82036781311035
-13.256477355957
-14.3055505752563
-21.3629570007324
-34.0472106933594
-39.7694320678711
-37.5759124755859
-29.5648059844971
-17.9296245574951
-12.2074031829834
-18.2157344818115
-20.8861045837402
-16.9759197235107
-20.5046234130859
-23.7472152709961
-20.1231422424316
-14.687032699585
-7.53425693511963
-0.9537034034729
-2.28888821601868
-4.1962947845459
4.1962947845459
9.44166374206543
8.3925895690918
8.58333015441895
6.1037015914917
0.381481349468231
-3.8148136138916
0
5.91296100616455
3.147221326828
0.0953703373670578
2.09814739227295
6.29444265365601
7.82036781311035
1.33518481254578
-4.86388731002808
-7.6296272277832
-4.1962947845459
5.05462789535522
9.34629344940186
6.96203470230103
3.43333220481873
7.6296272277832
11.635181427002
12.302773475647
23.5564746856689
27.7527694702148
26.7036952972412
37.8620262145996
42.0583190917969
44.8240585327148
53.9796104431152
49.6879463195801
40.0555419921875
36.9083213806152
30.3277683258057
24.2240657806396
31.8536930084229
32.2351760864258
24.1286964416504
30.4231376647949
35.9546165466309
28.2296199798584
21.5536975860596
21.1722145080566
17.5481433868408
10.9675893783569
10.1092557907104
10.4907369613647
10.8722190856934
8.0111083984375
4.00555419921875
10.204626083374
16.5944385528564
14.2101802825928
13.6379585266113
9.25092315673828
1.14444410800934
3.33796191215515
5.53147983551025
-3.5287024974823
-11.4444408416748
-3.62407302856445
11.0629596710205
18.9786968231201
21.4583263397217
20.8861045837402
24.1286964416504
27.4666576385498
18.3111057281494
4.10092449188232
-4.38703584671021
3.5287024974823
11.635181427002
2.28888821601868
-3.5287024974823
-6.38981294631958
-7.24814605712891
9.72777462005615
22.7935104370117
16.4990692138672
13.5425882339478
18.8833274841309
10.9675893783569
-2.09814739227295
-0.47685170173645
-3.147221326828
-8.48795986175537
-2.76573991775513
-0.381481349468231
0.47685170173645
4.86388731002808
3.24259161949158
0
0.9537034034729
5.24536848068237
8.58333015441895
10.8722190856934
11.0629596710205
4.86388731002808
1.9074068069458
3.147221326828
3.91018390655518
5.43610954284668
0
-3.91018390655518
0.381481349468231
0.47685170173645
-0.9537034034729
0.762962698936462
-3.71944332122803
-5.34073925018311
1.14444410800934
6.6759238243103
13.6379585266113
6.38981294631958
-5.62685012817383
-2.47962880134583
2.1935179233551
7.6296272277832
-0.0953703373670578
-24.891658782959
-41.4860992431641
-63.7073860168457
-103.190704345703
-139.526809692383
-170.712905883789
-203.901779174805
-241.191589355469
-276.383239746094
-285.634155273438
-241.57307434082
-143.246246337891
-37.5759124755859
80.5879364013672
265.224914550781
486.770202636719
692.007202148438
850.417297363281
961.619140625
1076.25427246094
1134.04870605469
1026.94787597656
835.82568359375
657.769226074219
459.875793457031
195.318450927734
-103.858299255371
-317.201751708984
-432.218383789063
-522.724853515625
-587.86279296875
-630.302551269531
-661.584045410156
-674.554443359375
-647.278503417969
-581.091491699219
-525.8720703125
-485.244293212891
-443.758178710938
-412.572082519531
-377.666534423828
-333.414703369141
-293.931396484375
-251.014739990234
-200.75456237793
-158.791610717773
-136.474960327148
-135.044403076172
-143.627731323242
-154.595321655273
-170.522171020508
-182.538833618164
-178.151794433594
-152.687911987305
-116.637924194336
-86.7870101928711
-59.0342407226563
-40.8185043334961
-46.8268356323242
-57.4129447937012
-62.7536849975586
-63.4212760925293
-53.4073905944824
-30.5185089111328
0.381481349468231
27.7527694702148
43.1073951721191
39.2925796508789
22.2212886810303
8.29721927642822
0.47685170173645
-3.71944332122803
-6.48518323898315
-2.47962880134583
14.8777732849121
34.4286918640137
47.9712791442871
57.2222023010254
56.3638725280762
43.2027626037598
34.6194343566895
35.8592491149902
32.9981384277344
31.4722118377686
40.2462844848633
53.7888717651367
64.4703521728516
70.9555358886719
77.8221969604492
80.0157165527344
76.0101623535156
77.9175643920898
76.8684921264648
70.0971984863281
77.345344543457
80.778678894043
71.4323883056641
72.4814605712891
77.7268295288086
73.3397903442383
59.6064605712891
48.734245300293
47.9712791442871
49.3064651489258
54.2657241821289
60.3694267272949
57.6990547180176
58.3666496276855
65.0425720214844
66.2823867797852
68.3805313110352
70.9555358886719
71.0509033203125
69.0481262207031
59.8925743103027
54.0749816894531
57.0314636230469
62.2768325805664
71.8138656616211
79.9203414916992
85.8333053588867
91.7462692260742
86.7870101928711
81.0647888183594
81.7323837280273
70.8601608276367
54.6472053527832
50.355541229248
50.1647987365723
49.3064651489258
52.8351669311523
59.7972030639648
68.1897964477539
71.0509033203125
70.8601608276367
67.8083114624023
59.0342407226563
56.4592399597168
53.0259094238281
50.5462799072266
51.9768333435059
50.9277610778809
57.2222023010254
56.0777587890625
45.5870208740234
43.8703575134277
42.630542755127
37.1944313049316
30.70924949646
25.6546211242676
24.891658782959
27.0851764678955
31.4722118377686
37.5759124755859
39.9601707458496
38.5296173095703
37.5759124755859
25.9407329559326
2.76573991775513
-16.7851791381836
-12.4935140609741
13.6379585266113
27.5620288848877
29.5648059844971
35.7638778686523
35.8592491149902
28.7064723968506
23.5564746856689
13.0657367706299
-3.33796191215515
-5.62685012817383
1.43055510520935
3.24259161949158
3.43333220481873
4.86388731002808
6.48518323898315
8.86944198608398
15.1638841629028
14.8777732849121
5.7222204208374
3.8148136138916
7.53425693511963
5.53147983551025
5.53147983551025
15.0685138702393
15.2592544555664
5.53147983551025
4.86388731002808
0.762962698936462
-5.05462789535522
-1.81203651428223
4.10092449188232
20.2185115814209
33.3796195983887
28.6111011505127
20.7907333374023
12.8749961853027
-1.33518481254578
-13.1611070632935
-13.9240694046021
-10.7768487930298
-11.9212923049927
-12.0166625976563
-14.1148099899292
-20.3138828277588
-25.3685111999512
-29.9462871551514
-30.2323970794678
-30.4231376647949
-40.2462844848633
-47.2083168029785
-47.3990592956543
-46.8268356323242
-39.0064697265625
-34.1425819396973
-38.3388748168945
-41.4860992431641
-43.5842437744141
-47.2083168029785
-52.8351669311523
-50.1647987365723
-37.6712837219238
-27.3712882995605
-23.4611034393311
-22.0305480957031
-26.5129547119141
-36.3360977172852
-37.3851737976074
-32.6166572570801
-29.7555465698242
-33.0935096740723
-44.4425773620605
-45.6823921203613
-36.431468963623
-37.3851737976074
-42.7259140014648
-42.5351715087891
-45.1101722717285
-42.4398002624512
-37.3851737976074
-45.2055397033691
-55.6962776184082
-57.4129447937012
-53.5027618408203
-53.6935005187988
-59.3203506469727
-62.2768325805664
-60.3694267272949
-55.9823913574219
-58.9388694763184
-61.323127746582
-50.0694274902344
-39.3879508972168
-37.3851737976074
-32.8073959350586
-25.6546211242676
-20.9814739227295
-15.6407356262207
-14.2101802825928
-16.5944385528564
-17.738883972168
-18.5018463134766
-16.30832862854
-17.4527721405029
-22.8888816833496
-19.8370304107666
-17.1666603088379
-15.8314762115479
-2.67036962509155
6.1037015914917
3.91018390655518
8.77407169342041
13.5425882339478
4.57777643203735
-10.2999963760376
-21.839807510376
-28.5157318115234
-32.9027671813965
-36.431468963623
-40.4370231628418
-44.0610961914063
-52.9305381774902
-60.3694267272949
-55.1240577697754
-49.9740562438965
-38.5296173095703
-18.0249938964844
-14.8777732849121
-21.9351787567139
-16.5944385528564
-8.77407169342041
-8.3925895690918
-12.7796258926392
-17.4527721405029
-21.3629570007324
-29.3740653991699
-33.2842483520508
-31.4722118377686
-28.6111011505127
-21.1722145080566
-14.687032699585
-11.7305517196655
-11.4444408416748
-8.86944198608398
-3.24259161949158
-2.8611102104187
3.05185079574585
14.4962921142578
12.0166625976563
7.43888664245605
15.5453653335571
31.3768424987793
40.6277656555176
36.6222114562988
34.1425819396973
31.9490642547607
23.4611034393311
20.7907333374023
23.7472152709961
27.0851764678955
29.278694152832
25.4638805389404
22.6027698516846
32.9981384277344
37.099063873291
24.2240657806396
13.4472179412842
0.47685170173645
-10.2999963760376
-3.24259161949158
8.10647869110107
7.34351634979248
0.47685170173645
4.7685170173645
14.2101802825928
17.357400894165
23.5564746856689
23.7472152709961
3.8148136138916
-7.43888664245605
3.8148136138916
14.4962921142578
17.1666603088379
17.5481433868408
15.35462474823
12.9703664779663
12.8749961853027
12.1120328903198
10.6814785003662
8.96481227874756
8.67870044708252
8.58333015441895
8.67870044708252
10.0138854980469
6.38981294631958
4.10092449188232
7.82036781311035
7.6296272277832
11.2537002563477
15.8314762115479
14.687032699585
19.2648086547852
25.7499923706055
28.5157318115234
25.7499923706055
15.9268465042114
7.91573810577393
1.23981440067291
1.04907369613647
8.20184898376465
12.9703664779663
20.409252166748
29.4694347381592
29.9462871551514
21.2675857543945
12.0166625976563
10.7768487930298
10.0138854980469
4.95925760269165
4.57777643203735
8.86944198608398
9.06018257141113
5.24536848068237
1.62129580974579
-0.0953703373670578
-1.43055510520935
-0.47685170173645
3.71944332122803
6.48518323898315
8.0111083984375
3.147221326828
-0.667592406272888
12.4935140609741
29.4694347381592
37.8620262145996
39.1018409729004
37.9573936462402
47.3990592956543
47.7805404663086
27.8481388092041
13.5425882339478
4.1962947845459
-1.23981440067291
9.44166374206543
23.6518440246582
24.9870281219482
16.8805503845215
12.9703664779663
12.3981437683105
14.687032699585
19.6462898254395
24.5101776123047
28.2296199798584
15.4499950408936
1.62129580974579
-0.286111027002335
-5.05462789535522
3.147221326828
18.9786968231201
23.5564746856689
26.7990646362305
30.70924949646
29.1833248138428
22.8888816833496
22.2212886810303
16.7851791381836
5.62685012817383
10.0138854980469
14.8777732849121
14.0194396972656
14.9731435775757
8.96481227874756
4.86388731002808
8.48795986175537
9.63240432739258
1.04907369613647
-4.1962947845459
-1.04907369613647
-5.05462789535522
-8.77407169342041
-3.8148136138916
0.47685170173645
-0.762962698936462
-5.81759071350098
-2.76573991775513
-0.381481349468231
-5.7222204208374
-4.48240613937378
-7.53425693511963
-22.6981410980225
-35.0009155273438
-49.5925750732422
-76.6777496337891
-105.76570892334
-138.000885009766
-170.522171020508
-193.792526245117
-214.774002075195
-224.787887573242
-209.910110473633
-142.769393920898
-39.0064697265625
59.6064605712891
191.408279418945
380.909149169922
586.527587890625
762.104370117188
876.167297363281
959.044128417969
1042.97009277344
1019.22283935547
854.804382324219
681.993286132813
500.980407714844
245.101776123047
-54.9333152770996
-286.969360351563
-409.138763427734
-501.171142578125
-560.109985351563
-584.238708496094
-609.797973632813
-612.277587890625
-596.732238769531
-571.935913085938
-525.013732910156
-477.519287109375
-446.333190917969
-427.068389892578
-415.814666748047
-390.064697265625
-333.128601074219
-265.320281982422
-207.144378662109
-162.034210205078
-131.706436157227
-124.362922668457
-132.087921142578
-134.376815795898
-141.911071777344
-158.696243286133
-159.363830566406
-141.434219360352
-113.395332336426
-83.6397857666016
-58.7481307983398
-39.4833221435547
-35.0009155273438
-40.5323944091797
-48.3527641296387
-65.805534362793
-80.0157165527344
-73.8166427612305
-52.453685760498
-27.657398223877
-1.43055510520935
14.4009208679199
15.35462474823
11.9212923049927
0.0953703373670578
-11.7305517196655
-8.20184898376465
-2.1935179233551
2.1935179233551
9.15555286407471
17.0712909698486
33.4749908447266
54.2657241821289
62.0860900878906
57.1268348693848
55.9823913574219
60.6555366516113
58.4620170593262
48.8296127319336
44.6333198547363
45.4916534423828
47.8759117126465
52.0722045898438
57.6036834716797
64.6610870361328
68.3805313110352
66.9499816894531
66.0916442871094
62.9444236755371
59.6064605712891
64.2796096801758
66.0916442871094
66.1870193481445
70.6694183349609
70.0971984863281
67.3314590454102
67.8083114624023
58.7481307983398
48.9249839782715
58.1759071350098
63.6120147705078
55.5055389404297
50.832389831543
49.0203552246094
45.8731346130371
41.8675804138184
48.4481315612793
57.7944259643555
60.4647941589355
78.6805267333984
91.1740417480469
77.2499771118164
65.2333145141602
65.137939453125
71.1462707519531
79.5388641357422
83.0675659179688
76.2009048461914
63.7073860168457
55.3147964477539
59.701831817627
69.1434936523438
68.4759063720703
65.0425720214844
64.2796096801758
63.7073860168457
73.4351654052734
83.5444183349609
82.1138610839844
82.4953460693359
81.16015625
72.1953506469727
60.6555366516113
53.3120193481445
53.8842430114746
57.1268348693848
56.936092376709
51.0231323242188
48.8296127319336
48.066650390625
34.0472106933594
24.7009181976318
27.7527694702148
28.6111011505127
27.0851764678955
20.2185115814209
16.1175880432129
22.2212886810303
30.0416564941406
29.0879535675049
18.1203651428223
10.9675893783569
7.43888664245605
-0.47685170173645
-2.1935179233551
7.43888664245605
13.6379585266113
8.20184898376465
4.38703584671021
3.8148136138916
-0.858333051204681
0.0953703373670578
3.71944332122803
-6.1037015914917
-18.6925868988037
-14.8777732849121
-7.72499752044678
-4.29166507720947
2.38425850868225
1.62129580974579
-10.6814785003662
-25.2731399536133
-31.3768424987793
-26.4175834655762
-23.9379558563232
-26.5129547119141
-21.0768451690674
-11.5398111343384
-11.8259220123291
-13.0657367706299
-13.4472179412842
-21.2675857543945
-30.4231376647949
-35.7638778686523
-37.3851737976074
-38.7203598022461
-38.6249885559082
-30.3277683258057
-19.9324016571045
-24.891658782959
-35.8592491149902
-42.0583190917969
-50.9277610778809
-46.6360969543457
-35.9546165466309
-39.864803314209
-45.5870208740234
-36.431468963623
-22.4120292663574
-19.1694374084473
-22.5074005126953
-27.657398223877
-30.70924949646
-28.9925842285156
-30.0416564941406
-33.2842483520508
-35.8592491149902
-39.197208404541
-29.9462871551514
-11.5398111343384
-8.3925895690918
-11.3490705490112
-11.3490705490112
-11.635181427002
-11.635181427002
-15.7361059188843
-18.6925868988037
-11.7305517196655
-2.28888821601868
-3.43333220481873
-9.63240432739258
-12.302773475647
-12.588885307312
-9.537034034729
-3.71944332122803
2.76573991775513
9.34629344940186
14.7824029922485
10.6814785003662
-5.91296100616455
-21.2675857543945
-27.943510055542
-20.3138828277588
-4.67314672470093
-2.09814739227295
-3.71944332122803
-2.09814739227295
-14.7824029922485
-26.0361022949219
-11.7305517196655
-7.82036781311035
-23.6518440246582
-17.1666603088379
-4.86388731002808
-11.1583299636841
-15.4499950408936
-11.2537002563477
-9.34629344940186
-9.63240432739258
1.04907369613647
16.2129573822021
10.0138854980469
-0.9537034034729
4.86388731002808
8.86944198608398
11.9212923049927
18.0249938964844
8.10647869110107
-4.1962947845459
-0.9537034034729
3.24259161949158
2.28888821601868
-0.47685170173645
-6.19907188415527
-0.381481349468231
12.9703664779663
4.29166507720947
-17.5481433868408
-25.7499923706055
-28.0388793945313
-24.1286964416504
-16.7851791381836
-24.7962875366211
-33.3796195983887
-32.9981384277344
-33.2842483520508
-27.8481388092041
-23.2703628540039
-26.3222141265869
-22.0305480957031
-13.6379585266113
-10.7768487930298
-7.6296272277832
-11.5398111343384
-19.2648086547852
-11.1583299636841
0.0953703373670578
0.762962698936462
3.43333220481873
10.4907369613647
13.256477355957
11.1583299636841
7.15277528762817
5.91296100616455
7.0574049949646
14.9731435775757
17.9296245574951
-1.62129580974579
-11.1583299636841
-10.204626083374
-16.7851791381836
-9.44166374206543
1.71666610240936
4.10092449188232
4.38703584671021
-0.0953703373670578
-6.38981294631958
-9.15555286407471
-6.00833129882813
-6.77129411697388
-16.30832862854
-15.4499950408936
-6.77129411697388
-6.19907188415527
-2.47962880134583
9.72777462005615
15.5453653335571
18.787956237793
24.1286964416504
21.4583263397217
14.2101802825928
9.25092315673828
4.29166507720947
-2.47962880134583
-7.72499752044678
-3.33796191215515
0.762962698936462
0
3.62407302856445
4.29166507720947
-3.62407302856445
-3.24259161949158
8.96481227874756
7.43888664245605
-4.1962947845459
1.33518481254578
11.3490705490112
8.10647869110107
4.57777643203735
7.82036781311035
6.1037015914917
-4.29166507720947
-6.00833129882813
0
-0.858333051204681
-3.5287024974823
-3.5287024974823
-5.43610954284668
-8.96481227874756
-9.06018257141113
-7.0574049949646
-4.10092449188232
7.34351634979248
13.8286991119385
7.43888664245605
13.4472179412842
25.0823993682861
20.6953639984131
14.2101802825928
17.1666603088379
20.9814739227295
12.8749961853027
0.9537034034729
-0.0953703373670578
6.38981294631958
13.0657367706299
14.8777732849121
10.5861072540283
6.29444265365601
4.10092449188232
2.38425850868225
6.48518323898315
12.8749961853027
15.0685138702393
5.43610954284668
-7.15277528762817
0.667592406272888
11.0629596710205
7.72499752044678
3.05185079574585
-1.33518481254578
-3.33796191215515
1.33518481254578
-1.23981440067291
-14.5916624069214
-17.1666603088379
-13.6379585266113
-15.6407356262207
-14.4962921142578
-11.3490705490112
-9.63240432739258
-11.635181427002
-15.1638841629028
-13.4472179412842
-21.6490669250488
-34.0472106933594
-35.2870254516602
-34.5240631103516
-30.8046188354492
-24.2240657806396
-17.4527721405029
-15.7361059188843
-15.8314762115479
-10.1092557907104
-11.8259220123291
-11.4444408416748
-0.9537034034729
1.52592539787292
2.38425850868225
0.858333051204681
-4.7685170173645
4.95925760269165
14.8777732849121
17.1666603088379
24.1286964416504
22.9842510223389
21.1722145080566
27.5620288848877
34.1425819396973
41.2953567504883
48.066650390625
46.8268356323242
39.864803314209
41.4860992431641
44.5379486083984
33.2842483520508
26.0361022949219
36.6222114562988
42.9166526794434
31.7583236694336
9.06018257141113
-12.6842555999756
-31.3768424987793
-69.3342361450195
-116.828666687012
-142.960144042969
-165.562911987305
-202.566604614258
-241.000854492188
-258.644348144531
-238.044372558594
-169.377716064453
-62.8490524291992
50.6416511535645
186.162902832031
369.273956298828
583.571105957031
784.230285644531
921.754333496094
1027.61535644531
1124.89318847656
1099.23852539063
925.759887695313
744.174743652344
570.314636230469
333.891571044922
39.1018409729004
-235.660110473633
-395.500793457031
-487.437805175781
-568.979431152344
-615.329406738281
-637.932189941406
-646.515563964844
-635.738708496094
-599.116455078125
-536.36279296875
-481.620208740234
-450.052642822266
-422.395233154297
-389.778564453125
-354.396179199219
-312.147125244141
-267.513793945313
-228.411956787109
-189.596237182617
-150.589767456055
-121.501815795898
-117.114776611328
-131.706436157227
-147.728652954102
-164.418472290039
-163.274017333984
-135.711990356445
-102.332374572754
-63.6120147705078
-24.4148063659668
-8.48795986175537
-21.6490669250488
-42.9166526794434
-52.453685760498
-56.3638725280762
-58.2712783813477
-51.1185035705566
-37.6712837219238
-16.4036979675293
1.43055510520935
13.1611070632935
28.7064723968506
32.9981384277344
24.6055469512939
15.6407356262207
10.6814785003662
10.4907369613647
14.0194396972656
34.4286918640137
56.8407211303711
58.4620170593262
54.5518341064453
42.9166526794434
26.9898052215576
26.0361022949219
32.4259147644043
39.9601707458496
49.2110939025879
54.3610954284668
59.7972030639648
69.0481262207031
80.6833038330078
93.367561340332
90.9833068847656
76.7731246948242
74.0073852539063
74.2934951782227
76.0101623535156
90.8879318237305
98.2314529418945
89.7434921264648
83.2583084106445
77.2499771118164
69.7157211303711
69.3342361450195
65.4240493774414
48.8296127319336
36.6222114562988
43.7749862670898
54.6472053527832
52.5490570068359
51.7860946655273
58.8434982299805
53.4073905944824
44.7286911010742
48.066650390625
45.2055397033691
43.2027626037598
56.2685012817383
58.4620170593262
45.300910949707
38.8157272338867
37.9573936462402
41.1046180725098
43.2981338500977
38.9110984802246
37.8620262145996
41.6768379211426
43.2027626037598
31.3768424987793
22.8888816833496
20.5999927520752
2.28888821601868
1.14444410800934
23.1749935150146
32.7120246887207
34.4286918640137
32.9981384277344
21.839807510376
15.6407356262207
12.588885307312
2.76573991775513
12.0166625976563
20.8861045837402
10.8722190856934
28.0388793945313
48.1620216369629
34.7148017883301
25.7499923706055
21.0768451690674
8.67870044708252
-0.762962698936462
-4.00555419921875
5.05462789535522
11.0629596710205
16.4036979675293
25.7499923706055
31.5675830841064
37.6712837219238
30.8046188354492
25.7499923706055
33.9518394470215
27.4666576385498
24.0333251953125
26.9898052215576
17.4527721405029
18.2157344818115
22.2212886810303
17.2620315551758
18.787956237793
15.4499950408936
5.53147983551025
-1.81203651428223
-8.86944198608398
-2.67036962509155
18.787956237793
27.0851764678955
27.943510055542
37.0036926269531
33.3796195983887
25.4638805389404
26.9898052215576
22.3166599273682
12.0166625976563
10.4907369613647
16.5944385528564
22.6027698516846
19.7416610717773
7.24814605712891
5.53147983551025
19.074068069458
25.0823993682861
17.6435127258301
6.58055353164673
0.762962698936462
-2.67036962509155
-4.10092449188232
4.7685170173645
8.67870044708252
-1.71666610240936
-13.0657367706299
-21.6490669250488
-27.657398223877
-31.7583236694336
-33.6657295227051
-31.8536930084229
-29.3740653991699
-26.7990646362305
-23.9379558563232
-25.7499923706055
-32.2351760864258
-31.3768424987793
-18.787956237793
-8.48795986175537
-3.33796191215515
-0.667592406272888
-8.20184898376465
-8.77407169342041
6.96203470230103
4.1962947845459
-13.9240694046021
-24.5101776123047
-30.70924949646
-31.7583236694336
-37.3851737976074
-42.0583190917969
-39.0064697265625
-44.9194297790527
-48.6388740539551
-45.2055397033691
-47.5897979736328
-49.5925750732422
-47.9712791442871
-48.734245300293
-49.9740562438965
-43.4888763427734
-38.7203598022461
-39.7694320678711
-43.4888763427734
-52.2629470825195
-43.679615020752
-19.4555492401123
-14.687032699585
-25.3685111999512
-25.0823993682861
-15.8314762115479
-6.96203470230103
-4.00555419921875
-7.53425693511963
-8.10647869110107
2.67036962509155
12.2074031829834
2.67036962509155
-9.63240432739258
-12.9703664779663
-15.35462474823
-15.35462474823
-11.3490705490112
-6.6759238243103
-12.302773475647
-23.0796222686768
-21.4583263397217
-24.5101776123047
-35.1916542053223
-29.5648059844971
-21.7444381713867
-24.5101776123047
-21.7444381713867
-19.6462898254395
-25.177770614624
-32.4259147644043
-32.7120246887207
-23.5564746856689
-21.7444381713867
-20.5999927520752
-5.34073925018311
-0.667592406272888
-13.256477355957
-9.25092315673828
-5.34073925018311
-14.5916624069214
-8.29721927642822
-6.38981294631958
-8.77407169342041
-0.667592406272888
-4.29166507720947
-3.24259161949158
11.3490705490112
17.5481433868408
14.5916624069214
7.0574049949646
4.7685170173645
14.0194396972656
20.6953639984131
24.5101776123047
29.278694152832
23.7472152709961
13.256477355957
17.1666603088379
20.6953639984131
9.15555286407471
-0.190740674734116
-2.8611102104187
-0.381481349468231
3.71944332122803
0.286111027002335
-7.24814605712891
-12.3981437683105
-13.6379585266113
-7.43888664245605
-2.1935179233551
-3.91018390655518
-5.1499981880188
-7.6296272277832
-14.7824029922485
-17.2620315551758
-12.4935140609741
-10.8722190856934
-11.4444408416748
-12.2074031829834
-16.1175880432129
-14.0194396972656
-12.6842555999756
-14.7824029922485
-10.4907369613647
-11.5398111343384
-11.2537002563477
-6.77129411697388
-12.9703664779663
-19.7416610717773
-21.1722145080566
-19.4555492401123
-13.5425882339478
-3.05185079574585
10.1092557907104
14.0194396972656
13.1611070632935
18.0249938964844
14.8777732849121
3.5287024974823
-1.43055510520935
1.81203651428223
10.3953666687012
20.0277709960938
26.4175834655762
26.3222141265869
21.5536975860596
16.5944385528564
20.8861045837402
26.9898052215576
23.9379558563232
16.8805503845215
4.38703584671021
1.71666610240936
9.9185152053833
9.15555286407471
1.9074068069458
-3.24259161949158
-0.381481349468231
-1.04907369613647
-6.00833129882813
1.14444410800934
-2.38425850868225
-18.5972156524658
-14.9731435775757
-9.537034034729
-17.4527721405029
-16.022216796875
-8.67870044708252
-0.667592406272888
5.24536848068237
-3.71944332122803
-10.1092557907104
-4.57777643203735
-5.34073925018311
-8.86944198608398
-4.38703584671021
0.0953703373670578
-1.81203651428223
-3.05185079574585
2.5749990940094
9.44166374206543
8.29721927642822
4.48240613937378
10.6814785003662
13.256477355957
1.9074068069458
-3.43333220481873
3.33796191215515
12.6842555999756
22.8888816833496
32.9027671813965
30.4231376647949
23.6518440246582
28.2296199798584
29.4694347381592
20.8861045837402
16.1175880432129
15.35462474823
12.0166625976563
11.635181427002
8.3925895690918
-0.286111027002335
-1.23981440067291
7.24814605712891
19.074068069458
27.7527694702148
21.839807510376
6.96203470230103
0.9537034034729
-1.62129580974579
-4.1962947845459
-1.14444410800934
0.9537034034729
10.7768487930298
23.8425846099854
25.2731399536133
21.9351787567139
17.2620315551758
11.9212923049927
5.24536848068237
-3.05185079574585
-1.9074068069458
-0.858333051204681
-7.34351634979248
-3.147221326828
4.38703584671021
-2.09814739227295
-5.7222204208374
2.8611102104187
8.29721927642822
6.1037015914917
1.33518481254578
-0.0953703373670578
8.48795986175537
15.6407356262207
10.3953666687012
1.23981440067291
5.05462789535522
15.4499950408936
14.9731435775757
12.9703664779663
10.7768487930298
5.62685012817383
5.43610954284668
2.67036962509155
-6.00833129882813
-13.3518476486206
-24.0333251953125
-57.6036834716797
-108.149963378906
-140.194396972656
-162.892547607422
-200.373077392578
-239.2841796875
-258.73974609375
-247.962890625
-187.498092651367
-82.4953460693359
31.7583236694336
175.958282470703
369.941558837891
580.710021972656
768.875671386719
908.30712890625
1023.70520019531
1131.759765625
1122.03210449219
955.992309570313
766.872924804688
588.721130371094
353.156372070313
50.0694274902344
-225.741592407227
-382.339691162109
-473.990600585938
-553.052612304688
-605.887756347656
-633.163696289063
-637.359985351563
-624.389587402344
-586.336853027344
-520.340576171875
-462.260040283203
-426.114685058594
-397.885070800781
-376.140625
-346.957305908203
-304.326751708984
-259.979553222656
-215.155487060547
-175.767532348633
-147.251800537109
-130.180511474609
-132.46940612793
-153.260131835938
-175.958282470703
-182.920318603516
-174.527725219727
-160.794387817383
-134.949035644531
-98.4221878051758
-63.2305335998535
-36.5268402099609
-32.6166572570801
-42.3444290161133
-50.4509086608887
-60.5601654052734
-69.8110885620117
-64.1842422485352
-40.1509132385254
-12.0166625976563
7.82036781311035
21.4583263397217
33.2842483520508
30.4231376647949
9.72777462005615
-6.96203470230103
-6.19907188415527
-2.67036962509155
-4.29166507720947
3.43333220481873
20.0277709960938
31.0907306671143
34.6194343566895
31.4722118377686
20.409252166748
7.0574049949646
2.28888821601868
10.7768487930298
28.8972129821777
45.4916534423828
53.7888717651367
55.219425201416
54.4564628601074
52.6444282531738
50.7370223999023
53.6935005187988
57.1268348693848
59.4157218933105
64.4703521728516
70.0971984863281
73.3397903442383
72.6721954345703
77.9175643920898
87.9314498901367
82.3999710083008
76.1055297851563
79.2527542114258
78.012939453125
82.4953460693359
83.7351608276367
78.2036819458008
78.4897918701172
67.5222015380859
61.0370178222656
75.7240524291992
81.2555313110352
68.5712738037109
57.0314636230469
53.8842430114746
55.0286865234375
58.3666496276855
59.0342407226563
54.8379440307617
52.5490570068359
58.0805358886719
66.6638641357422
68.4759063720703
66.9499816894531
68.3805313110352
60.4647941589355
53.8842430114746
53.4073905944824
40.913875579834
35.8592491149902
44.6333198547363
47.3036880493164
53.7888717651367
61.6092376708984
58.4620170593262
48.066650390625
43.3935050964355
43.4888763427734
38.3388748168945
38.0527648925781
39.4833221435547
37.4805450439453
40.1509132385254
35.0009155273438
26.7990646362305
27.7527694702148
23.0796222686768
10.9675893783569
0.9537034034729
-4.7685170173645
-3.91018390655518
-1.9074068069458
-4.29166507720947
-4.67314672470093
-3.91018390655518
-7.24814605712891
-7.15277528762817
-7.34351634979248
-15.9268465042114
-23.8425846099854
-23.0796222686768
-8.20184898376465
9.9185152053833
14.4009208679199
16.4036979675293
19.6462898254395
13.9240694046021
3.33796191215515
-4.00555419921875
-9.72777462005615
-6.38981294631958
5.81759071350098
9.25092315673828
1.14444410800934
1.71666610240936
5.24536848068237
-6.96203470230103
-18.0249938964844
-19.1694374084473
-19.9324016571045
-11.0629596710205
4.67314672470093
10.5861072540283
11.635181427002
13.7333288192749
17.2620315551758
30.0416564941406
32.4259147644043
15.7361059188843
15.1638841629028
25.4638805389404
21.839807510376
20.409252166748
18.6925868988037
11.1583299636841
15.1638841629028
13.6379585266113
1.62129580974579
3.147221326828
5.24536848068237
-4.48240613937378
-0.286111027002335
20.6953639984131
29.7555465698242
25.177770614624
22.6027698516846
20.2185115814209
20.2185115814209
19.6462898254395
6.1037015914917
-1.52592539787292
3.24259161949158
-8.77407169342041
-23.5564746856689
-18.3111057281494
-12.9703664779663
-16.5944385528564
-23.6518440246582
-26.6083240509033
-20.8861045837402
-14.1148099899292
-13.1611070632935
-17.6435127258301
-26.9898052215576
-32.4259147644043
-32.4259147644043
-31.2814712524414
-26.1314735412598
-24.4148063659668
-24.4148063659668
-26.8944358825684
-35.1916542053223
-35.0962867736816
-37.1944313049316
-38.5296173095703
-28.7064723968506
-27.5620288848877
-26.9898052215576
-25.7499923706055
-35.9546165466309
-46.5407257080078
-52.8351669311523
-52.5490570068359
-54.8379440307617
-56.7453536987305
-42.4398002624512
-28.6111011505127
-27.1805477142334
-28.5157318115234
-33.4749908447266
-38.6249885559082
-35.4777679443359
-27.3712882995605
-19.1694374084473
-10.4907369613647
-2.28888821601868
0
-4.95925760269165
-13.256477355957
-21.2675857543945
-29.278694152832
-29.6601753234863
-22.4120292663574
-22.4120292663574
-28.4203605651855
-31.6629524230957
-28.2296199798584
-25.2731399536133
-30.8046188354492
-33.1888771057129
-23.4611034393311
-11.8259220123291
-12.3981437683105
-12.9703664779663
-14.5916624069214
-29.5648059844971
-37.0036926269531
-32.1398048400879
-30.0416564941406
-33.4749908447266
-39.5786895751953
-41.2953567504883
-31.6629524230957
-19.4555492401123
-20.8861045837402
-24.3194370269775
-16.5944385528564
-8.86944198608398
-2.00277709960938
-0.0953703373670578
-9.72777462005615
-12.0166625976563
-6.6759238243103
-12.7796258926392
-22.6981410980225
-28.6111011505127
-31.7583236694336
-29.3740653991699
-22.6027698516846
-18.4064750671387
-17.357400894165
-13.3518476486206
-10.3953666687012
-12.9703664779663
-15.35462474823
-16.4036979675293
-18.6925868988037
-14.7824029922485
-11.4444408416748
-12.8749961853027
-6.00833129882813
1.04907369613647
4.1962947845459
13.5425882339478
21.1722145080566
13.0657367706299
1.9074068069458
2.76573991775513
0.667592406272888
-4.00555419921875
4.29166507720947
14.7824029922485
22.5074005126953
26.0361022949219
16.8805503845215
11.8259220123291
16.30832862854
22.5074005126953
26.0361022949219
17.738883972168
15.35462474823
24.891658782959
26.0361022949219
18.8833274841309
14.8777732849121
19.4555492401123
19.5509204864502
11.0629596710205
8.67870044708252
10.2999963760376
11.4444408416748
8.86944198608398
10.8722190856934
17.357400894165
3.05185079574585
-11.7305517196655
-1.33518481254578
6.58055353164673
8.48795986175537
10.5861072540283
4.95925760269165
6.38981294631958
16.9759197235107
23.0796222686768
19.5509204864502
14.9731435775757
13.9240694046021
4.38703584671021
-4.1962947845459
0.0953703373670578
6.00833129882813
12.6842555999756
21.839807510376
30.3277683258057
34.3333206176758
26.5129547119141
16.5944385528564
22.0305480957031
26.5129547119141
18.3111057281494
14.8777732849121
16.7851791381836
14.4962921142578
12.0166625976563
11.7305517196655
14.0194396972656
20.5046234130859
22.5074005126953
16.2129573822021
13.6379585266113
20.8861045837402
27.4666576385498
27.3712882995605
25.5592517852783
19.5509204864502
14.5916624069214
18.3111057281494
17.738883972168
15.5453653335571
17.8342533111572
18.8833274841309
19.4555492401123
14.2101802825928
2.1935179233551
3.5287024974823
20.3138828277588
26.7990646362305
19.9324016571045
19.2648086547852
17.9296245574951
8.3925895690918
15.6407356262207
31.3768424987793
32.2351760864258
30.6138782501221
18.9786968231201
-2.67036962509155
-11.1583299636841
-12.2074031829834
-9.63240432739258
-4.48240613937378
-3.147221326828
-0.572222054004669
-4.00555419921875
-11.2537002563477
-9.15555286407471
-8.58333015441895
-5.1499981880188
5.53147983551025
6.77129411697388
-1.9074068069458
-10.204626083374
-9.82314491271973
-4.67314672470093
6.1037015914917
13.3518476486206
3.147221326828
-1.43055510520935
-0.858333051204681
-5.62685012817383
0.381481349468231
5.53147983551025
0.47685170173645
1.62129580974579
1.62129580974579
-6.29444265365601
-6.77129411697388
-5.43610954284668
-7.15277528762817
0.572222054004669
5.05462789535522
-3.05185079574585
-6.1037015914917
-8.10647869110107
-20.8861045837402
-36.431468963623
-54.2657241821289
-80.8740463256836
-116.44718170166
-160.889770507813
-199.419387817383
-231.463821411133
-264.557312011719
-266.464721679688
-211.436050415039
-112.25089263916
0.190740674734116
131.706436157227
310.239715576172
519.482238769531
729.583129882813
888.946960449219
990.611694335938
1090.46447753906
1122.22277832031
990.993225097656
794.81640625
625.152587890625
427.735961914063
151.63883972168
-143.436996459961
-335.41748046875
-442.041534423828
-539.319274902344
-608.462768554688
-643.27294921875
-659.485900878906
-652.809997558594
-617.23681640625
-559.251647949219
-503.078552246094
-463.023010253906
-432.695220947266
-403.98876953125
-372.707275390625
-337.610992431641
-294.312866210938
-242.526779174805
-193.792526245117
-157.170318603516
-131.515701293945
-119.880516052246
-134.758285522461
-159.936065673828
-167.088836669922
-161.461990356445
-149.254577636719
-126.556442260742
-93.4629364013672
-54.4564628601074
-25.9407329559326
-20.5999927520752
-29.7555465698242
-43.2027626037598
-55.3147964477539
-64.6610870361328
-67.5222015380859
-48.734245300293
-14.5916624069214
7.34351634979248
10.3953666687012
14.3055505752563
23.5564746856689
18.5972156524658
10.8722190856934
15.0685138702393
15.9268465042114
22.2212886810303
42.9166526794434
57.6036834716797
56.8407211303711
53.3120193481445
61.323127746582
55.4101676940918
29.6601753234863
22.6981410980225
26.8944358825684
31.6629524230957
36.2407302856445
35.8592491149902
42.9166526794434
44.7286911010742
39.9601707458496
40.4370231628418
39.864803314209
41.6768379211426
46.5407257080078
49.9740562438965
50.2601699829102
41.7722091674805
35.9546165466309
44.6333198547363
58.1759071350098
65.7101669311523
63.039794921875
56.936092376709
58.0805358886719
58.0805358886719
55.9823913574219
57.2222023010254
50.9277610778809
42.0583190917969
51.0231323242188
67.3314590454102
68.2851638793945
64.0888671875
64.0888671875
61.5138702392578
59.2249794006348
58.4620170593262
58.0805358886719
54.7425765991211
50.7370223999023
53.7888717651367
62.3722038269043
63.1351661682129
56.0777587890625
57.9851684570313
58.9388694763184
55.0286865234375
55.887020111084
47.5897979736328
37.2898025512695
43.5842437744141
54.170352935791
58.1759071350098
61.2277565002441
59.2249794006348
52.2629470825195
51.404613494873
48.6388740539551
38.7203598022461
33.6657295227051
36.7175827026367
41.1046180725098
47.7805404663086
54.0749816894531
47.3036880493164
33.761100769043
23.2703628540039
13.256477355957
11.2537002563477
10.0138854980469
2.67036962509155
5.53147983551025
13.9240694046021
18.2157344818115
22.4120292663574
23.7472152709961
25.0823993682861
25.8453617095947
20.2185115814209
16.30832862854
17.5481433868408
18.8833274841309
21.5536975860596
27.5620288848877
35.0009155273438
31.6629524230957
15.6407356262207
6.6759238243103
-1.43055510520935
-9.537034034729
-3.147221326828
-0.0953703373670578
-2.95648050308228
-0.667592406272888
1.14444410800934
0.0953703373670578
0.381481349468231
-5.05462789535522
-14.7824029922485
-9.537034034729
-3.43333220481873
-4.1962947845459
1.71666610240936
-2.28888821601868
-11.0629596710205
-2.95648050308228
5.91296100616455
0.9537034034729
-11.3490705490112
-22.8888816833496
-23.4611034393311
-10.8722190856934
1.52592539787292
5.43610954284668
7.91573810577393
14.3055505752563
15.9268465042114
10.7768487930298
7.43888664245605
7.91573810577393
0.762962698936462
-10.1092557907104
-7.53425693511963
-1.62129580974579
-5.34073925018311
-8.3925895690918
-5.34073925018311
0.190740674734116
3.33796191215515
2.5749990940094
0.667592406272888
-0.0953703373670578
2.09814739227295
4.1962947845459
3.43333220481873
4.38703584671021
2.09814739227295
-6.38981294631958
-13.1611070632935
-24.3194370269775
-29.0879535675049
-19.8370304107666
-22.0305480957031
-29.1833248138428
-20.9814739227295
-11.7305517196655
-12.4935140609741
-12.302773475647
-1.9074068069458
4.86388731002808
-4.1962947845459
-15.0685138702393
-22.0305480957031
-24.3194370269775
-19.6462898254395
-18.8833274841309
-17.6435127258301
-8.20184898376465
-2.95648050308228
-4.48240613937378
-5.05462789535522
-3.43333220481873
-1.71666610240936
-8.0111083984375
-16.022216796875
-17.1666603088379
-23.7472152709961
-34.5240631103516
-31.1861019134521
-23.3657341003418
-30.6138782501221
-39.197208404541
-39.9601707458496
-42.0583190917969
-41.6768379211426
-43.1073951721191
-45.9685020446777
-36.6222114562988
-26.8944358825684
-27.1805477142334
-27.3712882995605
-30.1370277404785
-34.810173034668
-29.5648059844971
-24.3194370269775
-27.7527694702148
-27.1805477142334
-22.2212886810303
-20.7907333374023
-20.5046234130859
-20.7907333374023
-29.7555465698242
-35.0009155273438
-26.6083240509033
-22.8888816833496
-26.3222141265869
-29.7555465698242
-34.9055442810059
-32.04443359375
-23.6518440246582
-24.2240657806396
-23.5564746856689
-21.9351787567139
-24.7962875366211
-19.360179901123
-17.357400894165
-22.4120292663574
-16.6898097991943
-11.3490705490112
-10.5861072540283
-9.72777462005615
-15.4499950408936
-22.9842510223389
-27.4666576385498
-28.6111011505127
-28.0388793945313
-32.9027671813965
-34.7148017883301
-34.9055442810059
-40.4370231628418
-34.3333206176758
-15.7361059188843
-2.38425850868225
3.62407302856445
5.7222204208374
6.6759238243103
9.44166374206543
12.2074031829834
12.1120328903198
12.302773475647
17.6435127258301
18.1203651428223
10.2999963760376
7.15277528762817
13.0657367706299
18.8833274841309
13.256477355957
3.147221326828
-1.9074068069458
-4.57777643203735
-0.762962698936462
0.762962698936462
-7.43888664245605
-14.2101802825928
-19.360179901123
-22.8888816833496
-21.3629570007324
-16.30832862854
-13.9240694046021
-22.5074005126953
-26.3222141265869
-12.588885307312
0.381481349468231
3.8148136138916
4.86388731002808
6.29444265365601
7.0574049949646
8.3925895690918
10.3953666687012
3.24259161949158
-4.10092449188232
3.147221326828
16.5944385528564
28.2296199798584
34.4286918640137
28.6111011505127
15.4499950408936
3.43333220481873
0.9537034034729
6.38981294631958
6.6759238243103
7.82036781311035
14.4009208679199
16.022216796875
17.9296245574951
23.3657341003418
23.2703628540039
18.5972156524658
17.6435127258301
21.9351787567139
26.7036952972412
24.4148063659668
17.357400894165
15.0685138702393
13.4472179412842
12.7796258926392
12.1120328903198
1.04907369613647
-4.1962947845459
3.91018390655518
8.48795986175537
9.15555286407471
6.1037015914917
5.43610954284668
13.7333288192749
15.6407356262207
15.7361059188843
21.2675857543945
17.4527721405029
9.537034034729
5.34073925018311
3.43333220481873
11.2537002563477
13.0657367706299
1.23981440067291
0.47685170173645
14.5916624069214
25.7499923706055
22.2212886810303
18.3111057281494
22.7935104370117
23.1749935150146
24.1286964416504
28.3249912261963
29.3740653991699
28.3249912261963
23.6518440246582
19.1694374084473
20.8861045837402
34.3333206176758
45.5870208740234
37.2898025512695
34.0472106933594
40.2462844848633
33.5703582763672
24.7962875366211
17.0712909698486
12.7796258926392
17.5481433868408
8.0111083984375
-3.147221326828
0.9537034034729
-3.147221326828
-9.82314491271973
-4.7685170173645
0.190740674734116
2.00277709960938
3.43333220481873
6.19907188415527
13.6379585266113
19.2648086547852
14.7824029922485
9.25092315673828
7.72499752044678
2.09814739227295
-7.24814605712891
-14.9731435775757
-14.8777732849121
-11.2537002563477
-10.8722190856934
-5.1499981880188
-3.62407302856445
-9.72777462005615
-9.25092315673828
-3.24259161949158
2.8611102104187
-2.09814739227295
-11.4444408416748
-10.6814785003662
-16.30832862854
-25.6546211242676
-27.4666576385498
-31.1861019134521
-31.3768424987793
-28.8018417358398
-32.4259147644043
-38.7203598022461
-55.6009063720703
-80.5879364013672
-101.37866973877
-126.365699768066
-156.121246337891
-188.833267211914
-223.261962890625
-232.512893676758
-194.936981201172
-112.25089263916
-13.6379585266113
90.7925643920898
240.428619384766
447.191528320313
662.633117675781
825.430297851563
927.667297363281
1029.14135742188
1107.4404296875
1028.85522460938
830.389526367188
643.55908203125
450.624847412109
193.887893676758
-101.092559814453
-312.433227539063
-424.874877929688
-522.247985839844
-592.917419433594
-631.160888671875
-647.659973144531
-638.50439453125
-616.378479003906
-575.750732421875
-519.386840820313
-475.421142578125
-450.338745117188
-428.498931884766
-399.315612792969
-358.210998535156
-305.948059082031
-237.281402587891
-171.952728271484
-128.845321655273
-96.8962631225586
-83.4490509033203
-89.9342269897461
-100.52033996582
-113.299964904785
-122.93236541748
-117.400886535645
-97.6592254638672
-69.5249786376953
-43.8703575134277
-28.5157318115234
-30.8999900817871
-53.0259094238281
-59.9879455566406
-44.0610961914063
-43.2981338500977
-45.6823921203613
-32.1398048400879
-16.30832862854
-3.91018390655518
9.82314491271973
22.0305480957031
23.0796222686768
14.5916624069214
2.28888821601868
-2.47962880134583
2.38425850868225
6.48518323898315
17.0712909698486
34.6194343566895
48.3527641296387
58.7481307983398
59.0342407226563
51.404613494873
44.9194297790527
34.4286918640137
27.5620288848877
30.995361328125
33.761100769043
43.1073951721191
59.701831817627
70.5740509033203
72.0999755859375
68.4759063720703
65.7101669311523
61.6092376708984
57.8897972106934
56.5546112060547
58.4620170593262
64.756462097168
76.296272277832
78.8712692260742
62.2768325805664
58.8434982299805
66.0916442871094
56.5546112060547
49.8786888122559
58.7481307983398
64.4703521728516
65.0425720214844
68.7620162963867
71.1462707519531
76.8684921264648
80.778678894043
79.2527542114258
84.1166381835938
81.827751159668
68.8573837280273
65.2333145141602
58.652759552002
52.3583183288574
60.1786842346191
64.1842422485352
61.1323890686035
59.6064605712891
61.4184989929199
64.6610870361328
66.5684967041016
59.701831817627
39.197208404541
26.3222141265869
27.5620288848877
26.1314735412598
20.5999927520752
15.9268465042114
15.5453653335571
27.2759170532227
33.8564720153809
18.0249938964844
6.6759238243103
4.38703584671021
-0.381481349468231
4.00555419921875
10.1092557907104
12.1120328903198
21.839807510376
39.1018409729004
45.8731346130371
33.2842483520508
22.6981410980225
20.0277709960938
9.15555286407471
-0.858333051204681
2.28888821601868
10.2999963760376
15.5453653335571
23.3657341003418
31.4722118377686
33.4749908447266
33.5703582763672
23.6518440246582
7.34351634979248
15.0685138702393
24.9870281219482
16.30832862854
20.409252166748
39.0064697265625
47.4944305419922
40.6277656555176
31.5675830841064
26.9898052215576
17.5481433868408
9.82314491271973
9.63240432739258
6.96203470230103
10.3953666687012
20.1231422424316
17.9296245574951
10.9675893783569
10.7768487930298
8.86944198608398
3.24259161949158
-1.23981440067291
-9.06018257141113
-19.4555492401123
-18.8833274841309
-7.72499752044678
-5.53147983551025
-18.2157344818115
-20.6953639984131
-11.9212923049927
-16.1175880432129
-23.5564746856689
-31.6629524230957
-48.8296127319336
-54.0749816894531
-45.2055397033691
-43.1073951721191
-45.4916534423828
-46.1592445373535
-48.5435028076172
-45.6823921203613
-41.2953567504883
-40.8185043334961
-36.6222114562988
-41.0092468261719
-44.8240585327148
-26.3222141265869
-15.0685138702393
-21.3629570007324
-28.1342506408691
-37.4805450439453
-37.099063873291
-27.2759170532227
-25.5592517852783
-29.9462871551514
-30.70924949646
-25.3685111999512
-22.6981410980225
-24.4148063659668
-21.0768451690674
-18.4064750671387
-23.7472152709961
-32.8073959350586
-39.3879508972168
-39.2925796508789
-35.0962867736816
-26.6083240509033
-17.9296245574951
-13.8286991119385
-16.1175880432129
-21.4583263397217
-13.3518476486206
-7.24814605712891
-18.1203651428223
-18.4064750671387
-10.2999963760376
-15.5453653335571
-21.4583263397217
-14.9731435775757
-8.29721927642822
-8.58333015441895
-12.588885307312
-13.256477355957
0
4.7685170173645
-15.8314762115479
-25.7499923706055
-16.6898097991943
-13.256477355957
-8.96481227874756
-4.1962947845459
-5.43610954284668
-2.1935179233551
3.8148136138916
4.29166507720947
0.858333051204681
3.71944332122803
6.6759238243103
6.58055353164673
10.2999963760376
13.4472179412842
14.687032699585
9.63240432739258
7.82036781311035
14.1148099899292
13.4472179412842
7.6296272277832
1.81203651428223
-0.190740674734116
0.0953703373670578
-0.47685170173645
7.34351634979248
10.0138854980469
0.381481349468231
0.667592406272888
2.8611102104187
-3.5287024974823
1.43055510520935
10.1092557907104
7.24814605712891
1.52592539787292
1.14444410800934
3.147221326828
-2.1935179233551
-5.05462789535522
2.47962880134583
6.1037015914917
-0.381481349468231
-16.5944385528564
-26.5129547119141
-20.1231422424316
-15.4499950408936
-12.8749961853027
-7.91573810577393
-2.5749990940094
1.43055510520935
-6.1037015914917
-13.3518476486206
-18.5018463134766
-29.0879535675049
-27.7527694702148
-20.5046234130859
-17.357400894165
-12.588885307312
-9.44166374206543
-8.48795986175537
-6.6759238243103
-10.4907369613647
-12.0166625976563
-7.82036781311035
-8.0111083984375
-7.91573810577393
-10.8722190856934
-16.1175880432129
-7.72499752044678
7.15277528762817
13.3518476486206
9.25092315673828
4.7685170173645
9.82314491271973
18.1203651428223
22.0305480957031
22.3166599273682
20.5999927520752
17.5481433868408
16.7851791381836
18.4064750671387
15.4499950408936
9.72777462005615
6.58055353164673
7.0574049949646
2.8611102104187
-6.00833129882813
-8.96481227874756
-6.96203470230103
-2.09814739227295
1.14444410800934
-4.95925760269165
-10.1092557907104
-4.86388731002808
-4.1962947845459
-8.10647869110107
-3.71944332122803
-5.53147983551025
-11.8259220123291
-14.2101802825928
-20.5999927520752
-21.4583263397217
-20.9814739227295
-25.2731399536133
-21.5536975860596
-14.4009208679199
-7.15277528762817
0.286111027002335
-2.28888821601868
0
18.2157344818115
27.3712882995605
22.125919342041
15.7361059188843
9.63240432739258
9.82314491271973
13.5425882339478
14.0194396972656
17.8342533111572
25.9407329559326
25.3685111999512
19.2648086547852
21.6490669250488
33.5703582763672
46.1592445373535
48.4481315612793
42.1536903381348
43.8703575134277
48.2573928833008
41.7722091674805
45.8731346130371
55.6962776184082
40.913875579834
19.8370304107666
15.35462474823
12.4935140609741
3.91018390655518
-3.33796191215515
-10.8722190856934
-10.7768487930298
-2.8611102104187
-3.91018390655518
-4.00555419921875
1.43055510520935
0.190740674734116
-0.0953703373670578
-3.62407302856445
-13.3518476486206
-18.5972156524658
-23.0796222686768
-20.6953639984131
-9.44166374206543
-1.71666610240936
-1.43055510520935
-2.09814739227295
1.71666610240936
-0.667592406272888
-4.86388731002808
-5.24536848068237
-14.1148099899292
-17.357400894165
-13.6379585266113
-16.30832862854
-14.2101802825928
-7.24814605712891
-4.67314672470093
1.52592539787292
12.302773475647
15.5453653335571
8.10647869110107
-3.62407302856445
-2.00277709960938
16.4036979675293
24.3194370269775
18.787956237793
17.0712909698486
14.2101802825928
4.29166507720947
-3.62407302856445
-10.9675893783569
-24.891658782959
-39.4833221435547
-59.6064605712891
-97.849967956543
-134.66291809082
-154.118469238281
-185.209197998047
-230.891586303711
-259.884185791016
-261.123992919922
-214.774002075195
-122.83699798584
-30.4231376647949
76.6777496337891
240.619369506836
448.431335449219
660.534973144531
822.66455078125
927.381164550781
1046.78479003906
1117.93115234375
1008.15985107422
819.517333984375
652.428466796875
446.142456054688
175.386047363281
-115.302742004395
-319.204528808594
-421.441528320313
-503.460021972656
-570.314636230469
-601.786865234375
-617.141479492188
-626.964599609375
-610.274780273438
-557.821105957031
-493.54150390625
-456.537811279297
-447.477630615234
-427.163757324219
-382.816558837891
-329.027679443359
-279.244354248047
-229.937896728516
-175.386047363281
-135.425888061523
-121.215698242188
-125.221252441406
-144.295318603516
-158.982360839844
-164.323089599609
-169.949951171875
-158.791610717773
-128.654586791992
-94.9888610839844
-54.6472053527832
-19.6462898254395
-12.588885307312
-20.5046234130859
-28.1342506408691
-40.1509132385254
-49.5925750732422
-48.4481315612793
-41.962947845459
-27.8481388092041
-5.43610954284668
7.15277528762817
12.588885307312
21.4583263397217
23.0796222686768
15.0685138702393
5.81759071350098
1.62129580974579
6.38981294631958
21.3629570007324
37.9573936462402
54.7425765991211
67.1407165527344
59.2249794006348
52.3583183288574
54.5518341064453
42.1536903381348
34.810173034668
43.679615020752
50.1647987365723
57.5083160400391
65.0425720214844
70.8601608276367
78.8712692260742
83.7351608276367
83.8305282592773
83.8305282592773
80.5879364013672
70.8601608276367
68.8573837280273
72.2907180786133
73.1490478515625
83.7351608276367
90.220344543457
83.925895690918
90.9833068847656
104.62126159668
98.0407104492188
86.0240478515625
81.4462738037109
70.5740509033203
61.323127746582
62.2768325805664
67.903678894043
80.111083984375
87.6453399658203
80.4925689697266
72.7675704956055
66.854606628418
57.3175735473633
47.8759117126465
46.4453544616699
51.404613494873
50.4509086608887
48.734245300293
57.6990547180176
71.2416458129883
83.7351608276367
93.1768188476563
94.03515625
82.2092361450195
63.6120147705078
52.7397994995117
44.8240585327148
39.6740608215332
49.5925750732422
62.9444236755371
66.4731292724609
62.7536849975586
54.4564628601074
47.6851692199707
46.1592445373535
40.5323944091797
22.9842510223389
10.2999963760376
12.302773475647
18.8833274841309
27.1805477142334
28.2296199798584
21.4583263397217
22.3166599273682
24.7962875366211
14.4009208679199
1.9074068069458
1.71666610240936
-0.190740674734116
-2.1935179233551
6.29444265365601
9.25092315673828
1.23981440067291
-6.29444265365601
-4.7685170173645
4.67314672470093
8.58333015441895
3.24259161949158
2.00277709960938
9.537034034729
18.5018463134766
23.3657341003418
17.4527721405029
7.0574049949646
2.76573991775513
4.38703584671021
7.43888664245605
8.0111083984375
13.0657367706299
19.2648086547852
18.5018463134766
18.5972156524658
22.2212886810303
20.7907333374023
16.8805503845215
9.44166374206543
-8.48795986175537
-20.8861045837402
-20.409252166748
-21.1722145080566
-27.7527694702148
-35.2870254516602
-27.657398223877
-16.2129573822021
-19.8370304107666
-21.4583263397217
-23.9379558563232
-28.4203605651855
-29.7555465698242
-34.2379531860352
-30.8046188354492
-28.3249912261963
-23.2703628540039
-13.5425882339478
-19.9324016571045
-32.1398048400879
-30.4231376647949
-21.6490669250488
-21.1722145080566
-24.2240657806396
-18.8833274841309
-11.7305517196655
-13.9240694046021
-21.7444381713867
-24.7962875366211
-26.4175834655762
-26.6083240509033
-20.6953639984131
-23.8425846099854
-32.9981384277344
-29.6601753234863
-24.7962875366211
-21.839807510376
-15.5453653335571
-15.5453653335571
-17.357400894165
-16.4036979675293
-17.9296245574951
-17.6435127258301
-25.8453617095947
-44.1564674377441
-43.4888763427734
-31.4722118377686
-30.8046188354492
-31.9490642547607
-34.7148017883301
-37.1944313049316
-35.8592491149902
-39.6740608215332
-41.8675804138184
-45.4916534423828
-52.7397994995117
-54.3610954284668
-57.1268348693848
-58.652759552002
-53.7888717651367
-56.7453536987305
-61.1323890686035
-48.2573928833008
-34.810173034668
-38.2435073852539
-44.5379486083984
-44.3472061157227
-39.6740608215332
-37.2898025512695
-35.4777679443359
-33.0935096740723
-39.5786895751953
-40.7231369018555
-31.9490642547607
-27.1805477142334
-22.3166599273682
-17.357400894165
-15.1638841629028
-10.8722190856934
-3.8148136138916
0.190740674734116
-2.38425850868225
-0.286111027002335
5.24536848068237
2.00277709960938
2.38425850868225
8.58333015441895
8.20184898376465
2.8611102104187
4.1962947845459
7.15277528762817
4.48240613937378
11.1583299636841
12.4935140609741
-1.33518481254578
-8.77407169342041
-11.7305517196655
-9.06018257141113
-0.667592406272888
2.5749990940094
0.572222054004669
-6.58055353164673
-7.53425693511963
5.1499981880188
13.6379585266113
7.6296272277832
3.147221326828
2.76573991775513
-18.787956237793
-43.0120239257813
-39.197208404541
-30.3277683258057
-27.657398223877
-18.5018463134766
-8.96481227874756
-8.3925895690918
-5.62685012817383
2.38425850868225
3.147221326828
-4.00555419921875
-4.95925760269165
2.09814739227295
5.34073925018311
18.9786968231201
41.3907279968262
36.6222114562988
23.0796222686768
29.9462871551514
31.6629524230957
23.9379558563232
24.4148063659668
22.6981410980225
20.0277709960938
24.2240657806396
22.7935104370117
15.5453653335571
12.9703664779663
10.0138854980469
2.38425850868225
6.29444265365601
13.7333288192749
7.24814605712891
4.48240613937378
11.9212923049927
12.0166625976563
8.29721927642822
13.0657367706299
17.2620315551758
11.1583299636841
2.1935179233551
0.572222054004669
4.29166507720947
10.5861072540283
19.4555492401123
26.6083240509033
23.4611034393311
11.3490705490112
4.48240613937378
4.48240613937378
6.86666440963745
17.6435127258301
28.8018417358398
24.9870281219482
15.9268465042114
9.9185152053833
-2.47962880134583
-8.48795986175537
-2.8611102104187
-9.72777462005615
-14.1148099899292
-3.05185079574585
0.572222054004669
0
2.8611102104187
1.62129580974579
-4.86388731002808
-8.0111083984375
2.00277709960938
11.1583299636841
5.53147983551025
1.62129580974579
9.25092315673828
16.2129573822021
25.6546211242676
29.1833248138428
21.839807510376
26.9898052215576
34.0472106933594
28.8018417358398
24.891658782959
22.0305480957031
15.9268465042114
14.8777732849121
18.1203651428223
9.72777462005615
-2.8611102104187
-0.572222054004669
7.72499752044678
6.86666440963745
2.09814739227295
3.62407302856445
2.8611102104187
2.1935179233551
11.9212923049927
16.7851791381836
18.4064750671387
24.3194370269775
16.9759197235107
8.48795986175537
25.9407329559326
44.3472061157227
39.197208404541
33.2842483520508
37.3851737976074
35.0009155273438
26.7036952972412
23.8425846099854
25.2731399536133
22.7935104370117
17.0712909698486
13.8286991119385
14.7824029922485
17.5481433868408
21.6490669250488
21.4583263397217
11.1583299636841
4.86388731002808
8.3925895690918
3.43333220481873
-3.71944332122803
2.28888821601868
7.24814605712891
4.57777643203735
-1.23981440067291
-11.8259220123291
-13.4472179412842
-6.48518323898315
4.48240613937378
12.7796258926392
1.52592539787292
-8.77407169342041
-1.9074068069458
-0.858333051204681
-12.4935140609741
-21.0768451690674
-27.5620288848877
-34.810173034668
-34.810173034668
-22.8888816833496
-13.6379585266113
-21.1722145080566
-26.5129547119141
-19.9324016571045
-14.687032699585
-10.2999963760376
-4.29166507720947
0.858333051204681
-2.09814739227295
-5.43610954284668
-6.29444265365601
-15.5453653335571
-25.0823993682861
-37.7666549682617
-58.2712783813477
-81.0647888183594
-114.34903717041
-152.211059570313
-179.3916015625
-205.1416015625
-242.145294189453
-270.851776123047
-268.562866210938
-217.253631591797
-116.161071777344
-10.7768487930298
118.259223937988
308.427673339844
515.858154296875
717.184936523438
879.886779785156
998.336730957031
1119.36169433594
1149.88012695313
997.192260742188
791.001586914063
619.716491699219
415.719299316406
135.711990356445
-160.794387817383
-351.439697265625
-447.859130859375
-529.019287109375
-592.345153808594
-640.221069335938
-672.837768554688
-672.456237792969
-640.793334960938
-586.622985839844
-521.198913574219
-464.262817382813
-433.267456054688
-412.190612792969
-371.467468261719
-318.727661132813
-274.285095214844
-226.123077392578
-168.137908935547
-127.128662109375
-111.869407653809
-112.25089263916
-127.796257019043
-149.54069519043
-156.979583740234
-145.153656005859
-122.83699798584
-104.716636657715
-87.5499725341797
-61.4184989929199
-39.864803314209
-39.0064697265625
-52.3583183288574
-63.7073860168457
-77.4407196044922
-92.6045989990234
-92.6045989990234
-75.6286773681641
-49.2110939025879
-27.657398223877
-20.409252166748
-18.5972156524658
-13.0657367706299
-9.25092315673828
-16.7851791381836
-24.7962875366211
-11.0629596710205
15.5453653335571
31.5675830841064
38.7203598022461
43.9657249450684
43.1073951721191
39.0064697265625
29.6601753234863
20.6953639984131
26.7990646362305
34.6194343566895
35.1916542053223
43.679615020752
56.6499824523926
67.0453491210938
81.3508987426758
90.1249694824219
84.4981231689453
79.6342315673828
81.827751159668
83.925895690918
85.9286727905273
89.4573822021484
98.8036727905273
104.907371520996
96.800895690918
93.7490463256836
104.049041748047
101.760154724121
87.9314498901367
82.2092361450195
77.7268295288086
73.2444229125977
73.4351654052734
71.4323883056641
74.5796051025391
75.1518249511719
63.1351661682129
63.3259048461914
71.1462707519531
71.1462707519531
76.2009048461914
82.0184936523438
80.2064590454102
74.6749725341797
67.6175689697266
62.0860900878906
67.6175689697266
77.6314544677734
76.0101623535156
69.6203460693359
69.7157211303711
74.2934951782227
69.0481262207031
57.3175735473633
57.0314636230469
52.0722045898438
35.9546165466309
37.099063873291
47.3036880493164
45.6823921203613
46.6360969543457
49.0203552246094
44.1564674377441
44.3472061157227
50.9277610778809
53.7888717651367
57.6036834716797
56.8407211303711
47.1129493713379
49.1157264709473
55.6009063720703
53.3120193481445
49.2110939025879
34.810173034668
20.409252166748
18.1203651428223
15.2592544555664
15.2592544555664
24.2240657806396
37.9573936462402
45.2055397033691
47.7805404663086
47.7805404663086
30.8999900817871
17.0712909698486
17.0712909698486
16.6898097991943
20.2185115814209
21.0768451690674
21.4583263397217
24.891658782959
20.6953639984131
18.787956237793
12.0166625976563
-5.91296100616455
-17.5481433868408
-16.7851791381836
-10.9675893783569
-10.6814785003662
-5.1499981880188
7.24814605712891
2.5749990940094
-11.1583299636841
-11.5398111343384
-11.9212923049927
-20.7907333374023
-21.0768451690674
-12.2074031829834
-2.1935179233551
7.34351634979248
16.7851791381836
17.5481433868408
10.9675893783569
2.28888821601868
-12.6842555999756
-16.30832862854
-6.1037015914917
-2.8611102104187
-4.7685170173645
-6.1037015914917
-10.2999963760376
-13.4472179412842
-11.3490705490112
-11.635181427002
-10.4907369613647
0.858333051204681
7.43888664245605
4.48240613937378
-2.76573991775513
-17.4527721405029
-28.8018417358398
-27.8481388092041
-29.3740653991699
-37.0036926269531
-40.2462844848633
-42.5351715087891
-49.5925750732422
-50.1647987365723
-38.148136138916
-36.0499877929688
-46.2546157836914
-51.4999847412109
-52.453685760498
-56.1731300354004
-63.7073860168457
-61.99072265625
-55.9823913574219
-54.8379440307617
-48.3527641296387
-46.8268356323242
-51.4999847412109
-45.6823921203613
-34.5240631103516
-22.5074005126953
-15.2592544555664
-19.360179901123
-23.0796222686768
-20.409252166748
-23.4611034393311
-28.5157318115234
-25.5592517852783
-22.125919342041
-25.5592517852783
-30.8046188354492
-36.2407302856445
-45.9685020446777
-52.8351669311523
-59.701831817627
-69.5249786376953
-69.8110885620117
-57.3175735473633
-40.0555419921875
-29.278694152832
-28.3249912261963
-32.9981384277344
-38.3388748168945
-38.2435073852539
-26.7036952972412
-17.0712909698486
-25.7499923706055
-33.3796195983887
-31.3768424987793
-37.5759124755859
-42.0583190917969
-35.9546165466309
-28.3249912261963
-20.409252166748
-11.3490705490112
-4.67314672470093
-7.72499752044678
-11.5398111343384
-9.72777462005615
-9.25092315673828
-12.1120328903198
-18.0249938964844
-18.5018463134766
-16.1175880432129
-19.5509204864502
-19.9324016571045
-15.0685138702393
-10.7768487930298
-8.0111083984375
-13.9240694046021
-24.1286964416504
-24.1286964416504
-16.2129573822021
-14.3055505752563
-20.5999927520752
-22.8888816833496
-22.6027698516846
-24.891658782959
-19.074068069458
-10.1092557907104
-4.67314672470093
1.71666610240936
4.57777643203735
10.204626083374
18.8833274841309
21.2675857543945
23.0796222686768
27.943510055542
27.1805477142334
23.7472152709961
29.9462871551514
33.2842483520508
21.4583263397217
16.6898097991943
21.6490669250488
19.1694374084473
14.5916624069214
8.10647869110107
4.10092449188232
12.2074031829834
13.6379585266113
7.0574049949646
7.6296272277832
12.588885307312
19.6462898254395
21.1722145080566
17.1666603088379
16.8805503845215
20.0277709960938
24.7009181976318
22.125919342041
16.30832862854
27.657398223877
40.2462844848633
33.1888771057129
18.3111057281494
11.8259220123291
15.1638841629028
18.9786968231201
20.9814739227295
15.35462474823
4.10092449188232
5.62685012817383
15.5453653335571
18.5972156524658
19.9324016571045
18.0249938964844
14.4962921142578
14.0194396972656
7.6296272277832
5.24536848068237
12.3981437683105
15.2592544555664
17.4527721405029
21.2675857543945
17.738883972168
5.24536848068237
0.286111027002335
4.38703584671021
2.00277709960938
1.9074068069458
2.95648050308228
-1.04907369613647
1.04907369613647
6.38981294631958
3.62407302856445
-4.57777643203735
-2.8611102104187
7.24814605712891
10.2999963760376
2.28888821601868
-1.81203651428223
2.76573991775513
2.09814739227295
-3.43333220481873
-1.9074068069458
7.34351634979248
12.8749961853027
14.7824029922485
14.9731435775757
-0.762962698936462
-13.6379585266113
-8.29721927642822
-10.4907369613647
-10.2999963760376
4.1962947845459
5.05462789535522
3.05185079574585
14.7824029922485
18.787956237793
15.35462474823
10.8722190856934
7.15277528762817
2.28888821601868
-7.0574049949646
-5.7222204208374
4.86388731002808
10.3953666687012
11.4444408416748
17.1666603088379
19.4555492401123
11.7305517196655
13.8286991119385
20.7907333374023
16.8805503845215
17.0712909698486
17.5481433868408
14.2101802825928
20.2185115814209
22.7935104370117
11.7305517196655
3.5287024974823
2.76573991775513
-1.52592539787292
6.38981294631958
29.278694152832
35.7638778686523
24.4148063659668
12.0166625976563
12.6842555999756
21.839807510376
13.4472179412842
-1.81203651428223
-2.8611102104187
8.20184898376465
16.6898097991943
10.4907369613647
0.762962698936462
-6.6759238243103
-8.0111083984375
4.1962947845459
8.48795986175537
6.6759238243103
13.5425882339478
14.687032699585
5.43610954284668
-5.43610954284668
-7.34351634979248
-4.86388731002808
-7.34351634979248
-9.44166374206543
-10.1092557907104
-14.3055505752563
-15.35462474823
-4.38703584671021
2.28888821601868
-7.53425693511963
-12.588885307312
-7.53425693511963
-7.72499752044678
-2.76573991775513
3.147221326828
-2.8611102104187
-3.43333220481873
-2.95648050308228
-10.8722190856934
-21.839807510376
-29.0879535675049
-29.9462871551514
-50.0694274902344
-87.9314498901367
-116.161071777344
-137.333282470703
-159.554580688477
-200.277709960938
-255.878616333008
-279.339721679688
-255.115661621094
-182.634201049805
-81.4462738037109
20.0277709960938
161.175872802734
350.867492675781
553.529479980469
745.796081542969
882.366394042969
986.415405273438
1092.08581542969
1076.921875
902.298767089844
717.947937011719
542.180358886719
297.650817871094
0.0953703373670578
-246.627700805664
-383.770233154297
-484.099853515625
-575.559997558594
-627.250732421875
-652.523864746094
-660.153503417969
-646.134033203125
-607.222961425781
-545.613708496094
-493.350769042969
-468.173004150391
-446.237823486328
-407.708190917969
-362.407287597656
-316.820281982422
-269.611938476563
-222.880477905273
-176.339752197266
-136.284210205078
-118.163848876953
-121.120330810547
-133.899963378906
-145.535140991211
-144.104583740234
-131.897186279297
-115.302742004395
-86.6916351318359
-47.3036880493164
-20.9814739227295
-8.77407169342041
0.381481349468231
-8.48795986175537
-28.5157318115234
-33.6657295227051
-25.5592517852783
-16.2129573822021
-8.20184898376465
8.0111083984375
27.3712882995605
39.4833221435547
48.8296127319336
49.6879463195801
42.2490615844727
33.761100769043
22.6027698516846
16.1175880432129
27.5620288848877
53.0259094238281
70.3833084106445
74.3888626098633
75.6286773681641
69.7157211303711
63.7073860168457
58.652759552002
43.5842437744141
39.6740608215332
53.121280670166
65.0425720214844
76.7731246948242
85.5471954345703
84.1166381835938
75.6286773681641
67.7129440307617
68.6666412353516
69.6203460693359
68.2851638793945
72.9583129882813
71.1462707519531
59.1296119689941
60.6555366516113
69.8110885620117
62.5629425048828
52.2629470825195
48.734245300293
46.5407257080078
42.3444290161133
36.6222114562988
41.3907279968262
58.5573883056641
70.8601608276367
66.4731292724609
62.8490524291992
70.0018310546875
64.2796096801758
54.4564628601074
59.3203506469727
61.0370178222656
56.1731300354004
54.4564628601074
47.9712791442871
38.5296173095703
37.5759124755859
41.0092468261719
46.9222068786621
55.6009063720703
52.0722045898438
40.3416519165039
32.8073959350586
26.7036952972412
25.7499923706055
23.8425846099854
20.7907333374023
34.9055442810059
53.5027618408203
55.6962776184082
53.3120193481445
51.8814659118652
48.6388740539551
48.066650390625
45.3962821960449
34.2379531860352
19.8370304107666
8.29721927642822
8.29721927642822
21.2675857543945
30.6138782501221
27.5620288848877
20.1231422424316
10.9675893783569
5.62685012817383
12.8749961853027
26.9898052215576
40.1509132385254
49.4018363952637
48.4481315612793
48.8296127319336
53.9796104431152
43.679615020752
35.4777679443359
39.9601707458496
29.6601753234863
25.0823993682861
36.1453590393066
32.6166572570801
26.3222141265869
31.9490642547607
34.0472106933594
26.7036952972412
19.5509204864502
17.0712909698486
3.5287024974823
-15.1638841629028
-16.1175880432129
-5.34073925018311
0.858333051204681
3.8148136138916
5.34073925018311
-0.47685170173645
-4.38703584671021
0.47685170173645
-3.43333220481873
-17.0712909698486
-28.7064723968506
-38.9110984802246
-39.6740608215332
-22.9842510223389
-7.34351634979248
-6.77129411697388
-8.96481227874756
-12.0166625976563
-17.5481433868408
-12.2074031829834
-14.4962921142578
-30.1370277404785
-24.7009181976318
-4.10092449188232
2.67036962509155
3.147221326828
6.77129411697388
1.52592539787292
-11.1583299636841
-18.1203651428223
-23.9379558563232
-30.5185089111328
-31.9490642547607
-26.4175834655762
-15.4499950408936
-13.1611070632935
-11.4444408416748
-2.1935179233551
-4.7685170173645
-10.9675893783569
-10.3953666687012
-12.588885307312
-11.8259220123291
-11.2537002563477
-18.3111057281494
-24.2240657806396
-26.4175834655762
-23.1749935150146
-19.6462898254395
-23.3657341003418
-19.7416610717773
-9.82314491271973
-2.67036962509155
9.34629344940186
9.82314491271973
-0.667592406272888
5.05462789535522
9.537034034729
1.52592539787292
0.9537034034729
-2.1935179233551
-16.022216796875
-20.8861045837402
-7.82036781311035
6.19907188415527
0
-11.4444408416748
-16.2129573822021
-26.9898052215576
-32.9981384277344
-31.8536930084229
-34.4286918640137
-31.4722118377686
-32.2351760864258
-43.9657249450684
-47.1129493713379
-39.0064697265625
-38.8157272338867
-43.679615020752
-40.1509132385254
-46.1592445373535
-62.0860900878906
-58.1759071350098
-45.7777633666992
-42.4398002624512
-32.9027671813965
-29.8509159088135
-42.4398002624512
-42.9166526794434
-38.2435073852539
-44.251838684082
-42.1536903381348
-35.2870254516602
-45.2055397033691
-55.1240577697754
-52.2629470825195
-47.3036880493164
-38.148136138916
-33.1888771057129
-40.7231369018555
-39.9601707458496
-24.5101776123047
-13.1611070632935
-11.7305517196655
-8.58333015441895
-10.204626083374
-19.5509204864502
-24.7962875366211
-27.657398223877
-21.1722145080566
-11.7305517196655
-16.30832862854
-21.1722145080566
-23.4611034393311
-29.9462871551514
-34.6194343566895
-30.3277683258057
-19.2648086547852
-16.4990692138672
-16.6898097991943
-8.10647869110107
-2.09814739227295
-1.43055510520935
0.858333051204681
1.9074068069458
-0.286111027002335
-2.76573991775513
-1.81203651428223
0
-4.29166507720947
-2.8611102104187
9.06018257141113
15.9268465042114
20.1231422424316
25.0823993682861
22.6027698516846
13.8286991119385
9.63240432739258
20.6953639984131
36.431468963623
35.5731353759766
26.8944358825684
26.5129547119141
28.4203605651855
26.226842880249
22.125919342041
21.2675857543945
17.5481433868408
5.62685012817383
-1.9074068069458
1.43055510520935
7.72499752044678
12.9703664779663
14.8777732849121
12.8749961853027
14.4009208679199
11.5398111343384
0.286111027002335
-7.6296272277832
-20.5046234130859
-28.8972129821777
-17.6435127258301
-9.63240432739258
-10.204626083374
-5.91296100616455
-6.86666440963745
-15.7361059188843
-17.6435127258301
-11.635181427002
-7.91573810577393
-4.95925760269165
0.9537034034729
3.33796191215515
5.1499981880188
14.4962921142578
26.3222141265869
33.2842483520508
34.0472106933594
25.9407329559326
17.5481433868408
17.9296245574951
22.4120292663574
31.5675830841064
43.3935050964355
46.4453544616699
41.0092468261719
38.3388748168945
34.7148017883301
31.0907306671143
34.1425819396973
28.9925842285156
21.7444381713867
25.6546211242676
24.6055469512939
16.2129573822021
15.4499950408936
15.6407356262207
4.00555419921875
-5.62685012817383
-3.24259161949158
0.9537034034729
-0.381481349468231
-6.77129411697388
-6.1037015914917
8.0111083984375
16.8805503845215
15.7361059188843
21.839807510376
26.1314735412598
18.9786968231201
14.3055505752563
14.4009208679199
18.8833274841309
26.9898052215576
28.3249912261963
16.8805503845215
1.9074068069458
0.667592406272888
6.38981294631958
7.0574049949646
9.06018257141113
9.82314491271973
11.3490705490112
17.5481433868408
19.1694374084473
10.8722190856934
-3.05185079574585
-7.91573810577393
1.43055510520935
8.86944198608398
10.5861072540283
17.2620315551758
29.4694347381592
32.9027671813965
20.2185115814209
7.91573810577393
1.81203651428223
-1.23981440067291
-2.09814739227295
-12.6842555999756
-21.4583263397217
-16.022216796875
-11.0629596710205
-10.3953666687012
-13.1611070632935
-16.4036979675293
-15.6407356262207
-16.4036979675293
-14.4962921142578
-8.48795986175537
0.572222054004669
0.572222054004669
-10.9675893783569
-16.4990692138672
-20.9814739227295
-21.4583263397217
-16.5944385528564
-19.4555492401123
-18.8833274841309
-7.43888664245605
5.53147983551025
10.0138854980469
10.3953666687012
12.1120328903198
7.34351634979248
1.43055510520935
-2.1935179233551
-5.81759071350098
2.76573991775513
11.3490705490112
1.04907369613647
-0.9537034034729
7.24814605712891
-2.1935179233551
-9.9185152053833
-1.23981440067291
-3.62407302856445
-14.4009208679199
-14.9731435775757
-10.9675893783569
-11.4444408416748
-17.5481433868408
-17.8342533111572
-22.0305480957031
-42.2490615844727
-56.936092376709
-74.0073852539063
-109.00830078125
-139.622177124023
-161.366607666016
-189.405502319336
-220.686965942383
-234.420288085938
-209.242523193359
-136.474960327148
-42.630542755127
56.0777587890625
192.838821411133
385.296173095703
611.419250488281
808.549743652344
927.4765625
1027.42468261719
1122.41357421875
1081.9765625
903.443237304688
720.23681640625
538.1748046875
290.974914550781
-10.7768487930298
-247.199920654297
-373.851745605469
-469.317443847656
-541.798889160156
-592.154418945313
-623.245178222656
-621.051635742188
-609.893310546875
-582.235900878906
-529.210021972656
-482.001708984375
-449.480407714844
-426.210052490234
-407.994323730469
-375.377655029297
-320.4443359375
-255.497146606445
-193.220306396484
-147.919403076172
-119.975891113281
-105.76570892334
-111.297187805176
-128.273101806641
-147.156433105469
-168.233276367188
-168.233276367188
-141.815689086914
-116.44718170166
-84.1166381835938
-40.8185043334961
-23.3657341003418
-31.6629524230957
-38.2435073852539
-45.5870208740234
-59.2249794006348
-67.1407165527344
-50.2601699829102
-23.0796222686768
-12.588885307312
5.1499981880188
24.9870281219482
22.8888816833496
20.1231422424316
16.9759197235107
7.24814605712891
3.147221326828
4.00555419921875
12.4935140609741
30.0416564941406
41.1046180725098
46.8268356323242
59.1296119689941
56.0777587890625
34.810173034668
27.7527694702148
36.8129501342773
43.5842437744141
48.6388740539551
66.4731292724609
74.5796051025391
60.274055480957
59.701831817627
63.8981285095215
57.1268348693848
56.8407211303711
58.652759552002
57.2222023010254
62.0860900878906
72.7675704956055
76.9638671875
71.6231231689453
62.3722038269043
57.6036834716797
62.6583137512207
68.7620162963867
71.2416458129883
69.5249786376953
61.4184989929199
57.9851684570313
63.039794921875
59.9879455566406
49.6879463195801
48.5435028076172
54.7425765991211
59.6064605712891
55.6962776184082
44.6333198547363
41.2953567504883
46.8268356323242
48.2573928833008
40.3416519165039
31.7583236694336
30.8046188354492
29.8509159088135
28.2296199798584
35.6685066223145
39.7694320678711
31.4722118377686
22.8888816833496
17.357400894165
11.635181427002
12.9703664779663
26.7990646362305
39.1018409729004
41.1046180725098
42.3444290161133
47.2083168029785
52.7397994995117
52.8351669311523
45.1101722717285
37.4805450439453
35.382396697998
35.7638778686523
34.6194343566895
36.431468963623
35.7638778686523
30.8999900817871
31.9490642547607
33.8564720153809
31.5675830841064
29.9462871551514
30.1370277404785
27.1805477142334
22.125919342041
26.1314735412598
32.1398048400879
36.7175827026367
46.6360969543457
48.3527641296387
35.0962867736816
24.5101776123047
23.4611034393311
22.3166599273682
25.2731399536133
36.3360977172852
45.2055397033691
43.1073951721191
37.3851737976074
37.099063873291
35.5731353759766
28.8972129821777
24.7962875366211
29.7555465698242
36.3360977172852
43.1073951721191
43.8703575134277
36.8129501342773
42.1536903381348
42.4398002624512
31.8536930084229
23.1749935150146
2.38425850868225
-8.67870044708252
1.04907369613647
2.76573991775513
3.147221326828
13.7333288192749
15.4499950408936
3.71944332122803
-1.14444410800934
5.7222204208374
6.58055353164673
-6.6759238243103
-20.8861045837402
-23.0796222686768
-13.256477355957
-7.53425693511963
-21.6490669250488
-38.9110984802246
-32.7120246887207
-24.9870281219482
-34.5240631103516
-38.148136138916
-35.4777679443359
-40.7231369018555
-37.8620262145996
-22.7935104370117
-15.1638841629028
-20.1231422424316
-22.4120292663574
-23.0796222686768
-30.3277683258057
-35.382396697998
-39.7694320678711
-43.5842437744141
-43.9657249450684
-41.3907279968262
-32.7120246887207
-34.6194343566895
-49.9740562438965
-51.2138710021973
-37.8620262145996
-33.0935096740723
-38.5296173095703
-37.7666549682617
-30.4231376647949
-28.8972129821777
-26.8944358825684
-15.5453653335571
-11.5398111343384
-22.3166599273682
-25.8453617095947
-21.1722145080566
-25.6546211242676
-24.7009181976318
-23.7472152709961
-39.864803314209
-45.0148010253906
-34.9055442810059
-26.9898052215576
-19.074068069458
-17.738883972168
-24.3194370269775
-31.5675830841064
-36.2407302856445
-32.8073959350586
-35.1916542053223
-35.8592491149902
-20.9814739227295
-16.5944385528564
-22.5074005126953
-16.30832862854
-6.6759238243103
-4.48240613937378
-9.63240432739258
-14.0194396972656
-6.6759238243103
-2.38425850868225
-7.6296272277832
-13.9240694046021
-19.2648086547852
-12.1120328903198
-4.00555419921875
-12.6842555999756
-19.6462898254395
-14.5916624069214
-12.9703664779663
-19.4555492401123
-22.4120292663574
-21.5536975860596
-27.1805477142334
-29.7555465698242
-22.7935104370117
-22.125919342041
-19.074068069458
-6.86666440963745
-4.95925760269165
-13.1611070632935
-18.9786968231201
-20.8861045837402
-18.3111057281494
-11.4444408416748
-10.9675893783569
-16.8805503845215
-21.1722145080566
-26.7990646362305
-32.04443359375
-32.9981384277344
-24.1286964416504
-14.687032699585
-27.943510055542
-42.0583190917969
-28.6111011505127
-15.9268465042114
-16.5944385528564
-13.4472179412842
-6.96203470230103
-3.33796191215515
-0.190740674734116
3.05185079574585
-4.38703584671021
-18.4064750671387
-15.5453653335571
-2.67036962509155
-1.62129580974579
-3.5287024974823
-6.77129411697388
-15.0685138702393
-10.9675893783569
-6.1037015914917
-6.00833129882813
4.00555419921875
7.24814605712891
9.44166374206543
18.4064750671387
17.0712909698486
14.4962921142578
12.2074031829834
4.48240613937378
4.57777643203735
12.6842555999756
12.588885307312
8.29721927642822
16.9759197235107
28.6111011505127
32.9027671813965
37.4805450439453
42.7259140014648
44.251838684082
41.5814666748047
34.9055442810059
26.7036952972412
21.9351787567139
19.074068069458
16.2129573822021
18.1203651428223
14.9731435775757
4.67314672470093
0.667592406272888
0.572222054004669
-2.8611102104187
-2.95648050308228
6.00833129882813
15.8314762115479
19.360179901123
14.4962921142578
8.3925895690918
9.9185152053833
16.4036979675293
14.687032699585
4.95925760269165
2.38425850868225
5.7222204208374
9.72777462005615
15.8314762115479
19.5509204864502
26.226842880249
29.7555465698242
16.7851791381836
9.537034034729
6.86666440963745
-5.34073925018311
-2.00277709960938
8.3925895690918
3.62407302856445
4.38703584671021
11.0629596710205
7.34351634979248
2.8611102104187
2.1935179233551
5.7222204208374
8.48795986175537
0.667592406272888
-8.67870044708252
-13.7333288192749
-16.022216796875
-10.9675893783569
0.190740674734116
10.2999963760376
16.7851791381836
20.409252166748
22.6027698516846
24.9870281219482
27.943510055542
28.0388793945313
17.8342533111572
2.95648050308228
-3.62407302856445
-0.0953703373670578
15.0685138702393
31.1861019134521
24.7962875366211
14.1148099899292
17.9296245574951
19.360179901123
24.891658782959
30.0416564941406
22.0305480957031
21.6490669250488
27.5620288848877
22.6027698516846
23.7472152709961
33.3796195983887
24.7009181976318
12.1120328903198
14.4962921142578
8.96481227874756
-3.5287024974823
-11.7305517196655
-18.1203651428223
-19.5509204864502
-24.1286964416504
-33.3796195983887
-35.0962867736816
-28.8018417358398
-21.839807510376
-14.2101802825928
-6.86666440963745
-8.58333015441895
-14.2101802825928
-15.5453653335571
-11.9212923049927
-8.96481227874756
-16.5944385528564
-24.2240657806396
-24.891658782959
-25.7499923706055
-25.7499923706055
-19.360179901123
-16.7851791381836
-29.8509159088135
-39.2925796508789
-31.6629524230957
-27.5620288848877
-27.0851764678955
-16.5944385528564
-8.20184898376465
-2.95648050308228
6.38981294631958
13.7333288192749
12.9703664779663
1.81203651428223
-10.9675893783569
-18.9786968231201
-23.3657341003418
-36.7175827026367
-70.3833084106445
-106.433296203613
-129.989776611328
-163.464767456055
-213.438827514648
-234.89714050293
-219.542526245117
-169.663833618164
-77.1546020507813
22.8888816833496
134.758285522461
291.737884521484
499.454467773438
713.084045410156
852.706237792969
936.250610351563
1034.38671875
1066.62182617188
933.294128417969
735.2099609375
560.872985839844
358.020263671875
83.2583084106445
-184.446243286133
-337.420257568359
-430.215606689453
-518.719299316406
-569.074829101563
-585.383117675781
-579.374816894531
-563.161865234375
-540.177612304688
-507.656311035156
-472.941528320313
-438.512817382813
-412.858215332031
-393.116546630859
-368.510986328125
-326.166564941406
-259.121215820313
-190.263824462891
-140.671249389648
-112.823112487793
-101.760154724121
-95.1795959472656
-99.8527450561523
-112.537002563477
-117.59162902832
-125.602737426758
-119.785148620605
-92.318489074707
-69.6203460693359
-46.3499870300293
-25.177770614624
-22.6027698516846
-26.0361022949219
-33.761100769043
-45.6823921203613
-49.0203552246094
-50.4509086608887
-42.3444290161133
-20.8861045837402
-5.91296100616455
6.00833129882813
13.4472179412842
7.72499752044678
1.33518481254578
4.95925760269165
13.6379585266113
18.8833274841309
26.9898052215576
41.5814666748047
40.4370231628418
29.5648059844971
35.4777679443359
47.3990592956543
52.9305381774902
61.323127746582
64.6610870361328
56.7453536987305
48.2573928833008
46.3499870300293
52.5490570068359
58.652759552002
65.805534362793
72.4814605712891
69.1434936523438
66.1870193481445
62.8490524291992
50.4509086608887
41.8675804138184
43.8703575134277
46.0638732910156
43.679615020752
44.1564674377441
56.4592399597168
70.0018310546875
69.8110885620117
63.7073860168457
59.4157218933105
52.453685760498
46.0638732910156
45.3962821960449
49.5925750732422
56.6499824523926
59.9879455566406
63.6120147705078
73.9120101928711
77.5360870361328
74.8657150268555
70.7647933959961
65.9962768554688
68.6666412353516
71.8138656616211
69.0481262207031
63.8027572631836
64.1842422485352
74.7703475952148
75.4379425048828
63.8027572631836
58.652759552002
47.2083168029785
30.2323970794678
31.4722118377686
41.5814666748047
46.3499870300293
52.1675758361816
64.4703521728516
69.7157211303711
63.9934997558594
52.5490570068359
43.8703575134277
49.3064651489258
43.9657249450684
28.3249912261963
25.6546211242676
12.4935140609741
-4.38703584671021
0.762962698936462
3.33796191215515
-7.15277528762817
-5.24536848068237
9.537034034729
10.9675893783569
3.62407302856445
3.91018390655518
5.91296100616455
9.9185152053833
15.5453653335571
17.0712909698486
15.8314762115479
7.24814605712891
-0.190740674734116
3.33796191215515
-2.38425850868225
-15.5453653335571
-19.1694374084473
-16.8805503845215
-9.15555286407471
-3.43333220481873
0.0953703373670578
11.2537002563477
22.5074005126953
23.7472152709961
18.8833274841309
11.3490705490112
3.43333220481873
-0.9537034034729
-1.9074068069458
-1.14444410800934
-1.04907369613647
0
6.48518323898315
13.5425882339478
6.86666440963745
-6.00833129882813
-6.77129411697388
-12.3981437683105
-26.9898052215576
-27.943510055542
-21.2675857543945
-24.6055469512939
-28.8972129821777
-24.891658782959
-22.6027698516846
-17.4527721405029
-10.4907369613647
-7.82036781311035
-6.48518323898315
-7.72499752044678
-7.72499752044678
-4.7685170173645
-3.24259161949158
-9.72777462005615
-20.2185115814209
-23.3657341003418
-24.2240657806396
-26.3222141265869
-25.5592517852783
-23.0796222686768
-25.3685111999512
-23.2703628540039
-13.256477355957
-10.2999963760376
-22.0305480957031
-36.8129501342773
-45.0148010253906
-53.121280670166
-55.0286865234375
-37.0036926269531
-17.1666603088379
-17.4527721405029
-18.4064750671387
-14.0194396972656
-19.8370304107666
-24.5101776123047
-28.8018417358398
-39.1018409729004
-41.5814666748047
-37.099063873291
-28.8972129821777
-22.6027698516846
-24.891658782959
-25.5592517852783
-24.891658782959
-27.4666576385498
-25.5592517852783
-20.7907333374023
-20.2185115814209
-20.5999927520752
-22.6027698516846
-31.8536930084229
-37.6712837219238
-26.7990646362305
-18.1203651428223
-14.1148099899292
2.8611102104187
3.71944332122803
-21.4583263397217
-28.8018417358398
-16.4036979675293
-9.72777462005615
-8.10647869110107
-5.43610954284668
1.81203651428223
9.63240432739258
6.19907188415527
-7.15277528762817
-7.72499752044678
3.62407302856445
4.38703584671021
6.1037015914917
9.06018257141113
-0.9537034034729
-8.0111083984375
-10.0138854980469
-12.302773475647
-6.86666440963745
-5.7222204208374
-10.4907369613647
-3.62407302856445
2.28888821601868
-5.7222204208374
-13.256477355957
-13.9240694046021
-12.4935140609741
-11.3490705490112
-13.0657367706299
-15.6407356262207
-9.63240432739258
-1.9074068069458
0.47685170173645
7.24814605712891
6.1037015914917
-7.0574049949646
-11.5398111343384
-10.9675893783569
-14.4009208679199
-6.48518323898315
11.4444408416748
14.4962921142578
6.48518323898315
7.43888664245605
10.204626083374
7.72499752044678
4.86388731002808
8.3925895690918
18.4064750671387
17.357400894165
1.9074068069458
-10.5861072540283
-14.9731435775757
-13.3518476486206
-9.34629344940186
-9.06018257141113
-3.8148136138916
6.96203470230103
8.48795986175537
11.1583299636841
17.9296245574951
19.5509204864502
23.4611034393311
18.0249938964844
-1.9074068069458
-14.687032699585
-12.3981437683105
-5.62685012817383
-4.00555419921875
-10.8722190856934
-16.4036979675293
-13.0657367706299
-9.25092315673828
-0.762962698936462
8.58333015441895
5.62685012817383
1.04907369613647
1.04907369613647
3.5287024974823
9.25092315673828
16.8805503845215
26.7036952972412
29.4694347381592
20.3138828277588
6.1037015914917
-3.24259161949158
1.62129580974579
17.0712909698486
27.7527694702148
29.9462871551514
27.2759170532227
22.8888816833496
20.2185115814209
18.9786968231201
21.7444381713867
23.9379558563232
21.6490669250488
19.074068069458
14.0194396972656
14.0194396972656
21.5536975860596
20.0277709960938
9.15555286407471
-0.762962698936462
-15.0685138702393
-26.7036952972412
-26.3222141265869
-19.6462898254395
-9.44166374206543
-1.9074068069458
0
-0.858333051204681
-1.23981440067291
7.91573810577393
11.3490705490112
1.33518481254578
-0.667592406272888
6.38981294631958
9.9185152053833
6.29444265365601
0
-4.95925760269165
-3.5287024974823
-2.28888821601868
-4.57777643203735
-7.53425693511963
-15.35462474823
-18.5018463134766
-19.2648086547852
-17.9296245574951
-8.86944198608398
-4.00555419921875
5.05462789535522
19.7416610717773
17.2620315551758
9.72777462005615
17.8342533111572
25.177770614624
19.6462898254395
12.2074031829834
8.86944198608398
0.9537034034729
-14.7824029922485
-22.6981410980225
-17.2620315551758
-9.9185152053833
3.5287024974823
16.9759197235107
17.9296245574951
18.5972156524658
16.30832862854
4.57777643203735
-3.91018390655518
-5.91296100616455
-7.91573810577393
-15.6407356262207
-23.2703628540039
-24.2240657806396
-24.2240657806396
-34.5240631103516
-42.9166526794434
-32.9027671813965
-22.0305480957031
-20.8861045837402
-15.7361059188843
-10.204626083374
-4.48240613937378
4.7685170173645
2.47962880134583
-3.71944332122803
4.86388731002808
22.8888816833496
26.5129547119141
12.302773475647
5.05462789535522
2.67036962509155
-3.71944332122803
-7.91573810577393
-20.0277709960938
-29.6601753234863
-22.5074005126953
-15.8314762115479
-12.7796258926392
-10.204626083374
-11.635181427002
-6.96203470230103
0.572222054004669
2.38425850868225
6.1037015914917
10.6814785003662
15.0685138702393
19.8370304107666
17.2620315551758
11.4444408416748
9.06018257141113
10.204626083374
17.5481433868408
22.6981410980225
16.30832862854
5.62685012817383
3.147221326828
-0.9537034034729
-29.6601753234863
-74.4842376708984
-114.25366973877
-146.774948120117
-186.639755249023
-226.790664672852
-234.89714050293
-192.171234130859
-107.291633605957
-9.34629344940186
116.35181427002
305.280456542969
522.438720703125
723.765502929688
884.369140625
1003.20062255859
1115.92834472656
1143.77648925781
994.808044433594
793.290466308594
622.959045410156
418.580413818359
140.289764404297
-161.080505371094
-358.592468261719
-454.535034179688
-536.267395019531
-601.977600097656
-639.648864746094
-658.913696289063
-667.878479003906
-649.662780761719
-592.822021484375
-530.259094238281
-485.14892578125
-455.870239257813
-432.123016357422
-395.31005859375
-341.425811767578
-287.541564941406
-234.992523193359
-186.449020385742
-154.881439208984
-130.561996459961
-111.1064453125
-107.482376098633
-116.542556762695
-129.512924194336
-132.278656005859
-114.635147094727
-83.6397857666016
-51.3092422485352
-20.2185115814209
6.19907188415527
14.4009208679199
1.9074068069458
-12.7796258926392
-22.6981410980225
-31.0907306671143
-31.4722118377686
-16.9759197235107
5.53147983551025
22.125919342041
30.70924949646
27.657398223877
13.9240694046021
0.47685170173645
-12.1120328903198
-18.8833274841309
-17.2620315551758
-12.6842555999756
-0.190740674734116
10.9675893783569
14.1148099899292
20.8861045837402
28.5157318115234
23.8425846099854
13.6379585266113
13.0657367706299
12.1120328903198
12.9703664779663
23.7472152709961
32.4259147644043
41.5814666748047
47.1129493713379
48.734245300293
58.9388694763184
63.9934997558594
61.0370178222656
63.9934997558594
60.1786842346191
50.0694274902344
54.8379440307617
56.8407211303711
47.3036880493164
45.2055397033691
46.9222068786621
49.0203552246094
48.9249839782715
47.8759117126465
51.3092422485352
51.8814659118652
61.0370178222656
78.2990493774414
79.3481216430664
76.9638671875
74.198127746582
70.4786834716797
83.5444183349609
91.3647842407227
82.9721984863281
82.1138610839844
81.4462738037109
71.5277557373047
69.1434936523438
71.3370132446289
68.6666412353516
67.903678894043
70.2879409790039
69.6203460693359
63.7073860168457
51.1185035705566
36.8129501342773
34.1425819396973
38.3388748168945
34.7148017883301
30.995361328125
45.5870208740234
58.7481307983398
60.0833129882813
69.0481262207031
65.137939453125
50.4509086608887
52.3583183288574
47.3990592956543
30.8046188354492
28.5157318115234
35.8592491149902
39.197208404541
44.5379486083984
44.6333198547363
34.0472106933594
32.6166572570801
35.6685066223145
24.891658782959
13.1611070632935
9.06018257141113
12.1120328903198
18.1203651428223
12.2074031829834
8.67870044708252
15.8314762115479
14.3055505752563
3.71944332122803
-5.7222204208374
-3.5287024974823
6.29444265365601
9.537034034729
11.9212923049927
20.409252166748
22.2212886810303
11.4444408416748
-1.62129580974579
-11.1583299636841
-14.2101802825928
-18.0249938964844
-25.0823993682861
-17.4527721405029
-3.05185079574585
-0.667592406272888
-1.9074068069458
-2.38425850868225
-4.67314672470093
-2.5749990940094
0
-12.1120328903198
-22.125919342041
-12.9703664779663
-4.57777643203735
-3.147221326828
-2.00277709960938
-3.62407302856445
-4.95925760269165
-2.38425850868225
-2.95648050308228
-16.4036979675293
-31.6629524230957
-32.9981384277344
-19.360179901123
-4.38703584671021
0.286111027002335
0.667592406272888
-7.15277528762817
-15.7361059188843
-7.82036781311035
-9.25092315673828
-27.2759170532227
-35.1916542053223
-35.2870254516602
-32.7120246887207
-20.7907333374023
-13.1611070632935
-16.4990692138672
-14.9731435775757
-1.43055510520935
5.81759071350098
-2.38425850868225
-3.91018390655518
5.7222204208374
5.7222204208374
1.62129580974579
0.47685170173645
-6.38981294631958
-10.5861072540283
-10.6814785003662
-16.1175880432129
-18.5018463134766
-15.0685138702393
-15.1638841629028
-17.738883972168
-18.5018463134766
-18.5018463134766
-21.6490669250488
-20.2185115814209
-10.5861072540283
-8.58333015441895
-17.5481433868408
-29.1833248138428
-36.3360977172852
-32.6166572570801
-26.1314735412598
-23.9379558563232
-17.4527721405029
-11.1583299636841
-14.4962921142578
-12.8749961853027
-9.25092315673828
-16.1175880432129
-19.2648086547852
-17.5481433868408
-18.3111057281494
-17.5481433868408
-17.1666603088379
-21.1722145080566
-31.4722118377686
-36.6222114562988
-33.2842483520508
-31.2814712524414
-23.9379558563232
-26.4175834655762
-38.0527648925781
-39.197208404541
-39.5786895751953
-34.7148017883301
-22.6027698516846
-21.4583263397217
-25.3685111999512
-18.9786968231201
-13.8286991119385
-18.5972156524658
-21.9351787567139
-23.2703628540039
-22.125919342041
-20.0277709960938
-25.9407329559326
-22.2212886810303
-15.2592544555664
-23.7472152709961
-21.6490669250488
-9.15555286407471
-8.48795986175537
-18.1203651428223
-24.891658782959
-20.6953639984131
-13.3518476486206
-8.20184898376465
-5.53147983551025
-1.71666610240936
7.34351634979248
10.2999963760376
1.14444410800934
-7.91573810577393
-8.3925895690918
-6.00833129882813
-1.81203651428223
3.24259161949158
4.7685170173645
2.09814739227295
-6.86666440963745
-17.357400894165
-16.2129573822021
-5.81759071350098
-6.48518323898315
-15.5453653335571
-18.4064750671387
-18.787956237793
-12.9703664779663
0.572222054004669
6.19907188415527
4.48240613937378
13.6379585266113
23.3657341003418
19.2648086547852
15.6407356262207
12.6842555999756
11.4444408416748
19.7416610717773
22.3166599273682
16.2129573822021
6.86666440963745
-1.71666610240936
0.858333051204681
4.10092449188232
0
-2.28888821601868
0.47685170173645
7.43888664245605
12.0166625976563
17.1666603088379
21.839807510376
13.4472179412842
4.95925760269165
4.86388731002808
-0.190740674734116
0.572222054004669
13.5425882339478
18.5972156524658
15.35462474823
8.86944198608398
0.190740674734116
-3.71944332122803
-8.96481227874756
-10.9675893783569
-1.81203651428223
3.8148136138916
-1.04907369613647
-2.09814739227295
6.6759238243103
15.5453653335571
20.3138828277588
21.4583263397217
22.2212886810303
22.6981410980225
21.1722145080566
19.074068069458
11.635181427002
4.29166507720947
6.1037015914917
13.1611070632935
18.8833274841309
21.6490669250488
27.8481388092041
32.3305435180664
27.4666576385498
20.7907333374023
15.2592544555664
6.19907188415527
-5.62685012817383
-10.7768487930298
-2.8611102104187
0
-10.5861072540283
-12.1120328903198
-5.7222204208374
-5.91296100616455
-8.0111083984375
-13.1611070632935
-15.2592544555664
-4.29166507720947
6.29444265365601
-0.858333051204681
-11.2537002563477
-3.5287024974823
8.3925895690918
12.302773475647
10.6814785003662
5.43610954284668
9.34629344940186
19.7416610717773
26.1314735412598
32.6166572570801
35.1916542053223
35.0009155273438
34.0472106933594
30.1370277404785
29.278694152832
20.7907333374023
11.5398111343384
14.2101802825928
17.738883972168
24.9870281219482
25.8453617095947
17.2620315551758
11.0629596710205
5.43610954284668
0.47685170173645
-12.7796258926392
-28.2296199798584
-25.2731399536133
-22.125919342041
-27.5620288848877
-16.022216796875
0
-10.0138854980469
-24.891658782959
-21.0768451690674
-12.1120328903198
-11.0629596710205
-16.6898097991943
-14.4962921142578
-5.43610954284668
-4.1962947845459
-8.0111083984375
-12.2074031829834
-15.8314762115479
-14.4962921142578
-11.0629596710205
-15.9268465042114
-24.4148063659668
-24.1286964416504
-22.3166599273682
-24.2240657806396
-27.7527694702148
-25.6546211242676
-11.9212923049927
-6.77129411697388
-16.1175880432129
-18.787956237793
-11.7305517196655
-3.147221326828
-0.9537034034729
-7.6296272277832
-18.9786968231201
-20.6953639984131
-8.10647869110107
-2.1935179233551
-3.71944332122803
-2.00277709960938
-1.71666610240936
5.34073925018311
12.0166625976563
7.24814605712891
1.52592539787292
-9.63240432739258
-27.7527694702148
-32.1398048400879
-36.6222114562988
-70.7647933959961
-110.438850402832
-133.709213256836
-163.369384765625
-205.427719116211
-238.044372558594
-241.763809204102
-199.133270263672
-105.193481445313
7.24814605712891
131.324951171875
298.127685546875
503.555389404297
712.797912597656
865.390441894531
960.188598632813
1078.73388671875
1144.44409179688
1022.46539306641
820.661804199219
642.414611816406
436.891540527344
166.70735168457
-124.267555236816
-317.487854003906
-423.825775146484
-522.152587890625
-580.042419433594
-599.688720703125
-613.04052734375
-609.893310546875
-587.385925292969
-537.793334960938
-479.140594482422
-442.518371582031
-422.204498291016
-404.751708984375
-363.647094726563
-300.225830078125
-247.77214050293
-203.138824462891
-152.783279418945
-109.485153198242
-94.9888610839844
-101.474044799805
-112.727745056152
-132.755508422852
-148.873107910156
-149.63606262207
-131.801803588867
-98.3268203735352
-64.1842422485352
-36.3360977172852
-18.5972156524658
-15.5453653335571
-22.9842510223389
-38.148136138916
-57.8897972106934
-66.4731292724609
-64.3749771118164
-55.6009063720703
-35.7638778686523
-12.302773475647
2.95648050308228
5.05462789535522
2.95648050308228
1.14444410800934
-4.7685170173645
-8.48795986175537
-14.8777732849121
-9.25092315673828
15.6407356262207
22.4120292663574
23.7472152709961
39.0064697265625
39.3879508972168
30.3277683258057
26.6083240509033
26.226842880249
33.1888771057129
42.8212814331055
46.7314682006836
48.734245300293
59.1296119689941
71.9092330932617
76.2009048461914
67.8083114624023
52.9305381774902
45.2055397033691
43.9657249450684
42.8212814331055
43.8703575134277
48.8296127319336
47.9712791442871
42.8212814331055
46.3499870300293
50.6416511535645
48.8296127319336
44.5379486083984
38.5296173095703
31.0907306671143
27.7527694702148
32.3305435180664
34.6194343566895
35.7638778686523
40.913875579834
50.1647987365723
61.7046089172363
65.805534362793
60.5601654052734
52.5490570068359
50.5462799072266
51.404613494873
40.8185043334961
23.4611034393311
24.0333251953125
42.5351715087891
49.4018363952637
45.3962821960449
50.2601699829102
57.7944259643555
54.170352935791
50.9277610778809
53.3120193481445
44.251838684082
36.3360977172852
48.3527641296387
62.2768325805664
65.9962768554688
59.5110931396484
43.5842437744141
35.7638778686523
44.4425773620605
56.0777587890625
58.9388694763184
51.2138710021973
39.9601707458496
36.9083213806152
