Value(μV)
-14.5144963919253
-23.4936198665847
-26.8527543146963
-25.6798288924136
-23.7489348780344
-23.7092658283742
-25.0627160940744
-25.6090794777129
-24.2753119300655
-22.1384472602147
-20.9035886353289
-20.9970156009238
-21.5015360679335
-21.6855558241288
-22.0315174096891
-23.5415942375418
-26.3482474848328
-29.4321950719125
-31.7422568875676
-33.2578746637003
-34.7098186927861
-36.4192339884375
-37.7652628927258
-37.9002998802329
-36.738448565782
-34.9693424970046
-33.1435552000558
-31.0227928812416
-27.9743693173534
-23.8402559269629
-19.1705863199184
-14.5897145676127
-10.1555945220818
-5.50207336899303
-0.506610515108977
4.40081150992182
8.62992528915745
11.9502824969213
14.4776833505835
16.2399199098532
16.9864581022695
16.524376476026
15.1184657035967
13.4073122161796
11.9451560980076
10.9606683348154
10.5820336884562
11.1086916336763
12.8498111875965
15.6846420520693
18.9492651026267
21.8765074014966
24.0973183641797
25.6235793695898
26.4132689593439
26.1669194313185
24.675596052253
22.2611498380441
19.6683882889235
17.4585633585784
15.6206052142859
13.8662541172062
12.2072362378576
11.053286177109
10.7000458918775
10.8842836907937
11.0128015660404
10.8013175948748
10.5173390433507
10.5181469319201
10.6774250111563
10.4386522888707
9.43275405227661
7.87997164964702
6.27551692962504
4.76482848205654
2.98686049736494
0.549535979426309
-2.4886800002767
-5.72103606664376
-8.89424178302323
-12.1324277338724
-15.6033216610963
-19.0765414363418
-21.9381292593332
-23.6219938838589
-23.9204415985928
-22.8676321782618
-20.480857450921
-16.7823761664677
-12.0613838046831
-6.95017063022596
-2.12444513903514
2.04128214745639
5.46193640284356
8.05865624584467
9.65545526512283
10.2314663035687
10.1575441885525
10.0011510151829
10.046011539017
10.0977198211044
9.8286018047094
9.23436581560147
8.6269582765151
8.19154566084075
7.7107236444867
6.84086991234605
5.58850151840672
4.35147157674436
3.44884590051787
2.73828521443151
1.81743814009623
0.550906238943033
-0.753394499022281
-1.72547308474932
-2.34594087433609
-2.84017767966507
-3.21814563307117
-3.11639833486623
-2.20054858532136
-0.62174885494542
1.08174948574107
2.5315372889139
3.80817817959046
5.1354806588418
6.40458462248874
7.20959538405508
7.37436388145514
7.26432882780515
7.42893836399585
8.00087354857738
8.62199437906537
8.9926076042842
9.31994496618893
10.0647426054868
11.3107800247509
12.5957378022194
13.4482230898934
13.9396494687871
14.5197456231595
15.336728862513
15.9340716072444
15.7447784265907
14.767800859658
13.5616289656971
12.5639167062734
11.6105067217503
10.2562821888322
8.45163627029368
6.67602756160341
5.3598250812608
4.36839071272668
3.23691193966814
1.85420978924638
0.712887865118159
0.428482482429278
1.18377604364598
2.80273127685055
5.26133280887872
8.83811725882087
13.6284216836839
19.0784765559788
24.2365349132321
28.469193074837
31.7365273558089
34.0973017758663
35.1879440944842
34.5043797331167
32.2095674636989
29.3461932186716
26.9768896066101
25.1806030734801
23.1562635246738
20.3728147486176
17.3557691111972
15.0914793045584
13.7731824276219
12.5243621418396
10.5824176619944
8.57211463191196
8.26349642584842
10.9492233146524
16.194333094692
22.2554183087418
27.5404579289982
31.4336733428218
33.7891351760163
34.0318651896434
31.0901713931596
24.1946175420946
13.5925527987186
0.557029884286776
-13.0725139103519
-25.4873671348794
-35.8073599276393
-45.2467943480748
-57.4812332505509
-76.9275904570909
-105.417367129879
-139.926183021411
-173.665180106006
-199.523837172142
-212.086268926945
-205.901149111722
-172.365233791581
-100.16648806954
18.8799487617264
182.709925243221
376.846226120536
579.021574483598
766.152114767271
918.049812483192
1017.21651999908
1048.98065715658
1005.13652982785
888.629544371179
713.926938089177
501.564617733691
271.592261769373
41.5679302305916
-171.11111309595
-348.457246508073
-476.925203633743
-554.763026049792
-593.589581626308
-610.645911582895
-617.563378753694
-615.45351591014
-599.982295174964
-570.237089833904
-532.064572095672
-493.148418820758
-455.946405925851
-416.319709800049
-369.082914636607
-314.432310279265
-258.867350049414
-210.361647491012
-173.079680834695
-146.383402816368
-127.801414803121
-115.950739976996
-110.526985782003
-110.270799137977
-111.842747727217
-111.08725601907
-105.433966747081
-95.1781990007728
-82.7106816058574
-70.6430242107415
-60.3904255505802
-51.988649939081
-44.8245037410616
-38.4627148498787
-32.9568367851421
-28.5620860601436
-25.237406454831
-22.4558511619466
-19.5294941720826
-16.1322533887569
-12.4797910574496
-8.98036636290605
-5.75083401510718
-2.53452572680453
0.921674656357924
4.50956502998806
7.84570608271144
10.6637057598946
13.0163066073543
15.072283617261
16.8257686186986
18.124108704216
18.9704427926642
19.6813615277478
20.6747171447896
22.1551107962864
24.0908157777104
26.4731151286972
29.4673264481434
33.2218303450797
37.5848719548804
42.1318520257588
46.5109127532238
50.6912099858177
54.8129229383488
58.8477963564636
62.5166807831578
65.5664307429894
68.0375616336345
70.1719913459777
72.0840094331294
73.6198604173018
74.5740260030165
74.9667073518257
75.0271176172379
74.9287992245668
74.6360378658416
74.0378993689926
73.1423145918549
72.0391838711663
70.6954726727226
68.9095091809048
66.5424919124474
63.7440030888935
60.8643258273686
58.162538290197
55.7142544256324
53.6631785329998
52.4616229517494
52.6896998679816
54.5624740095683
57.6794954533238
61.3310611382072
65.0057283054695
68.4892650507447
71.4633831649411
73.1744644891441
72.6992968692925
69.604914213063
64.2804898408924
57.5729396859819
50.1660240375767
42.4127404988687
34.7327307250336
27.9668003364756
23.1312056834866
20.7649349244414
20.5811767626537
21.7899262202156
23.6915240524557
25.8882061715496
27.9949157319702
29.3571935797776
29.23649866649
27.302052042481
23.8680791665237
19.6137131069815
15.1176262398269
10.6975560670031
6.61735621260302
3.2811251962271
1.11063471395266
0.249465931290874
0.46558730715285
1.36867355761221
2.67699203348287
4.24365344136567
5.88138235158642
7.26766421749334
8.07603494009571
8.17214573836087
7.63834589908709
6.62305351324343
5.23013903730783
3.58827343413001
1.98353239073506
0.839135949040427
0.508053035121904
1.07314262207921
2.34345475964495
4.01255157430802
5.78172037997933
7.33293950713258
8.24582375424457
8.0326319013778
6.32889396333961
3.09089048714071
-1.37467623663913
-6.56830726293011
-11.9965718879862
-17.2552177489244
-21.9783049612958
-25.7732251426001
-28.2625656770358
-29.2248724011964
-28.7039801359991
-26.9709857776583
-24.3651907963692
-21.1624890874409
-17.5844032254002
-13.8984128472739
-10.4513228818821
-7.55449841346546
-5.32061560429
-3.62055967086983
-2.19613185867041
-0.789275471212147
0.846455472825564
3.00437702073153
5.98730049539637
9.92731442583279
14.631457517422
19.6412032888043
24.4586063227397
28.6903078428166
31.9710696035584
33.8351909537228
33.8066471860804
31.7066291074218
27.8529166129065
22.8875026559655
17.39106343233
11.7126997855816
6.18934897287715
1.42876903537218
-1.78933475851863
-2.9874407691792
-2.342586265591
-0.515936474463637
1.84050399893314
4.32411866320128
6.52639595739326
7.69004516110412
6.83960664900683
3.3813580079998
-2.43798795660153
-9.71472102088899
-17.4998811535826
-25.1675337447181
-32.2209930991724
-37.9390195935692
-41.4569835570227
-42.3076303579109
-40.8266300603106
-37.932985472716
-34.4984166169828
-30.9644155646412
-27.5261914090565
-24.5206251827023
-22.465356068534
-21.6921991034568
-22.0488900661419
-23.0543888976124
-24.3299659907953
-25.8102397089936
-27.5385535864489
-29.3604447663502
-30.9133263806962
-31.9070016250577
-32.3373707024192
-32.3987666703713
-32.2537396869137
-31.9638401257594
-31.6284091150315
-31.4911804176402
-31.8298862165096
-32.7409120450767
-34.0670155908186
-35.5323188340525
-36.9103730466596
-38.0618275794767
-38.8829294540824
-39.3050109651262
-39.3621707293867
-39.2056370959445
-38.9995464764396
-38.7970656882584
-38.5221104559963
-38.0320343901484
-37.1379269526219
-35.5664544592547
-32.9992454590488
-29.2668266998874
-24.5434757750624
-19.3096419138589
-14.0828959236678
-9.19875922000937
-4.86860466369841
-1.38408836878051
0.870540339069742
1.69602175123057
1.3342599303657
0.35264474389395
-0.768527912016302
-1.89498089813395
-3.05873717128028
-4.08486695327412
-4.51028151644977
-3.91943177463299
-2.30149747015857
-0.00459896328269505
2.63884517368883
5.54425610849721
8.69538169573955
11.8217652122618
14.3896158360598
15.9668781127877
16.551815485357
16.4989869632893
16.1639880519374
15.6945957470148
15.1549474765706
14.7242217598642
14.6432389446146
14.9552232325199
15.3892915496632
15.5685988010563
15.3179926753957
14.7326088591421
13.9815723423003
13.1355636112263
12.2213191461594
11.3651977839035
10.765406537261
10.4854120101129
10.3312555870681
9.98874324459453
9.26996038979079
8.19223254498357
6.84723336517087
5.28404675453185
3.56856404784601
1.89650402538743
0.542639776462011
-0.334965840165108
-0.785393357145892
-0.916737027743451
-0.699685656449233
0.00743626278837439
1.23885337614871
2.80962183118646
4.47504578503386
6.13724931821426
7.7788629437399
9.17191190308461
9.7695461226598
9.02297581342728
6.83446752354807
3.64070382467946
0.0394076131639736
-3.57850815518248
-6.96120937818915
-9.65862046636028
-10.9738211938652
-10.411561237626
-8.15886862087274
-5.00903195028138
-1.76666168532034
1.21790512038264
3.91549190173821
6.16648337848022
7.56178940120799
7.8323193171143
7.2233427250373
6.31905427842094
5.48211200479267
4.5790533441035
3.3140164598592
1.7320173873162
0.255637969982132
-0.768080075774549
-1.41085501537449
-1.96738880957946
-2.51755858411838
-2.86330559000729
-2.94756683221442
-3.19529603087955
-4.27680008234515
-6.51794577214643
-9.63613195133919
-13.0779712692418
-16.4978467624179
-19.793241522576
-22.7403093007507
-24.8126442826057
-25.511326765393
-24.8324412382923
-23.2803827668954
-21.387753165671
-19.3015832126021
-16.8714918119949
-14.0194557310657
-10.8576360511244
-7.43657307749131
-3.55269445300043
1.03362279557519
6.2073266185214
11.4538429612142
16.2482364961201
20.3993056938931
23.9418780475849
26.7939379550863
28.7167260658675
29.677201342237
30.1013366363067
30.5853974941984
31.347511879469
32.1031423494615
32.548044684122
32.841633620313
33.4535407762047
34.5545346299638
35.7488815029757
36.5231653587203
36.8406783069438
37.0821893249481
37.3666047320691
37.1246197167904
35.532213538933
32.3369168881777
28.0952094542341
23.5608391116611
19.0090487301218
14.3124230805001
9.57309716121702
5.38862821564742
2.33436628844073
0.312629683912149
-1.36362171335574
-3.2120216329986
-5.06431872456582
-6.37786880753018
-6.89182948094756
-6.7568498275191
-6.05140785357646
-4.46633338437205
-1.69670336694968
1.94484641899642
5.56408962944225
8.41079257082284
10.3938981192999
11.7516300831284
12.4053890591695
11.9907185507731
10.6012098227777
9.15032948837725
8.58559635991934
8.72218183236674
8.19435338472473
5.79648275895748
1.69843227816166
-2.98268066889674
-7.76398723194288
-13.4463162303395
-20.7079427154985
-28.0797336185223
-31.816837725785
-28.3195408547362
-16.9993168701138
-0.975566207718256
14.7946061808995
26.0330842666126
30.3928637840595
27.3067876854891
17.4107038007006
2.00098185304813
-17.7318148217126
-41.4834065878179
-69.6388415157674
-101.794153453943
-135.497131031464
-167.032256019613
-193.685563076171
-214.447182323254
-227.259870377761
-225.293604346717
-197.170705542814
-132.666024813292
-29.1593081646658
107.5475349858
268.559785570084
446.646515201516
634.025568071222
815.337013583753
965.151483893024
1055.92117846529
1070.91859006955
1010.20811975939
884.401240256883
704.140865580232
477.84185351037
220.096098174247
-40.7110423300306
-268.316268798746
-436.676171199258
-544.35025086941
-610.811548237895
-657.379666933382
-690.370155955386
-701.178724239025
-680.731008969439
-632.345337133691
-570.775008197985
-510.519427779553
-456.525519057657
-405.687273940664
-355.155390919388
-307.435156159993
-267.766384744228
-238.447255245785
-217.110493827581
-200.196037975089
-186.785514218818
-178.354562278056
-175.29492867426
-174.539844181527
-170.821622969038
-160.005723995487
-141.384906177828
-117.645099163397
-93.4055249279696
-73.4400639307255
-60.833230954411
-55.4012035180108
-53.5451773338808
-50.3719564923487
-42.9215030939284
-31.8543881691935
-20.1252906076334
-10.0773476091304
-1.83499564959017
5.77897114854449
13.3493196159824
20.2614905382461
25.7425607104651
29.9230042976641
33.5690729551702
37.0266851571319
39.8693342553806
41.6555096965547
42.6818785962894
43.6980396179183
45.0201316552255
46.3033307200742
47.3126013341765
48.6374807191191
51.3175857202577
55.7649035343469
61.3087941322268
66.9072323481349
72.087862030584
76.9372379546871
81.2519748447943
84.0945473466168
84.4790917472535
82.4190292998446
79.036679811718
75.5586826805668
72.3686727325077
69.1620106069055
65.8463817248136
62.9545202987314
61.0550058431634
59.9816348019937
58.931893737952
57.3592266026403
55.5783087274021
54.3810792578076
54.187373608838
54.7551648483167
55.6811849472388
56.926130608583
58.6698969965697
60.7619254911299
62.572302876336
63.4886561233573
63.4354867562282
62.7747452265467
61.7678176363593
60.3234038622594
58.317934951256
55.9805102690787
53.7644903806085
51.8613622267501
50.0357105596865
48.0464082030646
46.1148109692812
44.7971419153756
44.3833062240349
44.5778494226971
44.8702873487969
45.1104465873086
45.5391513895556
46.247710190302
46.8119674123132
46.6439679268734
45.6653988260743
44.4453279823517
43.5804669866691
43.0393101281672
42.2438570755155
40.7534167318232
38.6933629359555
36.4392557011834
34.0355052228691
31.1578971086085
27.712105357745
24.3205132719576
22.0510731388504
21.645874371563
23.0800425539489
25.8422295579851
29.471515124603
33.6789221128906
38.0149715919448
41.6556656313893
43.7031720385796
43.7157627032658
41.8895824600102
38.74821154646
34.7540261528452
30.2410124865602
25.5801818458914
21.2139915917462
17.4621792061516
14.37818679612
11.8789242333884
9.97817876657051
8.80028861853967
8.36451580547481
8.46829030635671
8.86722662887206
9.5161755568679
10.5134563417366
11.7882588211813
12.9637708478776
13.6471723638979
13.830649347785
13.88323167836
14.0921193273112
14.2935460851535
14.0529780496547
13.1757778081701
11.9075820739996
10.5779722245835
9.16722376839037
7.39730192508187
5.28091910749425
3.44079056347549
2.7408937468988
3.59234342208943
5.69194078625243
8.42853056002259
11.4058103451165
14.4547450373708
17.2121861897455
18.9170056713418
18.7983218077524
16.6679313116953
13.0474857100243
8.69973011520121
4.10379020790794
-0.598734329638722
-5.28316329685173
-9.66100725522357
-13.4775797640232
-16.7793949806832
-19.852650218611
-22.8814855129406
-25.7376303172329
-28.1239735844619
-29.840910371384
-30.8401007094607
-31.0796538156368
-30.4810832148173
-29.1092194987269
-27.319796996356
-25.6022666888602
-24.2447096510311
-23.2198271567504
-22.4328181667744
-21.9989724312086
-22.1689821597787
-22.9889661834035
-24.1593013002245
-25.3197412777947
-26.4208479072302
-27.6921453789902
-29.215839741575
-30.6378453303793
-31.406918296226
-31.2815316611366
-30.5063501984875
-29.473385587506
-28.3227555577549
-26.9853233325573
-25.5692345612745
-24.5279371430744
-24.3255261444164
-24.977121268245
-26.0277197149299
-26.9990544243998
-27.7676994248918
-28.4610263053936
-29.092011972622
-29.4647517577718
-29.4768191772799
-29.3790108607945
-29.5893673998621
-30.252331820417
-31.0931494988334
-31.7539338333186
-32.1816517380563
-32.5828973812377
-33.0423142264816
-33.3487226435963
-33.2829453867322
-32.9717243437967
-32.7783820163085
-32.7948219837371
-32.5601582793206
-31.4033677744124
-29.0457925886278
-25.7715086528699
-22.0144227805229
-17.9400920258897
-13.5801758465744
-9.32492747729078
-6.06176248766118
-4.64955943923329
-5.25164142856967
-7.2640881783889
-9.88989036119715
-12.6729022305391
-15.4234198330369
-17.7645250877492
-18.991419467438
-18.5021995676583
-16.3056320564379
-12.9948791810427
-9.21991409684049
-5.26917811845166
-1.18137956263764
2.86143947665117
6.40347676710213
8.99209025292479
10.4820400439361
11.0023794344566
10.6912175980748
9.57373177816212
7.70481636050312
5.31726102373846
2.73660390306407
0.179762816711393
-2.28161951018423
-4.56876050365511
-6.51898089024013
-8.03215621881605
-9.21941741602044
-10.2634787081673
-11.0861465947285
-11.2510546588479
-10.3044175908617
-8.20535915766776
-5.34329734260659
-2.13743934480277
1.24993871981712
4.69855102932865
7.70780825510554
9.40295955005764
9.11538570834065
6.94040277336425
3.63381191799599
-0.0357241206972994
-3.73297307101415
-7.34644513346878
-10.5145684578894
-12.605900270824
-13.2596536656137
-12.8266872294952
-12.1209278528749
-11.7231735203985
-11.6236270799599
-11.5602913732237
-11.5580780873152
-11.9736292066652
-13.0295687686002
-14.4860440171304
-15.8996827352757
-17.1415346690833
-18.5065318543331
-20.2762312134687
-22.2933517989131
-24.072906466093
-25.2788919149334
-25.9547570081274
-26.2621413800693
-26.1388435467669
-25.3600054341982
-23.9048862872869
-22.0976835944314
-20.2918905522859
-18.492140049466
-16.4071155838207
-13.8620150256461
-11.0278506631767
-8.18396630895449
-5.3715488181915
-2.44746954922888
0.510179586949505
3.01435128184829
4.52877645551783
4.98852798356936
4.84545885573493
4.57598407998201
4.25783463983547
3.71509551983088
2.98173496797883
2.42300884226238
2.32339567427522
2.48184651127093
2.37850274621093
1.74809056167499
0.865174219719734
0.212210420288216
-0.0161969780651816
0.0544051041351281
0.386376485074834
1.26000656349149
2.96811779380224
5.3820424777459
8.01904904994818
10.5922095851556
13.3539917336949
16.7703346764322
20.9215094931412
25.3900804216246
29.7584998570071
34.0222001079015
38.3240285130837
42.3378819241507
45.1659763492039
46.0154381646402
44.9153896765363
42.6281862864092
39.8757518661015
36.8266811443551
33.413791018398
29.9581605622337
27.1822314151526
25.5168050654689
24.5753245863194
23.5101630235274
21.8653155285713
19.9148522713639
18.1362261793033
16.5563884486425
14.8182687414978
12.8221965893603
11.0210242939447
9.91615356988573
9.39351023010643
8.79800502865692
7.70505172475331
6.43091503890485
5.64337541184631
5.58746940289189
5.92057484229763
6.32500529956123
7.02372856823119
8.45267691981805
10.4884556179736
12.2788068769622
12.9885146001845
12.5885979620266
11.7344966257052
10.9291345406268
10.0598529742465
8.86658988314012
7.64076455849433
7.13407110541983
7.71287725889858
8.84080078484601
9.60700437136356
9.68424668686709
9.53622842908403
9.65448453756126
9.85024738775843
9.52706233105213
8.54322442656434
7.47603609021707
6.8885613372875
6.54619812342142
5.64606511632061
3.82123898188017
1.65730448798942
0.0686048340454768
-0.655996953407673
-0.928934056519477
-1.04107209998069
-0.618731862842594
0.853636305432531
3.12984482329933
5.17749170926322
6.16791976170537
6.26490542248933
6.236124626352
6.45235763340633
6.62039779870088
6.53912173032911
6.69196402057569
7.65702058058706
9.00268187770732
9.254807474755
7.25891323522791
3.34642469201865
-1.22403720505281
-5.86470772614053
-11.0524705476307
-16.6540790233557
-20.1929687647911
-17.7461509027294
-7.34891528130117
8.42012446927999
23.6278547477024
33.036110152547
35.0638188951577
31.0227300964932
22.1038131921036
7.75152515790802
-13.0343753904287
-39.5143608982784
-68.9774588206784
-98.6821877720571
-127.63510678177
-156.351662380393
-185.1853703249
-212.939717858458
-236.284521036732
-249.289304634652
-243.170888764116
-207.75478887153
-135.326020171885
-24.6270416766526
118.531103773035
284.679268148791
464.352532917386
647.732152530004
820.750715170497
962.981586845225
1051.57063921195
1069.1913818301
1009.63800649152
877.410510627643
684.211814424163
447.596461109386
192.165803108869
-52.0408923771498
-257.910875145704
-412.235508581614
-519.713075892888
-595.076905485167
-649.466158285028
-682.890090038397
-688.612268619291
-663.686691166009
-614.800741368064
-554.679077030998
-494.151153806455
-438.011890226014
-387.03206727025
-341.653412986018
-302.659419067814
-269.367339530848
-239.307782762001
-210.873383453664
-185.819731261139
-168.046653883828
-159.459270420875
-157.38834674872
-156.43323333758
-152.657556152122
-145.718903698685
-137.271865538556
-128.206529432785
-117.977977813906
-106.149017082524
-93.5722973930001
-81.5680991518512
-70.3520055532435
-58.9019018685346
-46.4008309564486
-33.2924031824371
-20.6418485380395
-8.89671942143493
2.04683598055977
11.4847254302348
17.3269371884353
17.6860378148933
13.2428703080903
7.63260577474603
5.02827931172243
7.16832070655036
12.6733776959866
18.9749101291706
24.541851841848
29.2760147643002
33.3743634660808
36.5377450390636
38.4573735936614
39.6055419756625
41.0277402716694
43.3174975137027
46.1225485589548
48.8248180844239
51.4670432024667
54.6864673575029
58.757995637732
63.0468504400893
66.6429751770496
69.3974432309832
72.0341247708505
75.1706599199446
78.4479309875028
80.8053350185367
81.50423141165
80.6418622292688
78.6500404170955
75.5889198091685
71.2255239526942
65.7713887554076
60.2500731608699
55.9328941335926
53.4632694495594
52.6455197929215
53.0000179520481
54.2748922681955
56.316731344146
58.6669582096159
60.6300197707919
61.8630878140898
62.7438676388246
63.9836553844779
65.9043994706956
68.2248591705191
70.5317139047631
72.7355323941263
74.8910385444375
76.6807538139596
77.3767929343198
76.4899038293462
74.3660456174921
71.9634829980398
70.0186879227033
68.5531392564562
67.2301142588588
66.0086443491911
65.2203842392046
65.0068640518653
64.925542111448
64.3250501882013
63.0764440863909
61.749613145123
60.9934296793244
60.8579323942749
60.8396815539137
60.5069355579092
59.8716589274465
59.0845122250655
57.960071493965
56.0574326652215
53.2725352782683
50.1715700601209
47.5780857228297
45.8598640508082
44.735000968019
43.7527700235162
42.7740880719794
41.8503183718759
40.7537409151109
38.9047806478317
35.9137654718797
32.1008173453123
28.3101762266924
25.1841098609853
22.7264388718397
20.6145324072288
18.7890539483012
17.5492804497474
17.0730742987585
17.0499401599842
16.9645126604568
16.7020408290383
16.6969315042713
17.3974540402844
18.6694813382905
19.8326959042091
20.2442622092223
19.7176938572828
18.3564334156631
16.1639784033343
13.0372031657091
9.17124863017204
5.29745177346604
2.34657497397361
0.84797371798246
0.703410923641701
1.50359317499646
2.91874602764633
4.70748768206945
6.48266460311035
7.72126202333004
8.14151597366384
8.00256726319283
7.89880904310841
8.22789581090138
8.9182088043823
9.67208600052944
10.3451649438738
10.9666082958976
11.4408561652495
11.4273116021271
10.6532038303865
9.29736920621382
7.92251668531449
6.96805724151132
6.36233516785982
5.66391040807015
4.49367163392539
2.71339054090274
0.217446195553651
-3.24331239552382
-7.84441917861473
-13.3039325205343
-18.8695948383386
-23.798472578971
-27.8305072054888
-31.1516445222807
-33.973759503855
-36.3074059788041
-38.1832614130433
-39.9218922025001
-41.9505329424482
-44.2829542113349
-46.3056569462487
-47.2203582737635
-46.707736061359
-45.0954427651032
-42.9107064119844
-40.4254825489375
-37.7388771886306
-35.1855132999042
-33.4048889532112
-32.8560940285584
-33.3324620979965
-34.1063008399243
-34.5887663127054
-34.76467783357
-34.954465215657
-35.2887379724352
-35.5898210147287
-35.7621172958362
-36.0927813423793
-36.9811166734596
-38.3979234621177
-39.7914071965677
-40.636343087404
-41.0147041169436
-41.5538845521901
-42.820889088818
-44.9018049688514
-47.5991713184627
-50.8617721583717
-54.785051078795
-59.1324347204936
-63.0213533486308
-65.2827590959394
-65.198146588701
-62.8585007283762
-58.8434050815245
-53.6976130547511
-47.8176118239146
-41.735700301243
-36.2486360469953
-32.0716499409182
-29.3681006904254
-27.7200881301372
-26.5890482738283
-25.7383998698935
-25.1786885790484
-24.8047947770261
-24.236353105395
-23.0489815366769
-21.0651562583315
-18.3369658286769
-14.9014272595027
-10.6970891110325
-5.80033898208572
-0.702817490729224
3.7145839756088
6.49695603002707
6.91738171296169
4.5881898372531
-0.50506351479987
-7.91317042858433
-16.6853981815305
-25.5807646941712
-33.4672384331384
-39.5917874327418
-43.5474187512194
-45.1476690070891
-44.5028934561212
-42.2169097328034
-39.3003253657554
-36.6478600552176
-34.5104545683097
-32.5344642414121
-30.3516012065024
-28.0556705600612
-26.0319492660432
-24.4079766418062
-22.8775830212518
-21.1711199961254
-19.5793549406852
-18.7999747499109
-19.1921336858537
-20.295564326401
-21.2048562903888
-21.3796336149204
-20.9608640745334
-20.2869391598956
-19.2774466286361
-17.4638560397186
-14.5841117432447
-10.939211736728
-7.04067568223427
-3.00611339323823
1.51779760635936
6.80742118868862
12.5795103051566
18.1516589493564
22.9945074612229
26.9739500906464
30.0655185024581
32.0508569268758
32.6922047452382
32.1649739918829
31.1069331733386
30.1132691479106
29.2519534470752
28.1816761665272
26.6881742366031
24.9255125389217
23.0724159604654
20.9337180032208
18.1230685509531
14.6779954608363
11.3116096602167
8.88942084418306
7.68512892944857
7.27231800031323
7.13392027882156
7.19911712476245
7.66617199648528
8.43515353060422
8.98885809590615
8.94895238763061
8.60378686528014
8.68727512475516
9.62335426007007
11.1259471618685
12.5853370249931
13.686269221728
14.4756926005026
14.8977383384034
14.5501345993054
13.0988590354219
10.8473804343917
8.67137118885147
7.31156774495338
6.84582574762453
6.93226842366693
7.42094427228113
8.48757470213661
10.1389850127036
11.8382189263714
12.8739029170314
13.09034440981
13.0477401509537
13.3634408185682
14.0321341090997
14.5541462547039
14.6546442071727
14.6218955371394
14.8305955575212
15.134652663981
15.0112954403552
14.3253462089364
13.6996172473801
13.9316974638556
15.1315775687457
16.6433432430342
17.8151570874465
18.5928682290916
19.1816337769774
19.306964683893
18.1922815236644
15.4296823002953
11.6668057187954
8.15664596040487
5.63130585687361
3.84428595578455
2.29074716729031
1.1087920557311
0.951158306684929
2.00073056541972
3.48347036731844
4.43236207842738
4.81701627883754
5.61256661581877
7.68419407893394
10.853030447093
14.2577316702969
17.4563293177238
20.7952907180403
24.592918612072
28.2857795819184
30.7504953693137
31.4518856695639
30.9506098039605
30.1206928836387
29.1076951745561
27.3737926454824
24.7045869502862
21.7590132349411
19.3717379080148
17.5390527640595
15.5061455036113
12.9172695735
10.5110000814019
9.36672039591864
9.61801206524986
10.3158749096248
10.6587144926056
10.987005846085
12.2039373504038
14.3605008711725
16.313855154173
17.0166878011505
16.8252615921016
17.0944012059893
18.5038263030036
20.230631652297
21.0252326506798
20.7884117699052
20.5956043702984
21.1545004927869
21.7493477272547
21.0810352916199
18.8882691791644
16.1863222956811
13.8117100305733
11.2535424366489
7.38094117245605
2.09713943604735
-3.3361048071441
-7.7252485805328
-11.0454275296139
-13.5206029855654
-13.9558837039198
-10.0824835925247
-1.25542126418787
9.62616680750153
17.8340901144369
20.7313841077161
19.395128685718
15.8846467551328
9.50900148003295
-2.96416631867363
-22.9415450767829
-46.7828647109627
-68.2575639744633
-84.5265568469641
-98.865811738202
-116.726813333836
-139.402031280192
-162.307423185001
-179.269222277865
-187.022436911503
-184.224894079745
-166.544515863153
-124.735718111413
-49.3086100425659
62.5705318231324
205.052373687406
367.68704992884
539.742114288674
709.411963745215
859.940597509833
969.414740008893
1016.97874719209
990.517670459144
889.22546348762
720.874648240914
499.553616248653
247.159209370656
-5.80595593374573
-226.823800995822
-394.284824821764
-506.449110767843
-577.290425644455
-622.084855105439
-645.857630687257
-644.723662974468
-616.803295171141
-570.18470992236
-519.799795014098
-477.314540845361
-444.571253012829
-415.877625110394
-384.921486009739
-349.051999070175
-308.790049215744
-266.011667770576
-223.811440621308
-186.838800601703
-159.565318240587
-143.231435513505
-135.045389776266
-131.05256396405
-129.446625493775
-130.251997141201
-131.871618688478
-129.365859466635
-117.693033425029
-97.0567885838735
-74.2975048300767
-58.0777416478764
-52.2409450841541
-53.6182327320583
-55.7657583741991
-54.2884577914318
-48.8264921477885
-41.2081038812252
-33.0353343269826
-25.1936607149514
-18.530783817337
-13.7483561394417
-10.4335520547019
-6.94209883213361
-1.86842945067738
4.47482805982844
10.4609126948207
15.0517809050778
18.9053071275639
23.3834831201734
28.787429913475
34.0354512198777
38.0755331484745
41.1351166861061
44.2451799649652
47.776533564604
50.9505081212919
52.9187247927614
53.9367235327092
55.0892685019962
56.9580997839707
58.9709405203936
60.2211196532448
60.6317631653259
60.9712335581685
61.7981592359886
62.7891565253943
63.3088809011857
63.396434655698
63.8211592849485
65.1335302803437
66.9566430695967
68.401025625892
68.9946553419272
68.9110583539323
68.3063858010204
66.7955571269438
63.8656353131143
59.6999256909787
55.2897797706717
51.6451898250114
49.1026767737961
47.5645906994855
47.2238543442724
48.6764010165841
52.1875624392973
57.0876995684062
62.173737912027
66.6863873225986
70.6572817644722
74.2342861460443
76.9405996132485
77.9156273112896
76.879218953817
74.5702109546018
72.0551048507274
69.7569179375132
67.4151204654231
64.971864401982
63.1666824548092
62.9945052617813
64.6605450848158
67.3340015678888
70.0004552390758
72.3419719465588
74.5935512044429
76.6771800030428
77.8329019839672
77.2821616236314
75.0928988682557
72.1424136666396
69.2177834189545
66.3550119604059
63.1538278211726
59.54299761589
55.9600742700598
52.7573030743513
49.6839394078229
46.1676008970484
42.0420883508537
37.7884451522006
34.0077818059473
30.829793701655
27.9851308278946
25.3515353652486
23.176390607111
21.6707934880094
20.5602181863551
19.2519672180529
17.4483788327911
15.4254057856914
13.6271042092704
12.1168359108079
10.5888658832168
8.87639462479561
7.2314916052467
5.97864316257961
5.00794655107234
3.8115784932476
2.05701828566051
-0.0226433321610919
-1.91139700463053
-3.39122648477498
-4.68699891418867
-6.04382406563591
-7.3522775459979
-8.3393288494055
-9.05270314670347
-9.95367334018384
-11.4485645347373
-13.4381850288831
-15.4478202610132
-17.1477942540073
-18.5913500149238
-19.9130377386599
-20.9685644303242
-21.4590192771707
-21.3939911310255
-21.2504467477873
-21.5618623097068
-22.4277132326037
-23.5521242622976
-24.7331708499513
-26.1417707675964
-28.0279465441503
-30.2733922149272
-32.4249377291862
-34.1966946788665
-35.7789472827108
-37.5173788666212
-39.3488356339919
-40.7190858307351
-41.1058962712906
-40.5040347743839
-39.2940051404677
-37.7215386465604
-35.7024096557118
-33.2041273787166
-30.661695617405
-28.8103486175791
-28.065960820182
-28.1781826008375
-28.5515512269923
-28.8107588238041
-28.9344883736128
-28.8940180255376
-28.3806641652584
-27.0465586517473
-24.9564978228592
-22.633572696101
-20.5919126644783
-18.9046179206442
-17.2970949916433
-15.5811454221921
-13.8491712619686
-12.2277041092955
-10.6035629267194
-8.75414941353072
-6.72924877112623
-4.95186508330546
-3.85285502112544
-3.46650948289636
-3.47199789433279
-3.59212935864688
-3.8205335420675
-4.21888009048081
-4.62861260872592
-4.75763074999979
-4.57407235346758
-4.48199300998541
-4.99478138723013
-6.25795860810493
-7.9693679328511
-9.74450379084386
-11.4356715948773
-13.0321994132265
-14.3620797464103
-15.0795011620534
-15.011307445724
-14.4139010062662
-13.770849955678
-13.3428813008626
-12.9952489331042
-12.461844195941
-11.6542771337544
-10.6171886651942
-9.25704978393293
-7.30280819754908
-4.635588428127
-1.58432258674416
1.23302451650837
3.38807902663599
4.9002656826415
6.01300613656216
6.82512295121865
7.25267642797905
7.31075934827588
7.25833407498236
7.34021845501739
7.42634526436997
7.02461122234044
5.68825387324843
3.35202530551025
0.248670687281589
-3.39592797068089
-7.45024334697605
-11.6766390747568
-15.6186408486904
-18.8462599412323
-21.3093064215758
-23.3367295264074
-25.2380475414929
-26.9730578316546
-28.270882350925
-28.9956420319367
-29.2458435210021
-29.0578687365278
-28.1521791184009
-26.1411208877613
-23.0094145790129
-19.2777622505851
-15.6135955994311
-12.3248634674365
-9.30164881078205
-6.39595668590052
-3.70214082626621
-1.3929329296107
0.603049896618428
2.57796039333176
4.65145054489171
6.51054734841265
7.6461507568418
7.82122825661403
7.21857157088781
6.14399654937586
4.726972274595
3.01296447187376
1.26012051148753
-0.0620317631332501
-0.680577183006799
-0.858924824361806
-1.21208361977163
-2.16707646047473
-3.66783908131178
-5.40296511712335
-7.18618842938394
-8.98285662985313
-10.6025692418619
-11.5496312774819
-11.3150730968949
-9.79742543608606
-7.3525683265091
-4.4338208461274
-1.27234048590486
2.06461812679876
5.42165672896893
8.50559553015742
11.0827071296705
13.0854626201023
14.4328070318215
14.8244622430802
13.8677977783811
11.4584740611356
7.96040199966171
3.96524469941048
-0.0370552431753879
-3.64545929524721
-6.28500243348077
-7.21661722901536
-6.02931563862393
-3.12294346454962
0.444833915856691
3.6714361670725
6.12550800084159
7.75636912933339
8.38629641527098
7.66432706659862
5.60146115505353
2.94560817051968
0.755671716845882
-0.466165387633936
-1.10122699063321
-1.81916694782971
-2.78651257357217
-3.612150044098
-3.99901287163186
-4.17474106218975
-4.50333693012266
-4.80001190421774
-4.3089144201715
-2.46843160520353
0.442531156075972
3.56585112221427
6.29817374567779
8.68200339735694
10.9612579751144
12.9932746839427
14.3340646353835
14.8503380233759
14.9732907555579
15.1878313835082
15.3974227689582
15.0049681555094
13.6252371505475
11.5273669288434
9.28671060767738
7.18194530710275
5.17364222104543
3.4411136735899
2.62104127300739
3.25750586620801
5.08101891642687
7.07294885622826
8.32054029306042
8.65350357205916
8.34246004321433
7.37965298572843
5.39973868402946
2.38538016863694
-0.850828087784963
-3.2196078948876
-4.39697786932543
-5.08135937471172
-6.1236818174685
-7.61238270888462
-9.03483955314208
-10.2065436634579
-11.6416152005899
-13.8105239516393
-16.2895841843698
-18.0451328553742
-18.6211694903674
-18.7373699760911
-19.4825563690892
-21.0880564364094
-22.8204137120423
-24.0623875983868
-25.0726185565273
-26.3552867011909
-27.4978434611742
-27.1678581081185
-24.4904709024349
-20.1303120179738
-15.6423699639719
-11.8434383803062
-8.2513636044101
-4.25871709632545
-0.386599939937025
2.20149439967885
3.41291399626272
4.84951079671738
8.25547122921786
13.5363930194286
18.8421261748025
22.7140360607929
25.6447163022293
29.0530655767417
32.9545775403916
35.3725653772933
34.4541779809005
30.8673582421313
27.621524898142
27.5182945456796
31.1283632450715
37.20971837514
44.3130935155002
51.1682563275059
55.6480413020472
54.4328471106988
44.6073467000687
25.5109821060462
-1.57668971049626
-35.5457014771652
-76.3294455356485
-122.892791740928
-170.699642288794
-212.305622627078
-241.029870706957
-253.427973649979
-247.322380039341
-217.80647909158
-156.893629510685
-58.6266878411859
75.3177122944033
235.692113803179
411.083150424473
591.827501760319
767.444745676641
921.099275920171
1029.4217775765
1070.67908448688
1034.6599331871
925.310024131408
755.164855378065
539.384192703601
295.974286947755
49.1698631308045
-172.758722090076
-347.927398911244
-471.065479509727
-552.798674490467
-607.605187534516
-641.843124715777
-652.916518592306
-638.440276139247
-603.999359665397
-560.99932907851
-517.989640140961
-475.67832294583
-430.494156866317
-381.417065480726
-332.040971401304
-286.707047394899
-246.706266589508
-211.357717978347
-181.684846278787
-160.989707479423
-151.040611889312
-148.714853389813
-147.681182876032
-143.438495750872
-135.85788734434
-126.606152401892
-115.263324035731
-99.4015437908177
-78.6122468373838
-57.2037938636055
-41.6658475340275
-35.2660858494011
-35.5850392098496
-37.3689216000937
-37.1688670720899
-34.8736091940126
-31.5085881974203
-26.9114528940932
-20.1481368220304
-11.460294504946
-2.65211798370427
4.74276986099584
11.0304969829182
17.5454791338163
24.555318078958
30.6626533727759
34.4601550162173
36.231057927522
37.486948120336
39.0074178854042
39.9725951111759
39.2955595106465
37.3954643501608
36.1354119444573
37.0453760681609
40.0694528953519
44.2434115030407
49.1694396920825
55.2704349320445
62.6062009335007
70.0089683738206
75.8384497787864
79.4698117495314
81.6588107257003
83.4099918789463
84.8722783285973
85.6005000256386
85.5984081551496
85.5350662235597
85.7519237622776
85.4421895483555
83.2634330006538
78.7682239758939
72.9096707210682
67.0237728253475
61.6161536728025
56.4567157888472
51.6968492841872
48.3495990540725
47.3373235170399
48.2734870955329
49.6059183122642
50.070991473012
49.7539866159116
49.5543903659146
49.8510312606682
50.0801621159624
49.6517696956217
48.8692153506543
48.570041286603
48.9419063368605
49.0785289697976
47.8907049224429
45.2523312069619
41.9985830761796
38.889957056564
35.9207722669011
32.7742274361041
29.6551333239746
27.2729867168952
25.9638545647765
25.1548880525764
23.9536875889423
22.1592468959362
20.4274916275698
19.4248437364024
19.0976115821374
18.9669139989889
18.9504818370583
19.5128128641243
20.887391344631
22.4271938890938
23.0461712329222
22.3057848356797
20.8271853320313
19.5363500439847
18.7110946526092
17.9954708266706
17.2395414861115
16.9408913821249
17.6291282917088
18.9925299795337
19.9636775628778
19.7852082141274
18.8083251604287
18.0801333244924
18.2630547187291
19.1959059726932
20.5034346540608
22.298805827012
24.9660410323333
28.2906950684079
31.1280683290864
32.1599790290964
30.9298584636009
28.0091301184071
24.2302189066657
20.0069269740566
15.5004575685731
11.2097980811719
8.03902423412369
6.65727170119954
6.95062623647069
8.26593869894668
10.132994317632
12.577029774812
15.7187458297374
19.2814717491226
22.6700791661174
25.4585747728549
27.5802957742435
28.9744791456445
29.2393606260608
27.8651263008742
24.83141856514
20.8258993897803
16.7931618974128
13.3538841739693
10.7383785437474
9.14178712463085
8.84723259315039
9.84021324457196
11.4257489223415
12.46189517457
12.0674190882973
10.048008257693
6.64183611651388
2.04205420201155
-3.63240002782745
-9.94915722057543
-16.0342343451423
-21.05953235614
-24.82695644485
-27.7028732548202
-29.9463455377726
-31.2695302044019
-31.1920713093572
-29.7203473693923
-27.4420747183483
-24.8862476286072
-21.987420221344
-18.397895469695
-14.2896792775579
-10.5969555387964
-8.30114756459926
-7.56300631193859
-7.72994119332283
-8.18843264308352
-9.01855469052719
-10.7073189381737
-13.3821386402741
-16.5928108096403
-19.9061234664443
-23.5009149662716
-27.9514770229364
-33.435831274693
-39.3346645527536
-44.680907692799
-48.8718093263993
-51.8157392718441
-53.5009456176907
-53.7177271488013
-52.3678582310375
-49.9070460657088
-47.2162903692332
-44.933512393367
-43.0097745067145
-40.9957007653596
-38.6479386192033
-36.0818582596269
-33.3550614734631
-30.153893566107
-26.1111782001773
-21.3970792593404
-16.7880203331616
-13.0389473471836
-10.2685981243745
-8.06061809307863
-6.09086759921826
-4.47155063336958
-3.44193574686289
-2.92273561940747
-2.60365724508031
-2.46661764279829
-3.00750314318312
-4.78018013446956
-7.77830428557028
-11.4053232801967
-15.0398160627823
-18.4615556585484
-21.6423217279106
-24.2950702475697
-25.9115561172372
-26.3336056759129
-26.1084475283696
-26.0660441718519
-26.5309038928778
-27.0805623579514
-27.1097359788095
-26.4726219232279
-25.4254056181208
-24.0379769718906
-21.9484313954274
-18.868593419108
-15.2167021303048
-12.0115806601951
-10.0525609317041
-9.30188842090595
-9.13898741428147
-9.08954606902662
-9.10864591849012
-9.15642475176925
-8.75670808817245
-7.23239134270436
-4.3858917699518
-0.767703521935788
2.83074181722492
6.06053488823916
9.08780580182209
12.0708084620448
14.7847991900482
16.8640902340708
18.2671438556893
19.2833621828167
20.0514209397474
20.2488004513614
19.4038161972557
17.4550791148438
14.8496078959828
12.0764978500482
9.26397654913366
6.3452802401572
3.49705305198744
1.16771127490192
-0.418439517487863
-1.63103851898738
-3.11904056223258
-5.12442088691846
-7.24861714157548
-8.94817985226461
-10.1191994801282
-11.041015036998
-11.8125579931973
-12.0961173303941
-11.5738550604053
-10.5468592069461
-9.85452552599578
-10.12484820213
-11.2219425459936
-12.5237779821072
-13.6336922879944
-14.6284736546067
-15.6055984952176
-16.2309882568116
-15.9711860668002
-14.7519841430955
-13.1721498311795
-11.938115530821
-11.1795261011589
-10.4570210224096
-9.38625396137178
-8.03959083985504
-6.63906691669899
-5.0347124223362
-2.75710080482968
0.355704877941278
3.7764834319723
6.71214691699784
8.86466385325997
10.6111990906281
12.4159069285111
14.2551914097067
15.7815161439182
16.9470505050324
18.1853830908248
19.8387560524371
21.5507189838943
22.4506740420638
21.9713290150776
20.332913134569
18.1497674664619
15.7183329855006
12.8992743652244
9.66934399888861
6.51225863391826
4.04342302495583
2.315699393194
0.726210223245573
-1.30621604280554
-3.71785884685164
-5.98209061251589
-7.7989615564627
-9.35645831224508
-10.8421852349563
-11.9268697106801
-12.0056836245374
-10.959931077932
-9.44825641920534
-8.28777839100661
-7.65486578141827
-7.0866061112565
-6.23919624610392
-5.38430887102108
-4.98630760184383
-4.94160842761744
-4.54314356815101
-3.29529616690996
-1.5579654269693
-0.163465840811796
0.549336798897244
1.08208998459563
2.09004681930725
3.56969845490057
4.96985473599719
6.04670859949111
7.29472232872324
9.34066102776823
12.0681312935017
14.6287210697129
16.3641329828083
17.4810653360678
18.6387971215194
20.0184882602081
21.0967682614208
21.3880559521756
21.1218372291952
20.9111602388642
20.8374717815511
20.2010977467557
18.3404728873721
15.5001542486317
12.6231806100941
10.333033045791
8.43210139186681
6.54913327228513
5.01059237294488
4.67118138335873
5.82326991196397
7.60770305428909
8.79526440504795
9.0452272705974
9.07575655425386
9.54419737628965
10.1056379959718
9.8955080969513
8.80302461682929
7.81103098580943
7.85421353330077
8.60964995923869
8.80465403902964
7.71603302005225
5.99242261597665
4.78690440065995
4.35767128924662
3.94690869042497
3.0164770104825
2.0944489733891
2.02097420203078
2.594491547343
2.52422918511034
0.885937754089525
-1.802728056227
-4.33184671846702
-6.29511029417766
-8.06458980794915
-9.00923157202389
-6.50245515165691
2.11694667104526
16.1057042539798
30.3784036087465
38.8497919861194
39.0239488835968
33.0742744096124
24.4083480947307
13.7429173722762
-0.93169812643665
-20.8972500174739
-44.3133000018759
-67.9440681856183
-90.8363177867233
-115.278209865434
-143.637062181724
-174.586918494076
-202.737272659627
-221.363161044646
-224.447705524939
-205.960320443918
-158.713827940688
-76.1972036155556
43.1731655292855
193.760995674129
365.088163603957
546.064720934073
725.822393142698
890.11494452951
1018.34377505892
1086.70675866009
1076.77752522962
983.052474852149
814.237519301487
589.403753106818
333.789727356132
76.0988821726979
-155.49576263214
-340.679084402116
-473.840066871201
-563.554207611927
-623.081903534671
-659.237390974273
-669.458091816511
-649.161315954317
-601.326864378929
-538.525915801499
-475.903632316473
-422.607600204612
-379.448109609201
-343.059437475559
-310.671014795259
-281.067016842641
-253.106797027693
-225.612158164277
-199.200320359588
-176.957629334132
-161.983696899498
-154.200282978201
-150.327651790985
-147.224084056263
-144.482499164847
-142.96419007975
-141.133674460233
-134.211511979184
-118.113294039473
-94.3090799606373
-70.0902566731459
-53.3800873118251
-46.9196523701379
-47.09033629115
-47.7013894573102
-44.5342300961395
-36.8774214387816
-26.1943609524194
-14.5047987326538
-3.88040681033726
3.78706260048605
7.67876784582667
8.82516279294765
9.38948858317393
10.7559620728401
12.4339376082225
13.0467436112713
12.2195757384412
11.1181167825812
11.1036010564552
12.285398772175
13.7500077728959
15.0215186835988
16.7784551767495
19.9313594672223
24.3475404150064
28.9259361261831
32.9003818815849
36.6382868973895
40.9070969941647
45.6228327402929
49.7665099086995
52.5979692221976
54.5869093407788
56.8560680924587
59.8681968880993
63.0374608617299
65.6955264825372
68.071117727174
70.9699822411834
74.5925989764723
78.0728922903015
80.3698873931452
81.3733580716256
81.8232259715324
82.2073726703555
82.1172172400293
80.8916418984206
78.6544310115342
76.3333431923243
74.6069727124434
73.1521776222167
71.1791256226313
68.5573925175631
66.0690752875099
64.4715643543783
63.6003808072271
62.6695337057198
61.3486154414696
60.1899316751317
59.8505680116558
60.1427571397333
60.1692338804583
59.3814298137064
58.2027302189796
57.4361143773422
57.2482934733725
57.0359570277856
56.2942949397445
55.3030841444523
54.7210956977436
54.6403218556279
54.3645594355872
53.2221918617057
51.3740341600859
49.5971608093303
48.3592803571001
47.3829395370355
46.2019076488665
44.8929121153814
43.9699537960236
43.5815511130271
43.0983268767357
41.6683518001019
39.047295728513
35.6689005607997
31.9405691618728
27.7528784113756
22.8495605162991
17.4999152100102
12.4833262857732
8.32485644229538
4.76383653459703
1.17726547271792
-2.56457032700119
-5.91221851939535
-8.34795977670776
-10.031500529797
-11.4953341345837
-12.7706064774142
-13.1194152549208
-11.8031628193707
-8.9723505948033
-5.56904455601525
-2.36285060197765
0.676816139273148
3.92182368674946
7.18661539980126
9.58321677697401
10.338013460438
9.5492467871712
7.96057773728984
6.08425504276611
3.79057170929719
0.818948552352818
-2.52884214178441
-5.43460939345695
-7.26799035184178
-8.03821097348833
-8.07909430728481
-7.47780791970717
-6.02937271451941
-3.70978477968833
-0.933285281375225
1.81681507393257
4.49592747395675
7.44166805795672
10.8201213640553
14.3296572942748
17.5573516184167
20.4572551258459
23.2194835500416
25.6483086286733
26.9274146805051
26.2343214028809
23.5526041796047
19.697011946416
15.5220286613579
11.3221413978617
7.17049930247174
3.67561425866451
2.01657978698054
3.01067164469367
6.26359030264809
10.456595278396
14.4680693571249
18.013819882824
21.1260549920663
23.2790497505961
23.4074661080502
20.8858685152751
16.2569717027771
10.7634535935923
5.22032001444171
-0.42873442630933
-6.41576316655755
-12.2923130445377
-17.0464926227636
-20.0439846736731
-21.5940462670499
-22.4525758252043
-22.9403618557102
-22.79967531057
-21.9013004520046
-20.8025626593824
-20.3840118935714
-21.0174845671048
-22.3173809199057
-23.7425265770277
-25.2182690725096
-26.9839719847424
-28.9538627333751
-30.5405269512426
-31.2502512439899
-31.2883259482921
-31.3561887199507
-31.8699789137176
-32.5932743055349
-33.1348829171666
-33.6229217466086
-34.6351436834401
-36.45562326941
-38.6375576742613
-40.4739906031254
-41.7933614963855
-43.0525905717977
-44.5886055271584
-45.9692211175133
-46.2655227706371
-44.9104871898878
-42.1015182250346
-38.3313551337934
-33.7496218755713
-28.2219695990557
-21.9902293070431
-16.0248399485176
-11.5423849364428
-9.2102955836122
-8.91789318193982
-10.2438767430895
-12.9133494660205
-16.6800625550369
-20.928008827334
-24.6821110516704
-27.1476668477934
-28.165472701837
-28.0628623433631
-27.1528356234459
-25.537825391821
-23.394231727902
-21.2345485237394
-19.6937355183518
-19.0739646463262
-19.2434062516708
-20.0158884608522
-21.4830635327493
-23.8344897690307
-26.9054974864709
-30.0769190408248
-32.6846210744298
-34.4139774950687
-35.1933710494871
-34.8140353697726
-32.9046337673979
-29.3988802981919
-24.9012728402055
-20.4013403110137
-16.6029725374557
-13.6467711708478
-11.4974972024508
-10.3906157714445
-10.6624808646598
-12.1554918244596
-14.0450387652245
-15.459907045277
-16.2319372571384
-16.8763675248091
-17.8315007230749
-18.9081403527668
-19.6138123589468
-19.8747832811748
-20.1608871728508
-20.8105781539804
-21.4316493752067
-21.1997252967399
-19.7379376886573
-17.5052798585762
-15.2328781809942
-13.1405099395957
-10.9029806547924
-8.33023470362537
-5.80344896614349
-3.86825631302648
-2.5301659562046
-1.20685079919392
0.56942859632403
2.59419776450673
4.28392218380307
5.41724544995655
6.35984964797582
7.52177602797258
8.81800772753944
9.87050358766693
10.6601206602035
11.7043877190686
13.462606303681
15.7216056013393
17.7766808117204
19.1917518130803
20.1662588211162
21.0680227461132
21.8073098671742
21.9309848984981
21.3215822735666
20.5247361228529
20.1807290559845
20.2344625689497
19.9474259233758
18.7323361762453
16.770299829109
14.6562637095723
12.5939112866467
10.2470096847085
7.46137122998393
4.86922095630116
3.48328778751208
3.69391359638376
4.89668455063523
6.2102282453929
7.37059735443216
8.69669818870761
10.2623422015891
11.4555337322076
11.5770253883765
10.7217409690944
9.76318281630361
9.40247504097812
9.46521387753933
9.32153344031623
8.85629829966592
8.71715412311247
9.53145128455074
11.1405227130837
12.8655299656813
14.4408128944532
16.3508908481326
19.0831791581633
22.2485693352727
24.7307024625873
25.7171782469602
25.346918151729
24.2326330293209
22.5820694087182
20.1183901930171
16.8785413930981
13.7517042618696
11.9287148740001
11.8629879049947
13.0043674301396
14.5868590798649
16.4229540292969
18.7216924116053
21.2908603701113
23.3047502248559
24.0322918701612
23.5943854550202
22.7401444022611
21.9140124180227
20.8186538558087
19.0140415156995
16.7176773183321
14.7215040156939
13.5444411760623
12.970851938834
12.5902885239832
12.5729996013868
13.5670865251841
15.7868752758907
18.4957998041018
20.6175636355344
21.7274064900011
22.1650341806665
22.186841000267
21.3769376259537
19.1888891010862
15.9162379627314
12.7092573761747
10.4545027981956
8.87409863239029
7.00484931569459
4.46088048760693
1.85578683816769
-0.139688578656421
-1.80528907099412
-4.0220842129177
-6.94718268997497
-9.46841419441908
-10.2722365037829
-9.26914027125794
-7.59605737704335
-6.20341547860531
-4.84842107602044
-2.77632494466276
-0.146469491389788
1.74980878080111
1.87432667884642
0.702957228159495
-0.273861332599941
-0.226257085168796
0.237034487798708
0.0966097803449566
-0.629696562292783
-0.87323690180403
0.106901285583673
1.73738007709545
2.69978961549467
2.2002509634644
0.381731120726306
-2.29261776800194
-5.48169830630114
-8.5940429138674
-10.4861238175741
-10.179683930734
-7.9051312951316
-4.93795295509326
-2.2979315852061
-0.409268941302477
-0.995761408278693
-9.12162736804443
-31.761069614867
-72.5417256409121
-127.231262276288
-184.895342176471
-234.002010160418
-267.225939257589
-280.192553255986
-266.715976677531
-217.575611685891
-125.712034124093
7.42658406576834
171.700042645481
354.444230829622
545.335030553593
733.767713381438
902.293004718756
1025.86590007336
1081.01860226451
1057.46230787598
960.906477275849
805.167988808521
603.398895031336
368.389419444181
119.852873280919
-113.283773386902
-302.852560409323
-436.368636189447
-522.089545963071
-578.374203368685
-617.47350664998
-639.113720102231
-638.114658270259
-615.551050203453
-580.787208587764
-543.388135528716
-505.295071779553
-462.15686037567
-411.356751836965
-356.940913481012
-306.277962690288
-263.317887218693
-226.645363139689
-193.971500353017
-166.895073133664
-149.941195703218
-145.11035149822
-148.401287365443
-152.173971337951
-150.563912874201
-142.379626697029
-129.510597674701
-113.822420292217
-96.1456915299453
-77.5274409641119
-60.2220297972619
-46.8693373953386
-38.908161872939
-35.9730563901227
-36.4410540226929
-38.0405304288618
-38.1124104856691
-34.2737453868472
-25.8061247092148
-14.554856568513
-3.88725082099241
3.83628549153338
8.95261251040642
13.6697871639805
19.6792876133921
26.7266614091823
33.3637585164918
38.6107922227733
42.5386010941197
45.4482163490587
47.070156733305
46.8987556139287
45.0814473333535
42.5493283746359
40.1816809926418
38.1303268461487
36.175486607551
34.5453269334835
33.9931252352949
34.9494743792718
36.8599868729241
38.6362918251744
39.7220699147977
40.486051814163
41.5277025521729
42.8583975038941
44.0099325989756
44.8491537579898
45.9402496679768
47.9106072540748
50.6067024046516
53.1247161651473
54.6966773616133
55.3561625953348
55.6412216476294
55.830009709442
55.7278863114776
55.2102187728982
54.7009824599012
54.876385467889
55.9351189101551
57.3618998700893
58.479626799889
59.0954792829119
59.4832999935991
59.8386016493437
59.988274057243
59.7178298653243
59.2098184145434
58.9415548454724
59.1348697828436
59.4656668700102
59.4104674374039
58.7889124980618
57.8414378718379
56.8213874311846
55.7019680405824
54.3835848151193
53.0620899192965
52.1826600979149
51.974771279495
52.1610769026316
52.240673441958
52.0109311829884
51.6880080420687
51.5162090923458
51.4153873522245
51.1330791861171
50.663380060787
50.3137992036758
50.2605613371413
50.1339786225367
49.1924695960703
46.9367472023154
43.482359760741
39.3190072965708
34.8272177085026
30.1561158356091
25.5316905572793
21.4856482395254
18.6119525284582
17.0898101909458
16.5316465609262
16.3328105847265
16.1277244999488
15.9022419388225
15.7777478707469
15.8329894267787
16.157090413322
16.9432511822244
18.3814387713056
20.4238700522177
22.706540228749
24.7209605731376
26.0234950158974
26.2768862016132
25.2065603196143
22.6846440754866
18.9231273661065
14.5019340934402
10.0854674047685
6.07033138825777
2.53305973630909
-0.501583602004793
-2.845437431778
-4.2749339900438
-4.82283741853895
-4.81624979513336
-4.56855159671321
-4.10645165058769
-3.29993955000639
-2.25139801897871
-1.44456620052191
-1.42979786947805
-2.39212538466257
-4.085764851708
-6.14916879770712
-8.35031613327279
-10.4548172460679
-11.962913026707
-12.1839442211995
-10.6958160626879
-7.7096163368002
-3.92066583904561
-0.0195774338780836
3.58683491606316
6.60909897622251
8.61799161686798
9.15130381496277
8.12160294281853
6.00853770649868
3.53498276048978
1.15314585747088
-1.0924243907298
-3.21721972348067
-4.94245469985891
-5.79273185933238
-5.51801284687105
-4.3073615271603
-2.54147632392474
-0.423165703575933
2.02881098918027
4.61635437987786
6.71397839394768
7.50472075567751
6.4945015398946
3.7782236617133
-0.162000514816839
-4.81596879115079
-9.74653886656466
-14.4226350341253
-18.1438075957536
-20.2888630915708
-20.6831959992298
-19.6940542439623
-17.9520161509448
-15.9908868214904
-14.1280589582372
-12.5799924259281
-11.5531090891441
-11.1598762546464
-11.2954955006047
-11.6866285764723
-12.104331543457
-12.5153399185109
-13.0085532835645
-13.5928244723157
-14.0980065699958
-14.2735166656469
-13.9530636575166
-13.110409913585
-11.7959291995031
-10.0951092667352
-8.20426090844055
-6.54250532571618
-5.73079887566313
-6.37633694500219
-8.7899921729235
-12.8387346406608
-18.0245302732924
-23.7001915510113
-29.2513942371154
-34.1544334636521
-37.9666120955898
-40.3672753532952
-41.280132532696
-40.9658993792156
-39.9419133954513
-38.7233728622997
-37.5637130536673
-36.4012621365862
-35.0415960347277
-33.3909173083866
-31.5299479352923
-29.6064977507887
-27.7161340324462
-25.9216194283467
-24.3665131795763
-23.3061927092711
-22.9703604113783
-23.3751958507051
-24.2772776978062
-25.3205276238946
-26.2380677628086
-26.9408293783233
-27.4618857762324
-27.8554736175456
-28.1435066044238
-28.3129683652851
-28.3233357289659
-28.1127359193479
-27.6169972247254
-26.7932745609534
-25.6233111190824
-24.1085740631782
-22.3043605710276
-20.3900184562419
-18.679634661859
-17.4881492851755
-16.9252388726067
-16.8222953916713
-16.9067604791471
-17.0767497751191
-17.4942109715622
-18.3972157147361
-19.8460191695188
-21.689348584429
-23.7620457499791
-26.0264423912161
-28.4253307264513
-30.581900312305
-31.7233949216127
-31.008408961989
-28.0075025901204
-22.9145176012771
-16.346864521361
-8.99827112548256
-1.48330457252584
5.58679228260043
11.5465345818711
15.8308709559201
18.238002785199
19.0309581924669
18.7579396086661
17.9384442296709
16.8496564804881
15.5083342332425
13.7771956403021
11.4928904169632
8.570872568861
5.07069060703208
1.19417084359598
-2.78488931794283
-6.59693010741448
-9.99249849534554
-12.7237163249538
-14.587280330374
-15.5505369618028
-15.8335844897158
-15.803126281084
-15.7152327085873
-15.5283379642577
-14.9607625553424
-13.7228694479782
-11.6929356193285
-8.91009642044103
-5.48275729869367
-1.57422823548398
2.5289354848918
6.40805083310191
9.64313313318971
11.9830584703125
13.4023999419977
14.0307389881973
14.0711979789337
13.7761727476135
13.4155935710873
13.1736475400762
13.0546024833161
12.9395302187198
12.7776473959042
12.7045307243652
12.9345924634054
13.5478676391983
14.4350514157086
15.4660399967606
16.6440406441683
18.0097546805622
19.3981641832295
20.3911789539637
20.6055811404081
20.030118418751
19.023120375175
17.965528910359
16.9700082160704
15.9584576460471
14.9439604467033
14.1015119775901
13.5148101388148
12.9490665678554
12.005161518797
10.531091922634
8.81805959032957
7.35236850515685
6.42656507483927
6.05218963239543
6.19432278317044
6.9318627878676
8.28756205327034
9.96888907032706
11.4313040734931
12.2719434621457
12.5159547429222
12.4741538595468
12.3862126529006
12.3066770413322
12.318845012653
12.6876453256007
13.6489844513923
15.0756939865516
16.5040052136924
17.5701818183477
18.3484863103853
19.1724303019774
20.1874149113065
21.2445925518695
22.2823197948859
23.641174573301
25.7858431053564
28.6939557879111
31.6946914996984
34.0426280244136
35.5690615219952
36.5986111860873
37.2282125805754
36.9085583243092
34.9227697731998
31.2066979922926
26.4715824923667
21.4459217454118
16.191720908516
10.390168462349
4.25654567169659
-1.10521196749085
-4.44343953536306
-5.36809945543648
-4.46110686756377
-2.44468273825235
0.48127699186559
4.31397789576775
8.45930036683168
11.6434253205247
12.7886791720219
11.8562807759458
9.67681427222069
7.04627183974562
4.20948158033376
1.21556096856035
-1.57185359115579
-3.6551390111065
-5.04230845484735
-6.37749687577382
-8.27312770783372
-10.7106214629345
-13.3135451523509
-15.991214839871
-18.7609524678754
-20.700208038403
-19.5999129810178
-13.5849520396897
-3.58911718777606
6.08709666906555
10.4006346034535
7.22133626093126
-1.55068825858562
-12.4664031601778
-23.8775872056639
-36.6751932385541
-52.0887250634912
-69.5486164713597
-87.2327047505759
-104.430136619388
-122.556167615349
-143.263750754469
-165.539181587389
-184.755418942905
-194.272101918431
-187.454914554793
-158.223484196705
-100.780496331618
-10.510332747506
113.574507080274
266.800780992642
439.085403072169
616.881971201109
784.605469881895
924.654234780235
1017.73978865302
1045.71294904682
996.69168326111
869.783192733514
676.746230449355
440.038453889185
188.263275157794
-49.9474796937339
-252.580708041667
-409.219629304736
-521.390356106509
-597.390297454887
-644.926561953165
-667.06054631437
-664.069052530777
-638.269289740178
-596.359806028972
-547.031889141213
-496.796493329708
-448.343185629075
-402.197016404485
-358.666302737923
-317.633154154673
-277.446162035895
-235.840713289038
-193.039033237441
-153.554521649424
-123.762766268964
-106.897142389499
-100.370449498647
-98.1163292504887
-95.3735695063442
-91.0846582058109
-86.2650483192938
-81.262493596721
-75.3633291834683
-68.549742894495
-62.3211004090402
-57.9948659478887
-54.6050239540982
-49.4173156270364
-40.8839571475383
-30.6290144004505
-21.9872526341569
-16.6739386750733
-13.3605484204813
-9.60301789051117
-4.63499710799699
0.22605244178871
3.68854761133263
6.25423375234256
9.5233687411233
14.1632085172635
19.214252636139
23.4797421558547
27.0337114838176
30.8825691984056
35.3470513624089
39.3906711854868
41.8031034262801
42.6862937079183
43.3228309438116
44.6369155643075
46.2495131624291
47.2805421617516
47.7510843334949
48.7094936617476
50.9356320606839
53.9449382829188
56.5917870225084
58.470672076075
60.3003291322408
62.8305581053625
65.7199946435073
67.8232880134735
68.4761901660643
68.1189341713048
67.5295376603667
66.7612263956185
65.2052011822247
62.6674455406493
60.0101532325202
58.4918303660288
58.6242695292444
59.938288004513
61.8254266391305
64.262784829792
67.4938980150659
71.1984730812051
74.3671531027433
76.1312484556626
76.5108284472232
76.1485939009496
75.4208995750896
74.088800322727
71.8765763758334
69.1148618322045
66.5284434262846
64.4296428736669
62.3965064968596
59.8803057225718
56.9557958428708
54.2382909216339
52.084510593113
50.1173020349798
47.6653236067333
44.5101516238026
40.9727392475592
37.291595947383
33.1923017434934
28.2682759185284
22.6875966138128
17.2943978034289
12.9622272936065
10.0086521599508
8.33828011721334
7.97740066997818
9.17073218065228
11.8773015019361
15.3924344248284
18.7043751774717
21.2166758362601
22.9603037356963
24.0860743535806
24.3805330592201
23.495415832946
21.5793642641784
19.4030666851315
17.7102695526275
16.5760634086638
15.5956970958034
14.6616224202045
14.3025264506845
15.112166553476
16.9903445556358
19.1880124342756
21.1184379106472
22.8999517701015
24.9422420300656
27.1385211960745
28.7505157472068
29.1783380956184
28.6496037084461
27.946603970222
27.5099263190879
27.0344276338708
26.015387148287
24.4806758356594
22.9435891370432
21.6651621701478
20.2279291709014
18.0095580807159
14.9657913220178
11.7327817428191
8.94056001940725
6.62147304565882
4.41888112815383
2.2286226953124
0.368353605948418
-0.949642904591899
-2.10604807771236
-3.82826596084333
-6.48780050716885
-9.81709356287923
-13.3616568654151
-17.0281691930569
-21.0102263766102
-25.251801507455
-29.2456449968363
-32.500700618082
-35.0801156903352
-37.4774326929545
-39.960309058685
-42.2224554765641
-43.7862794059074
-44.6089680037932
-45.0794282158599
-45.4136687882525
-45.2756201793982
-44.1704441037439
-42.1321704175449
-39.8096409450824
-37.81092590418
-36.1194272248959
-34.3006574929376
-32.1997420337416
-30.2142640104169
-28.8070239856853
-27.9241895018987
-27.0944096135516
-26.0762457446162
-25.2010939903979
-24.9664941560589
-25.4161472249472
-26.1026649238457
-26.6451333778013
-27.1222788826123
-27.7983703247159
-28.5951480503908
-29.0603328757689
-28.8954719757892
-28.3290139584118
-27.8097146858039
-27.4054326596286
-26.7016440657567
-25.341729445545
-23.4978664315067
-21.6493833478459
-19.9695880993383
-18.1546654064151
-15.9468550151768
-13.6652048963133
-12.0097141357426
-11.3352751830852
-11.2923075945005
-11.2783670424525
-11.1190036238017
-11.1265455614489
-11.5136056131532
-11.9748268973014
-12.0074894623954
-11.5521449254199
-11.1022953828641
-11.1170321947657
-11.4671200431802
-11.5872039566413
-11.0936885802055
-10.066851072069
-8.698178235051
-6.86623119689716
-4.27157314369187
-0.966277996455418
2.45558557641968
5.31161420600556
7.38425104549478
8.90029622123635
10.0273026729473
10.604339883081
10.4708187292104
9.90402846775913
9.4892826836421
9.50325105671277
9.58626526047898
9.15869859073498
8.08821123122782
6.78318772229879
5.62785488676387
4.52737395477203
3.17244415553994
1.6623206857382
0.621000464086885
0.583214863064859
1.3890626942648
2.34785881196911
2.97028592520248
3.362930070444
3.83760601005358
4.30334649066846
4.2612947199696
3.40247973967383
2.00652700763712
0.604380544776596
-0.66274073475557
-2.16147181228053
-4.22244631360605
-6.6493933457769
-8.90163323786304
-10.6773612104987
-12.1245461330886
-13.4414292413885
-14.4586981826872
-14.805259860454
-14.4493899149254
-13.8769120905507
-13.6343968241433
-13.8029284075515
-14.0544686365678
-14.1666549461367
-14.2793618789595
-14.5620715472191
-14.7954802183715
-14.5113445202389
-13.5724636571316
-12.4340976688056
-11.6969234379249
-11.4793872263487
-11.3836776695622
-11.0553661569756
-10.5584930424123
-10.0521175096541
-9.22774071218547
-7.34708329003696
-3.96092749727902
0.537106152601126
5.22623736866979
9.47790236993746
13.2875339415069
16.7697951451297
19.5561544507847
20.950959004842
20.6886383189734
19.3110529181005
17.6367978521988
15.9506834235875
13.9043688615455
11.2136976220562
8.2330292534939
5.67400212736436
3.85545067825529
2.4611653085064
1.09069700988234
-0.158447714801813
-0.865531046782975
-0.990123951995098
-1.16169787795409
-2.13733399444781
-4.0805902838501
-6.53167049030901
-9.03518754537458
-11.5664193496683
-14.2231007075025
-16.668641262256
-18.1601937867604
-18.2131023859024
-17.0859246308702
-15.4705004969617
-13.7765555760477
-11.8893659772769
-9.62486587222577
-7.19314893427214
-5.0157639514375
-3.1537635470762
-1.15514803290153
1.42030500482202
4.45345722510925
7.39870128833237
9.91611961340489
12.1829221949186
14.5175758174536
16.8767977164314
18.9353692747981
20.6342275315137
22.4096933038261
24.726970497833
27.4978636483435
30.1643612760921
32.3681905520513
34.3369458033426
36.4766998637187
38.7200458172706
40.5213365850712
41.5246843168102
41.9896874204647
42.3316335742393
42.3164117028503
40.9907241496334
37.5532785840629
32.1652216474335
25.7332946975545
18.975968027499
11.9721547442345
4.73182475466323
-2.04173194153345
-7.12240324238487
-9.79640577066711
-10.5391991822764
-10.4967992909128
-10.3872427719933
-10.1090618030469
-9.39412672483183
-8.52061728347636
-8.10895271088561
-8.30380165514647
-8.48760646540002
-7.97074874436406
-6.80576147712878
-5.70401379493827
-5.20745939866081
-5.21214537561371
-5.40075071612397
-5.86792618579331
-6.96456627818073
-8.52364142173379
-9.61027416605433
-9.34832811186995
-7.90561602008262
-6.34823021620234
-5.43636816612582
-4.84637577346664
-3.8618738288145
-2.69352664903551
-2.6212535425762
-4.45653057255713
-6.93193613641788
-6.97541936127702
-1.9070910874139
8.40766435816296
21.2821772152114
32.722466029891
39.2146410807142
38.6568309252795
30.5080625552252
15.6013295504335
-4.42238516827762
-28.1651115173382
-55.3283010796823
-86.3315824029149
-120.766926848487
-156.267668215047
-189.132717971203
-215.916699717035
-233.775362923742
-238.83735198551
-224.784648095356
-184.315853415391
-112.943453729745
-11.2664088253249
116.955492129062
268.469087324408
440.446292496844
624.846020187457
802.641522893861
945.683208185434
1027.42289463965
1034.41719802745
968.829915993773
840.879283659637
660.408827917704
437.082980422151
188.176771365423
-57.0564730348759
-265.324644197496
-415.554797407393
-509.378588348631
-565.68737727916
-603.692074713435
-629.457248389675
-636.79759256249
-619.270749139378
-580.232654424433
-531.654222278201
-484.555043080987
-441.585742041242
-398.544036417361
-351.772999047065
-303.158852554465
-258.339555428543
-221.370847704338
-192.104200245594
-168.556734983327
-150.776115103522
-141.4042221948
-142.117965394586
-149.689839758826
-155.911969305312
-151.995724715773
-134.101994930751
-105.846482930875
-76.127908223553
-53.9678827527193
-43.7519856300658
-43.5930940205815
-47.3728300698828
-48.8057726459641
-44.8467988222576
-36.4710081994524
-26.8156423266897
-18.4851089437636
-12.1078827790652
-6.8528251056707
-1.87752979155649
2.8426952459893
6.87405034774135
10.1382530035424
13.16531334765
16.6021179051882
20.6520931370622
25.0642990820493
29.5448628159757
34.0056232825883
38.3915465485221
42.4304955747447
45.7368085148709
48.200235947879
50.1811101800694
52.241482305302
54.6946498482002
57.4538389362785
60.2772508075593
63.0460724861378
65.7439893381792
68.2485198730059
70.2998454377673
71.7560466213492
72.8283992770737
73.9725234190156
75.5221639579503
77.4642400679471
79.5691758487035
81.6551831309525
83.641140268445
85.3743026045966
86.5500839759688
86.9203571391311
86.5686180523538
85.8797130321121
85.1786006254202
84.4307762293913
83.34214276211
81.7176444658163
79.6354592035964
77.2534216079326
74.5538893522299
71.4167103847356
67.9676328337577
64.7462208403732
62.4078558577437
61.2309864616924
60.9550346623695
61.1029627144552
61.3983779825838
61.8307967673011
62.3964477926811
62.9326248594014
63.2902149621306
63.6029354256288
64.2529599860723
65.5029654623449
67.1839583243985
68.767035410027
69.7009677792767
69.6379034971348
68.3937204495009
65.8577060817628
62.0810566429238
57.4437917735337
52.6065859255674
48.186035377692
44.4488162803331
41.3186005250295
38.6193991117084
36.2241420712778
33.9677542745723
31.5491873889869
28.6778139851359
25.3612275014887
21.9716036917652
18.9467771808063
16.4259045735743
14.2133834598962
12.07155287866
9.9598083100962
7.95357669437053
6.02693383227587
4.06330153407536
2.12568134328943
0.618251559402403
0.0550599108825836
0.635182039416328
2.08420198494908
3.91273576620797
5.75649614676801
7.42064155013093
8.6879656831394
9.27092938380596
9.06155981211304
8.37203620776973
7.80034217898078
7.80424777602728
8.43947863832454
9.51447818088582
10.8946552173066
12.5387016236725
14.2632373607003
15.6415317348603
16.2733872837701
16.1254651363882
15.4732659267627
14.4541400881705
12.7674047250023
9.91975433884617
5.74379182963809
0.567027316461058
-5.1479932296164
-11.1884961725793
-17.4685366001253
-23.5566549790973
-28.5362160250344
-31.5257447705275
-32.3607201796892
-31.6823526219402
-30.3425582850975
-28.8089976151014
-27.1848197831802
-25.6534929484835
-24.6489307983247
-24.4687124914966
-24.8314619361895
-25.0069766917797
-24.4531068744318
-23.2657157411708
-21.9778811254807
-21.0196952969329
-20.4857189397229
-20.3721908581823
-20.8212479894183
-21.9619826247081
-23.5556126426095
-24.9769690810916
-25.6527265557036
-25.4799742829288
-24.7637015461221
-23.8153223606601
-22.7439816129825
-21.6458234673577
-20.8186709557232
-20.5970706867072
-20.9626584612517
-21.4655171134024
-21.6447256563867
-21.4920905189802
-21.4178411778523
-21.787304069252
-22.6177929144694
-23.7766056458714
-25.3368585009666
-27.5409176314467
-30.3733438908936
-33.3213919662269
-35.7157010458289
-37.3115883207144
-38.4429404272234
-39.59565856219
-40.9471920784533
-42.4035637224793
-43.9753779460074
-45.8924708677892
-48.2461416846826
-50.6384733152532
-52.3716336791746
-53.0315709808661
-52.796453061639
-52.1285076878817
-51.2684024760991
-50.154151362863
-48.780208640124
-47.4162498429744
-46.3185212925402
-45.3000956215565
-43.7821406768957
-41.3550011712128
-38.2031429020362
-34.8912379516982
-31.8000629838464
-28.9102306716549
-26.1284589985195
-23.6142163975387
-21.585480373796
-19.8377138318195
-17.6771665087614
-14.486452341952
-10.312459729492
-5.79110900209144
-1.53144521217207
2.26562242770032
5.53601126696109
7.90869601142022
8.81226094019851
8.09949065115261
6.39549606956467
4.64258577175313
3.31215340901925
2.1968228724896
0.985759083570854
-0.145727249198126
-0.686751159568919
-0.454149567670406
0.133603785709607
0.560929351393927
0.851370615301214
1.48448979718878
2.65271592299887
3.77801338526024
3.90980417747068
2.54597023365713
-0.0705323694473066
-3.42959616578651
-7.29837352025149
-11.6290072533315
-16.0379200158723
-19.6597072511535
-21.6865586189097
-21.9942008864363
-21.1234234819851
-19.6823183670293
-17.9018981108368
-15.7753106642132
-13.4033713952375
-10.9589997947503
-8.31633202247372
-4.95114219381821
-0.402706176384097
5.19051119151966
11.1324925051021
16.7295494751493
21.6624543154066
25.759958007618
28.6120348918368
29.7029721967408
29.0136208945044
27.3059367920793
25.5951703161884
24.3240830280739
23.1743828189222
21.6933252927605
19.9207171135055
18.250930125783
16.7926875192033
15.1516712497798
12.9844395041157
10.612623189798
8.84986988843071
8.18559044642101
8.30604414591623
8.51789740511777
8.50684752753317
8.48585483485902
8.63996360295644
8.71319490858088
8.35853447810627
7.79002210888886
7.79684526281142
8.97561347938517
11.0788212625096
13.2783682581652
15.0026281819001
16.3035113159415
17.3644156678529
17.9065182299608
17.3712684594492
15.6865475324063
13.5836635775579
11.9580733619099
10.9955240979976
10.1101239492093
8.72477256427246
6.88594857741992
4.98850245733815
3.09293012139275
0.838016964013558
-1.89795544534676
-4.50275324501574
-6.05293876273207
-6.19998567772125
-5.42325336857453
-4.35059965332987
-3.04771222015457
-1.18598186982069
1.20631767445523
3.51429360693083
5.23750531900088
6.72971308572235
8.93046598464666
12.3061739483031
16.2760392448917
19.8342329167862
22.5794912852172
24.8632723276953
26.9302281211556
28.2450466956722
27.951717842589
25.9109489132078
22.9702419513784
20.0844761967679
17.3762359281443
14.2914575850886
10.5902627703333
6.86778617145881
3.970051676117
2.13603873408279
1.01274735432698
0.465725715330688
1.0114072681142
3.21331761922225
6.81774198034919
10.8105634705608
14.3792142731863
17.5557199234894
20.7388743808245
23.805456597008
26.084190238047
27.2810122719382
28.0777931893707
29.4607637780089
31.5102646727056
33.1905053297062
33.4715381161942
32.4084134354632
30.8417024584291
29.1700832668514
26.8576749930588
23.3565196816028
19.2083659064747
15.7784560014546
13.8346041637942
12.7352883775704
11.2662026731553
9.06837312335635
6.86723777161286
5.31264206073992
4.06527024431575
2.3890648559797
0.424640106179268
-0.673846990222278
-0.0738748825633682
1.60883265731601
2.89218978278638
3.00048741123481
2.39240985876387
1.6131722895564
0.14439185417719
-3.00943819173074
-7.65180818414235
-11.97618029091
-14.2848587890269
-14.8704716557769
-15.6196779814176
-17.6899049739672
-20.1764623997269
-21.5651569403661
-22.1558290754114
-24.1474212275392
-28.8397319665188
-34.1472525690707
-35.5975695773503
-30.0460357433414
-18.2453180353036
-3.88978202214234
9.18439598165523
18.4006712369568
21.7552209099809
17.2547765429101
3.99911629397302
-16.6331046943759
-42.008818709829
-70.7869557343277
-103.627210077839
-140.58601366864
-178.263370492349
-210.767908200594
-233.856559493757
-246.841665071899
-248.860685590288
-233.451968151348
-188.934216914249
-106.196730040892
13.7364035106435
160.999401527042
325.769664906612
503.793073818365
690.567768679578
869.88958440562
1011.17097134979
1082.21138127718
1067.27601567356
973.444555635263
819.972101890244
623.244145369824
393.580101819248
145.252225730425
-95.2654707447716
-296.461433444258
-440.056297700281
-531.953353712384
-593.615670725552
-641.660644741622
-675.39411050521
-683.0851773616
-658.340281029795
-609.01970441218
-551.02316539127
-495.571216452517
-443.598054452828
-391.080625804932
-337.240769226229
-286.464823016868
-243.598321227187
-209.523588586908
-181.990159028434
-159.568338575559
-143.396858033336
-134.979769979681
-133.194829310779
-133.999189910007
-132.694186733877
-126.140836390655
-113.495425462113
-96.233309688286
-78.1734058550443
-64.597577113255
-59.5791205888723
-62.9845638908768
-70.1383517926182
-75.1300837496847
-74.9850484230016
-70.8470325645461
-65.4502948731255
-59.9758099189848
-53.5554176117005
-45.2789385106455
-35.8063223799612
-26.6898246043942
-18.6147171358977
-10.9625770504184
-3.12806877404575
4.31768862137375
10.2016693443823
14.2591739415904
17.5434896284468
21.178431384393
25.071112809163
28.2307223864879
30.248183755811
32.0266110199891
34.8579378766564
39.0452411404827
43.7694908672847
48.2503081877985
52.649567279892
57.6240455584523
63.2360583062013
68.7046686803476
73.3038196441203
77.2090289261087
81.2075154929706
85.6808394728074
90.1531029288581
93.8825297528656
96.6208467682806
98.5547299224458
99.633069533136
99.3228295240211
97.216446966291
93.7110208343715
89.8287584703913
86.3506974402412
83.3187134246147
80.4577298827339
77.862058794686
75.981851270645
74.9340868960882
74.1209167393704
72.7795768544347
70.8651021114838
69.1790497585755
68.557988314722
69.0814757579306
70.1958184885836
71.4823415923905
73.0313685450073
74.968683811806
76.822677375122
77.6379441541351
76.77970009728
74.4879992685549
71.5496881120269
68.528615447633
65.4619674269405
62.2578817522432
59.1432399779492
56.5387101332273
54.5659106600414
52.8885205296252
51.1264528901148
49.317323738232
47.8509153577015
47.0009870084524
46.6745551594493
46.654554863291
46.9308218268491
47.6260758644418
48.6258180560792
49.4687783317468
49.7201979946515
49.3790802110061
48.781758005402
48.1053944368458
47.1056333205681
45.4265878740903
43.0727200136078
40.4179926351303
37.7436316126212
34.9376887278241
31.7978209405449
28.5775437893152
26.0453622127485
24.8943694032233
25.1471761918303
26.2224493621892
27.5300590086293
28.8479599562309
30.0702150210325
30.7553473083267
30.1693049342297
27.8744923760489
24.1897816049947
19.9580976810542
15.8650357226514
12.0498906823135
8.35024339969195
4.76047309382103
1.50702412507462
-1.28920388073411
-3.84835828641776
-6.50752405398829
-9.28924111981229
-11.7786418140405
-13.4376595703981
-13.9773541006312
-13.4129555646994
-11.8695937926777
-9.47717893169571
-6.47513297251424
-3.30104553692443
-0.455164077727218
1.73484521087303
3.16724123795063
3.80174352988364
3.53981855195954
2.33533914346167
0.372064215181162
-1.97786835907507
-4.40202194422218
-6.77695958948816
-8.98599368250081
-10.6698361660542
-11.3038273059692
-10.6079855160702
-8.84483489761177
-6.64934820477469
-4.58950534476593
-2.97456466832873
-2.08521974328589
-2.42461193385675
-4.53766537793172
-8.51494390165202
-13.7657477445349
-19.3876994507239
-24.7674409275162
-29.7809889244754
-34.4605376876408
-38.6308244870506
-41.9963531027174
-44.5305903898339
-46.6047924252701
-48.6300781632964
-50.627717099559
-52.2518228416724
-53.2243883584962
-53.637736987659
-53.7801076149765
-53.7652900487814
-53.4688919605717
-52.8138243434656
-51.9432516198985
-50.9692425507272
-49.6034455459641
-47.2193943281524
-43.389992879115
-38.3177422052832
-32.6653965287127
-27.0281223593721
-21.7294711447296
-17.175173267417
-14.2139062766972
-13.8652386082538
-16.5554990104281
-21.690012317947
-28.0812793143994
-34.776223315453
-41.3758205398399
-47.5872394630665
-52.7000731461104
-55.7528709914833
-56.2625923819817
-54.647936384586
-51.8182280675422
-48.398929572857
-44.4808778478154
-40.1086564899937
-35.8145081211637
-32.4811088556541
-30.6757163027191
-30.2471132890762
-30.6261496381698
-31.4028518547476
-32.4689825742072
-33.6336033025566
-34.3136297633035
-33.789006286204
-31.7693055622671
-28.6116196623151
-24.9590629099074
-21.2585036530242
-17.6926191930674
-14.4756806264201
-12.0056110812889
-10.6118548266282
-10.2222296857623
-10.4059977553223
-10.7715416540463
-11.251839839502
-11.9780653222427
-12.9760762704041
-14.1071881061462
-15.289905409804
-16.6315045408135
-18.2302363338175
-19.894631755321
-21.18782237872
-21.7972210575084
-21.7875132847352
-21.4222478470434
-20.7905626970353
-19.727273733541
-18.1212600710866
-16.1760970639684
-14.226126772548
-12.2926800253347
-9.94029426958
-6.65813101716823
-2.35335943971439
2.59405574828106
7.7294036672518
12.8571010124109
17.9247313266016
22.6703791967989
26.5386774288148
29.0060354312181
29.9313794662167
29.5366729855712
28.1008370669104
25.7768913892459
22.7160951547536
19.2515372474022
15.8440758343346
12.8572932099225
10.4709395745877
8.82424387205378
8.12676780717878
8.51012534541247
9.79089935745954
11.5081820359515
13.2725405519871
15.0281037508824
16.8981830867874
18.818222709672
20.4623731070199
21.600821824613
22.4298054374111
23.3897376687974
24.6192717833937
25.6949808110539
26.0036285083852
25.3288293975274
23.9683960743224
22.2857086814424
20.3028827997627
17.8662834273016
15.1522981349232
12.8148050613355
11.5134948525485
11.3498544551473
11.8674534501852
12.5810720361962
13.3720177991672
14.3134558781519
15.2491432144696
15.7468355858274
15.5156940259389
14.7376397129884
13.862415920111
13.113427191192
12.3191142503134
11.2447933244047
9.9487667759641
8.6886776520308
7.5387801567371
6.27792540236293
4.72972201170233
3.09738507421974
1.81514784709137
1.08206438732357
0.686911643721405
0.359176304878492
0.174117121869942
0.45487130572653
1.28953869891584
2.32030669644318
3.11995572952574
3.67667661095516
4.32737874415139
5.192935226446
5.853936609966
5.73257251265826
4.73334366678354
3.33465130232112
2.01736117431662
0.778773437541641
-0.630152065799415
-2.07151127076865
-2.87555430917936
-2.45728745509509
-0.958821800835921
0.898010131587327
2.57702482501607
4.15366293085404
5.89435424013209
7.59577373019746
8.6099293178506
8.5713200882089
7.88760763858409
7.32399052932696
7.17852667747312
7.08871630816219
6.69888037262007
6.29659792134072
6.56564112532737
7.76542184983884
9.41241155511386
10.8900818884485
12.1902080376431
13.8038776113305
15.8977321377049
17.8702596278407
18.9084745084937
18.8593673291925
18.3066318196599
17.7734270450108
17.1114052036
15.8781020922062
14.1777855818147
12.8001327923204
12.4054194279606
12.7834133163079
13.1543785333367
13.1319037887283
13.097676757641
13.5142077868756
14.117456812374
14.1064881188734
13.120400627528
11.7104103762116
10.6426119179829
9.91592554646378
8.79805449222555
6.86689858060926
4.69690388616213
3.25316722215386
2.74792261074892
2.45856082594862
1.77422684245796
1.09955276367973
1.36828133552389
2.71305147709203
3.9929971615728
3.8542586854786
2.06269885881537
-0.507164835059795
-3.13783897425683
-6.11623129833648
-10.0607211028252
-14.6037004988316
-18.1416159818381
-19.0206026433162
-16.7807227150684
-12.1531455197851
-6.16015075233983
0.357473295309966
6.36936203302533
10.3885955278166
11.0868637242408
8.13923767578426
2.11538030542438
-6.4730458887571
-17.5467739155693
-30.5885229256512
-43.8961149101722
-55.694904555331
-66.5049186254292
-79.9233306615063
-100.170013750429
-128.479410864803
-162.077521036044
-196.46875262816
-227.459283990133
-249.471419122786
-251.875431380034
-219.112052380792
-137.491438356999
-4.04443732710095
170.642448693463
368.197560352916
570.582383869309
762.279572992614
925.830414838577
1038.55137737745
1077.56583956811
1030.71374660379
903.43140817776
715.171101826023
489.50287774098
247.564550818904
8.91039977105525
-205.803020209845
-377.742290637211
-497.867654982956
-571.440165484563
-612.748870525642
-634.009580040106
-638.860001886661
-625.905584093742
-596.938516021691
-559.980291149075
-523.877981095892
-490.918969161232
-455.863327738633
-412.379880231542
-359.984889111979
-304.7660609426
-254.271856489462
-212.512376290611
-179.511792804737
-154.218204590577
-136.59598152787
-126.897016161772
-123.788123835047
-123.823427459315
-122.668125816939
-116.734150224479
-104.264628001651
-85.9572202028232
-65.0922172567337
-46.4138436094607
-33.5745946385981
-26.750898262566
-22.7021097594252
-17.5755083161313
-9.97887749115776
-1.48794375278376
5.56457932086343
10.4395541888176
14.1613053880331
17.8991794638306
21.791018825821
25.4187979523798
28.8877302390646
32.8820349508062
37.6770849375684
42.5662092656031
46.5669594101188
49.5118146447326
52.1011404260534
54.8725379415757
57.4536795888719
59.0570578644973
59.5330689667591
59.6044949735845
60.0274352553052
60.8247549500696
61.5743740362449
62.2834525602753
63.6045506517272
66.0616562038702
69.3004923050225
72.3558206219972
74.5864329328601
76.0683285741599
76.9949999744878
76.9804734382561
75.2901354951796
71.7629101772697
67.2193596038223
62.7748711846696
58.8873032864887
55.3111400805687
51.9484493556761
49.4222399652625
48.5701496057906
49.4791885374959
51.3037924519496
53.1250315377444
54.7938964151369
56.7436756089665
59.08003025094
61.1530751959802
62.1608541961347
62.006446908769
61.3315266713312
60.7129135907919
60.0371997235511
58.7771542856072
56.7286353558856
54.2451564201011
51.7341650473705
49.1399519705637
46.0966770012159
42.5239142211839
38.8895253842587
35.8496194199189
33.777361307939
32.746121624762
32.8433599520419
34.2508147980217
36.9193231984513
40.3012753744716
43.5722208103917
46.1168982131932
47.695405823855
48.1550139774371
47.1934271000794
44.6054492205005
40.7283765432446
36.4278393230087
32.4997608982959
29.1403312552576
26.1076975116361
23.3472846533992
21.2636034878619
20.2807414615543
20.2711036393336
20.6318006475634
20.9696578410211
21.5598222064446
22.9990497750219
25.469219515306
28.5000452153426
31.4819430972079
34.2542830168702
37.0467300605891
39.9043628927933
42.3685620678862
43.8201377923103
44.0346579574574
43.2626144890721
41.7910525896705
39.5936168130635
36.5035984055054
32.6287148657078
28.4296235047535
24.364008886339
20.5744972445918
17.0036310349467
13.717204930375
10.9448344561492
8.76438075598874
6.87659580273994
4.81879263540071
2.38132689830061
-0.285536799563421
-2.97673102472743
-5.70949441877981
-8.59223909744692
-11.484897384314
-13.9596564594227
-15.6785415749589
-16.729829233398
-17.4878811742913
-18.1682361989801
-18.640764510566
-18.714443483527
-18.4783306895013
-18.2145431444887
-17.9883487106173
-17.4819093445505
-16.3423523654873
-14.6355721151467
-12.8317801677939
-11.3326593596856
-10.1320247556152
-9.02192041040912
-8.04484980639083
-7.57669159244587
-7.91560863262859
-8.90773957522158
-10.1035279793609
-11.2559835446917
-12.5311229731128
-14.1713122279854
-16.0505103292502
-17.686821269517
-18.6841192574717
-19.0399404691968
-18.9620285634219
-18.4885142022388
-17.4466035966594
-15.8131007271662
-13.9908813940706
-12.6072330023915
-12.0425587841019
-12.2253699615807
-12.8754060645349
-13.823516658036
-14.9979418124965
-16.1570815032339
-16.8001509362564
-16.446359601072
-14.9809069156787
-12.6746261869437
-9.89353709542709
-6.87161599454218
-3.77553927350689
-0.877704286289697
1.46210885612165
2.99939320928032
3.70860649440925
3.64427600591864
2.76231087984565
0.961358308545422
-1.71223110047317
-4.99572566758637
-8.59672254062036
-12.392120193831
-16.3640094533715
-20.3614064881633
-24.0438192901223
-27.143305224928
-29.74211672645
-32.1948605503082
-34.7502809160042
-37.3106553021949
-39.6014487059733
-41.5116716724215
-43.1651675934373
-44.6518097306771
-45.8008161523821
-46.3236475354505
-46.1662447585956
-45.6291248782634
-45.1018972151785
-44.7345452839467
-44.4189509964922
-44.0394956503613
-43.6320873389644
-43.2698802857803
-42.8940928666569
-42.3732913404444
-41.729761209472
-41.2106306687976
-41.0742403915134
-41.3432410942073
-41.8147608156349
-42.2605285878355
-42.5003131122966
-42.2507820176418
-41.0353106680845
-38.423518735479
-34.4244341365313
-29.5786964886217
-24.6067971588285
-20.0088885632412
-16.0641307863265
-13.1390947036578
-11.7803017329022
-12.3379713325697
-14.5279316913874
-17.5141924591799
-20.5009594934558
-23.1856270962378
-25.5764703654935
-27.4645095745608
-28.2701635214294
-27.4987065445125
-25.2431598853856
-22.090924217025
-18.5393942366216
-14.6500030373344
-10.3607921625169
-6.0227063878699
-2.42161189062713
-0.192309913417688
0.697735005982719
0.802181949646578
0.618372329949029
0.312393665978144
0.0296635536301846
0.275830804997238
1.75292105472816
4.76071922563851
8.87427264524802
13.2998970523353
17.4896172249922
21.3118302730948
24.6789250998037
27.2233933291074
28.5038340284937
28.4810924224725
27.6185866876345
26.4344536396238
25.0408079552208
23.2228939696834
20.9218674501472
18.4870994284924
16.3886556380271
14.7827991351754
13.4857538757513
12.3460825811924
11.4782405616196
11.0223701921761
10.7461638162112
10.0383036014605
8.35585619056947
5.62185714289406
2.15196657699928
-1.7131705604381
-5.771092373011
-9.76469736099892
-13.1987835244877
-15.5186810263125
-16.4952917682679
-16.3542213338613
-15.4940266354685
-14.1432104515286
-12.3387489146874
-10.1499846242346
-7.75806258923654
-5.25163915778495
-2.44914718354295
0.933982767577323
4.91890777744636
9.14864552712328
13.1861650777322
16.8671468412082
20.2894532822185
23.505503358844
26.3669702715937
28.7398511676842
30.7751338938904
32.8129646774474
34.9778838064938
36.9554724390091
38.2392693836755
38.5534847104799
37.9576457399529
36.5812271390884
34.4199453068615
31.4981173542975
28.1427343177681
24.9032975798137
22.1080800234874
19.5752488790523
16.8633747134958
13.7823128179791
10.5534641896147
7.46559162299938
4.53674795220379
1.6813966372498
-0.816923522948947
-2.20099806624873
-1.76989582966943
0.494964468827998
3.91795578274348
7.73238695033654
11.585433965107
15.4047579876886
18.9131386824162
21.5018469826419
22.6734600936517
22.505898677567
21.548101643184
20.2669182789952
18.70206779921
16.6852155422205
14.2679683226472
11.8016835152222
9.62616400164776
7.82845627995723
6.37402860510694
5.36399144291256
5.01170713146672
5.36252743950811
6.17216948630653
7.14750167916936
8.23350840232234
9.54670074974168
11.0499348315703
12.4486961521692
13.4931903748383
14.2687771748709
15.0020501427255
15.549823868011
15.2413968152812
13.3801216800445
9.87999714841409
5.29621516782997
0.242514432642071
-5.0428405878653
-10.4328784397104
-15.353368945112
-18.7856936038952
-20.0007104294094
-19.2167859920103
-17.3854290043563
-15.340926885929
-13.3068438751473
-11.2586960391832
-9.53100459548741
-8.76918449441335
-9.23660970268084
-10.395991946123
-11.3783260428491
-11.809425860037
-11.9821809658734
-12.1963572829053
-12.1603198608192
-11.2471030587335
-9.24502141108078
-6.57130294340132
-3.64702618437728
-0.312598526502875
3.81550369436608
8.39967969606824
12.1047317713231
13.5241228425177
12.3139750461324
9.17800600003516
4.73909165923545
-1.19782213467124
-8.85745461661192
-16.9560243252685
-22.3617581048855
-21.8253471302367
-14.4459341519896
-2.66294798188946
9.05554994198539
16.5964708836526
17.7967230896042
12.491705436285
1.60789550148561
-13.7790830801552
-32.9617555578429
-55.6065815690129
-81.2732567547441
-108.767177899158
-136.020582434966
-160.866166934838
-181.912369113342
-198.091582432319
-206.645627981143
-201.471297479222
-174.205964054741
-117.937424570802
-30.3598174951615
86.6172067381026
229.855198198748
396.159847035706
578.796214171771
762.197429729661
921.31285684929
1028.73987868202
1065.2567645956
1025.58727051088
915.709393785673
746.310379112148
530.086784312793
284.953917004769
37.1017213344645
-183.414030303359
-354.220157391954
-470.421872591771
-543.716417672759
-591.041571830099
-622.286582564087
-636.850249321667
-630.118251790661
-602.140998425226
-560.173293662319
-513.827698581552
-468.63339974578
-424.196143696289
-377.713205124448
-328.532870822638
-279.469977682411
-234.621607158005
-196.753356231864
-166.87525062686
-145.634857704651
-134.135315961211
-132.686790729797
-138.579851481202
-145.45809883515
-145.757424669606
-134.972032169676
-114.632260001948
-91.5335325586641
-73.5020789106769
-64.6262850814733
-63.2699065382594
-63.9999754921033
-61.6225763091148
-54.2216238919964
-43.338929611843
-31.9038965061545
-22.0163719421014
-14.170950247432
-7.88214120517039
-2.60539124041618
1.90313511234062
5.75500781552041
9.12993529850126
12.2594167794806
15.3413393503518
18.5498115799465
22.0591413309831
25.9388954094714
29.9983838442225
33.8150387146344
37.005758933709
39.4987231379615
41.5356938868603
43.4325559838637
45.3781876763524
47.4523063083593
49.741481195557
52.3257718724819
55.1209119528092
57.7969699112894
59.9362441251795
61.3113204086964
62.0151160865138
62.3393701503198
62.5639899511549
62.8674143673933
63.3716144501921
64.1678687077476
65.2368457734478
66.3652218065779
67.2084064198573
67.4891862101782
67.1591361505202
66.3850778244194
65.405369997765
64.4079442321424
63.5055658447554
62.7481328957067
62.0942293446279
61.3683447856169
60.2988859521947
58.661997543791
56.429807065978
53.7972142200791
51.0728682441949
48.5393370979812
46.3840165752914
44.6965001888865
43.4570985899134
42.4890711707238
41.4462225415835
39.9222340336261
37.658927510928
34.7088126226877
31.4161510739446
28.2321265930135
25.5261628943323
23.5405697951338
22.4693046695314
22.5042342022867
23.743788458886
26.0492592709055
29.0397171749642
32.2907553063438
35.5654055422838
38.8342099599139
42.0493038089794
44.9137922844151
46.9142839332833
47.6087437014039
46.8847447532547
44.9441369874876
42.0849965738172
38.5694459725626
34.7256886201082
31.105155801538
28.4070604613915
27.1411074097873
27.3242806236011
28.5072685065807
30.0926126574646
31.6282981618777
32.8501799305835
33.5686602624954
33.6470239571018
33.1339709799679
32.3532856022659
31.7636463444663
31.6708970136089
32.0620558565916
32.7020068982465
33.353950331276
33.8927004805788
34.2608175255621
34.4153420884834
34.3786995362503
34.3148551124497
34.4779487676454
35.0298082928293
35.8964205259291
36.8033250336953
37.4376686174187
37.5743353291866
37.0942142187322
35.9664809616621
34.2687758780996
32.2027775715486
30.0191412108554
27.8724397967963
25.7353364033765
23.4508239296131
20.8518283939781
17.8292545909463
14.3394888648342
10.4395939647064
6.36955901184292
2.56249204096068
-0.520970006903747
-2.64393483256827
-3.91034950107599
-4.6553115874233
-5.25990886424588
-6.08892862908868
-7.53456681466968
-9.96673597002482
-13.5116745464511
-17.865571080424
-22.4020237609104
-26.5291018941015
-29.9514843658002
-32.5956832917218
-34.3631729269461
-35.076745636896
-34.7077902903485
-33.5646412760929
-32.1302740800244
-30.6860523834462
-29.1778888079958
-27.5250418880992
-26.020342659702
-25.3169388664817
-25.9678350345892
-28.0192155959192
-31.089890845138
-34.7738789074981
-38.8259368365638
-42.9095948799162
-46.2995840349952
-48.0472457410969
-47.5663337625412
-45.0530654589112
-41.2995800139225
-37.1250277223274
-33.0266427549807
-29.3089095533568
-26.3458232045839
-24.5247080082235
-23.9060438339736
-24.0589240695162
-24.3491285179467
-24.4118361034674
-24.3273865136004
-24.3830860657419
-24.7618775773056
-25.4897258620921
-26.5731635605081
-28.0281908365369
-29.7234668958181
-31.2866075163204
-32.2800583741934
-32.4958560011822
-32.0421197086675
-31.1488562289679
-29.9654736709541
-28.5904164188736
-27.2142550075066
-26.0765962375033
-25.203341015292
-24.2518968558819
-22.7345057911546
-20.4424736465783
-17.6225615142955
-14.7302564440572
-12.074870628508
-9.76198511663021
-7.92350310388178
-6.84949169814033
-6.78587813827571
-7.63305026894657
-8.94825474603956
-10.2944316525745
-11.5540498517351
-12.8795785036158
-14.3986250395
-16.0509416144379
-17.6995749701276
-19.2804688529701
-20.7461796300527
-21.9023884704917
-22.428255503932
-22.1311400643692
-21.1442228964705
-19.8185459585706
-18.4484216762647
-17.1734536575464
-16.1318105756782
-15.5652487873499
-15.6342957497405
-16.1450008961832
-16.606319615471
-16.6737192833139
-16.517313125316
-16.6749534631494
-17.5430689729761
-19.0903206550021
-21.082932053403
-23.4456767426359
-26.2107792593166
-29.0764124506105
-31.1830462950168
-31.5323594331699
-29.702397680652
-26.1129269622649
-21.5898114292332
-16.7694282043305
-11.9966069073902
-7.68339356157662
-4.49937123360365
-3.01550058685623
-3.18372830089257
-4.31208456274342
-5.6229212814425
-6.78476383305197
-7.86453690661034
-8.86775741247801
-9.49762076442894
-9.40941426019684
-8.56552202908885
-7.18925991178824
-5.38461376572256
-2.95748478660306
0.282953479707551
4.10390827567005
7.84840949510423
10.8772514580557
12.9417455941191
14.10787565472
14.4526106449441
14.018675354504
13.1046966540782
12.4454205832636
12.912381286328
14.9576128074639
18.3673764564372
22.5439948201399
26.9381035417501
31.1563401037841
34.7537345795824
37.1308489999166
37.775420332252
36.5926849968572
33.9247159921161
30.238624006099
25.8499476780533
20.9511707783571
15.806833292058
10.8115505466074
6.3614691878521
2.75946093865701
0.27712364437928
-0.792484308786999
-0.280314324137752
1.63098869064496
4.40279779478734
7.42526941741798
10.2841423084119
12.7240459065765
14.4458689016367
15.1265676357923
14.7438523030102
13.8015832000435
13.0653008639295
12.9882365050538
13.4267344125045
13.9370121045426
14.2625000706385
14.4266780588001
14.3961804892766
13.8581425067717
12.4962604643193
10.4509834433187
8.33964141598003
6.7313409881331
5.66549869815597
4.76315416263413
3.74343810288973
2.67750901326265
1.71082492276868
0.722030176887642
-0.531878375981304
-1.92960759692103
-2.83978014508059
-2.61767370816046
-1.21333490861414
0.828619109000201
2.95709166035309
5.04570473313642
7.16527727115943
9.09528920068104
10.3346211585354
10.6924334814197
10.7006681992171
11.2254714519093
12.6441677137928
14.5329553168471
16.2060456784251
17.41073290433
18.3398399975928
19.0505489116247
19.1633701883044
18.3283301256761
16.8914456588874
15.859715358187
16.1052000948656
17.6932505606644
20.0556990736261
22.6822041353535
25.4254482115335
28.1183763122965
30.146559951177
30.6560857044125
29.1943235420529
25.9836130842975
21.5092815196407
15.9951228109327
9.43875834165527
2.07957403146563
-5.41243830016209
-12.3122002479844
-18.2456470824127
-23.0517010230097
-26.3405236989084
-27.4991177742638
-26.312402328036
-23.4395122625991
-20.0381212501082
-16.9078603023971
-14.201551378195
-12.0247317887717
-10.9982376182387
-11.817201056917
-14.2137745520137
-16.7494936670564
-18.0210269281731
-18.047870868876
-18.168445222289
-19.477688093844
-21.680099551537
-23.8035241768366
-25.8689630828198
-29.2279860134378
-34.7471781259202
-40.7270129510534
-43.1063232616953
-38.1851765265965
-25.4222830037446
-7.85784439580115
9.79729799324651
23.3648140484226
30.1677320886454
29.049592191828
20.3349222497642
5.6338270114262
-13.2047507601378
-35.613757400253
-62.6438285321414
-95.1921173818265
-131.575705984219
-166.967485191349
-195.280851563266
-211.310940538708
-210.851405097789
-189.358388611308
-141.826548993249
-64.9224839764019
40.9410388005222
172.295975952155
325.044086604999
494.385769364578
670.334229717799
833.079733923648
955.091386383575
1011.40485477422
990.882901304972
899.045782088481
750.740769819079
560.749008885364
341.646649528781
109.28267159377
-112.999966682036
-299.331388602424
-433.111464261493
-514.973431511479
-559.144811970692
-581.464581003195
-589.788287391677
-584.039276932761
-563.209856004473
-530.805322997996
-493.647944052235
-456.646878196819
-419.679175311169
-379.454683905544
-333.864808464015
-284.573725525828
-236.208155137419
-193.725270438692
-160.281401545834
-136.581080901686
-121.392258702959
-112.585694865637
-108.08595219299
-106.133318195246
-104.739866569498
-101.220547324471
-93.0059195837999
-79.6491280093097
-64.1187979202957
-51.4521050297156
-45.2560980737699
-45.0086179515244
-46.7065689352816
-46.2471380239038
-42.3217176035388
-36.3609869135547
-30.2410626960826
-24.4822716209196
-18.5348513236539
-12.1526075438358
-5.91683985593906
-0.459899609115686
4.33226800074399
9.03997671032582
13.8425076372327
18.3217346803829
22.1936147101078
25.9085475053228
30.2239896472913
35.2460197258982
40.1796981561912
44.1380751858371
47.0188777191551
49.4102158372998
51.7519317159795
53.8823086132668
55.4992180780084
56.8120979046087
58.4228285196872
60.5334960273967
62.5112726255752
63.4176690362484
62.8960623937896
61.3842292867591
59.4973459460077
57.4396525557285
55.1582925484082
52.9070827297128
51.3474356535498
50.9645648067428
51.5227887338836
52.2706155821279
52.6688432301176
52.7867984548429
52.9821477014299
53.3890817399514
53.8976352754077
54.5623983577192
55.7704104664537
57.8395101370502
60.5295144475482
63.1254560724665
65.0467833241897
66.2750859462492
67.1383168763224
67.8077550299683
68.1823124970419
68.2586946992154
68.4008155976964
69.0418098891979
70.1194152425527
70.9501164002088
70.7514130393458
69.2503629873647
66.7384102907401
63.6204828004615
60.0774522393315
56.2255321184202
52.4685972292539
49.4926460609754
47.8273001168983
47.457991192177
47.9153218120499
48.7056447497058
49.5934120220508
50.4900292758995
51.1783944031602
51.2263073661425
50.1477045210494
47.5924596001569
43.3980976819524
37.5596084088823
30.2420674878768
21.8397685842683
12.9998383858202
4.58271357812846
-2.41570510933432
-7.01183779448698
-8.51496334792253
-6.85817596297581
-2.71876342111328
2.74410712241947
8.35199874431633
13.1780702922255
16.4814221562403
17.5983010443253
16.136897772735
12.3662047281547
7.29421148402804
2.17051482373018
-2.19116561411157
-5.60916866476109
-8.1093600927529
-9.4575214718086
-9.24889508086917
-7.42913681363035
-4.54547717834287
-1.34310128765192
1.84638289738973
5.18136667548424
8.74933338226905
12.0630737495971
14.2617138804831
14.8163658583927
13.9326724126439
12.2157348719319
10.0390524512953
7.35790062196772
4.09879908005486
0.539308203705641
-2.84450041950863
-5.86905741915759
-8.83972604799868
-12.1886039230905
-15.9635982321669
-19.7163462586228
-22.8270388627793
-24.8374063669479
-25.489768037241
-24.6267173043962
-22.2467383998952
-18.6927492129373
-14.6738874108693
-10.9938555576601
-8.23350598371757
-6.67858424488617
-6.43935714474076
-7.47497063073969
-9.45260078955776
-11.7240189433757
-13.6465973056146
-15.0227575328176
-16.1849273571099
-17.6027053643835
-19.440015348961
-21.5362241800126
-23.7437068318202
-26.1126315230321
-28.6495774616205
-30.9877758293434
-32.483483884448
-32.7352885625184
-31.9615619157982
-30.7975256368894
-29.7472808825632
-28.9054230790621
-28.1840637083657
-27.6489623970455
-27.4909153232035
-27.7015057386503
-27.946271645331
-27.8725524671421
-27.5017108542845
-27.2184901220833
-27.3650577440329
-27.9255523198237
-28.6361386293099
-29.2991338626354
-29.8601121594997
-30.1918653214984
-29.9705090435842
-28.9152709662744
-27.1458247821555
-25.1964965125437
-23.6226064676618
-22.6301600955225
-22.1077002751403
-21.9171022376689
-22.0049677126536
-22.2075735108324
-22.0977764530599
-21.2001249565462
-19.3977734705421
-17.0508464257717
-14.6677908101711
-12.5105407451211
-10.5650822193278
-8.8122679441542
-7.35861951909544
-6.2318646139737
-5.16490260651977
-3.75865923105272
-1.91152641201307
-0.000684690283890177
1.43605073861914
2.15569981619913
2.27808412454743
1.95224367729725
1.12172259585566
-0.276756865694139
-1.97362545580242
-3.41846549331461
-4.26098411008371
-4.70364338018291
-5.27360809630576
-6.2632561870271
-7.49117931143241
-8.61602488119342
-9.53767217476676
-10.3518447318213
-10.96478723492
-10.9652678243137
-10.0256386379587
-8.37752010638027
-6.74459316318969
-5.75754995735279
-5.50985596211574
-5.71977363599227
-6.19476745318933
-6.94775681265221
-7.83415716898481
-8.27006596436928
-7.53083221566219
-5.3760435318216
-2.27887043627133
1.02066385140171
4.11373579621679
6.99614988144297
9.624288644894
11.5981595175307
12.4077222738481
11.9220588313611
10.482601377206
8.47751732950399
5.94188320532237
2.6916208307284
-1.17573092068784
-5.02638676098851
-7.97538965934446
-9.36769146703162
-8.95878362996845
-6.75381323514517
-2.87969820409356
2.28137267717471
7.91508123994151
12.8902591832767
16.1535875998555
17.0699372289953
15.4908112607534
11.6724935328437
6.24088214223254
0.156109937520565
-5.50760497529839
-9.9288614843916
-12.7468728490526
-13.9263844527382
-13.5002783664193
-11.544614892065
-8.38231008245001
-4.63515475913235
-0.904505066166926
2.60621294668131
6.03961009010981
9.41222588993689
12.2984916743701
14.1096137721231
14.6722139230131
14.4080788205042
13.8992231774004
13.3998805756223
12.9121362621774
12.6731746717933
13.3094317239689
15.3127580448027
18.4106634514181
21.635349292234
24.0845952921856
25.5170702057817
26.1390181833451
25.9682639198122
24.6814351155752
22.171888007083
19.0421432103563
16.2581366628547
14.2502835795344
12.512038697645
10.2009684517963
7.04100227271841
3.47822109635747
-0.000314555356784041
-3.43288584612372
-7.08092694030298
-10.674360574642
-13.2464838305852
-13.8732610715757
-12.4842722041719
-9.80971936195099
-6.58720843716944
-3.01707331808722
0.94343958377176
4.95235253646563
8.2010786865543
9.98597992099363
10.1858277790241
9.06811208968795
6.75909286357055
3.12881009166706
-1.7597611185558
-7.26079024806473
-12.347500701353
-16.150240073054
-18.1830727672671
-18.1221763218652
-15.6580839741489
-10.8056992842251
-4.31232610507748
2.47597268350924
8.29540101032776
12.4848507714262
14.840378190516
15.178299457951
13.3403256966147
9.68967588225033
5.34263939904636
1.60860015949838
-0.853334209744964
-2.19580415976847
-2.70881042884294
-2.22228054102859
-0.387379221680738
2.55958657383223
5.64904254713992
7.9585851725106
9.35610162066485
10.2056618440973
10.3887556710415
8.97697856153775
5.12674133928789
-0.843979712632397
-7.57720244017357
-13.9012068947806
-19.6386389002841
-24.9967008658154
-29.4166311032633
-31.5477566673577
-30.5889434973892
-27.3757817281662
-23.7447742749204
-20.8002536035206
-18.1120870365308
-14.7404505129348
-10.7066955330746
-7.01416925288028
-4.24815908161214
-1.67021704598085
1.89206351880674
6.40379722193083
10.3096935347938
11.9885697950934
11.2083754895646
8.89121387003883
5.71982112371164
1.54137581879711
-3.70601010418678
-9.00315090936696
-12.7982175263774
-14.5540350512153
-15.2403558581944
-16.0046600639787
-16.7291655463076
-16.4486989944853
-15.0857700840436
-13.9334562298711
-13.727231396374
-12.503773007578
-6.38601896902376
6.70063525603031
24.0722315310286
39.4551703981957
47.3860792015625
46.6121840008148
39.6171065295467
29.6057813456532
18.3494103280585
6.27583592244991
-6.7397539119424
-21.4926614475864
-39.8077565380675
-63.5640501868854
-92.736967574595
-124.661596306272
-155.403430598508
-181.117562039221
-197.006691828617
-195.039494723253
-164.42195471548
-96.4007710943188
10.5347704013061
150.501164504176
315.094009387135
496.866307690207
686.153448247007
864.555849827887
1004.34377210814
1078.10051948124
1071.51936264996
987.646031398708
839.41666198369
639.942783871041
401.783791255887
144.630618613025
-100.959509687299
-303.250726889082
-446.44523851139
-538.661419435112
-601.535761667951
-650.460763740327
-683.918720463758
-690.689878817543
-665.551950946625
-616.895090731208
-560.044604114406
-505.366805325651
-453.836462842227
-402.559116743204
-351.828001075308
-305.620573369721
-266.695900575878
-233.607025482828
-203.339759405301
-175.667134144035
-153.436612469368
-138.544139846758
-128.764109675709
-119.275088676039
-106.880690708275
-92.0475593482159
-77.0605859212074
-63.2542387830971
-50.6232019123427
-39.3956483561887
-30.6527114467334
-24.8873036823183
-20.65397933782
-15.5785641041688
-8.83148197417767
-2.03866192636761
2.57783078377571
4.59553999971646
5.47005658405236
6.40470906753562
6.83465911173335
5.41036328394427
2.1082303163704
-1.27752158947283
-2.86326795773531
-2.43968710675135
-1.18678129419587
0.0643820393268757
1.70909204261449
4.40985001913367
7.79560052693999
10.665554984115
12.4440258776106
13.9439600817193
16.417432563772
20.1120732040484
24.1505641414154
27.7821870493145
31.2966459605314
35.4230697160549
40.0877885474671
44.2473634395429
47.0732148788942
48.9678857492493
51.0881264053582
53.9533618339489
56.8525827998875
58.7081697514221
59.2322577760656
58.9566487399969
58.2623132928269
56.8080049217738
54.1454770256819
50.6985663467957
47.799795553018
46.6921679745828
47.6794005795838
50.3229170007015
54.214886212593
59.2371108183187
65.0770979721758
70.857529633925
75.5661422434764
78.8284744369307
81.0402782354116
82.6924470090437
83.7687490231222
83.9571745039619
83.2859515035735
82.2161489022784
80.9922509223125
79.1348643361759
75.8656333948938
71.050411494167
65.5083168040104
60.2736987779112
55.7007812980034
51.4889030868213
47.5240919188286
44.3950706760756
42.8800495115996
43.0437621621153
44.1022019744299
45.2472038412989
46.4183616549396
48.0945936366745
50.4155336360997
52.7485226653813
54.2061775673429
54.4266755625463
53.6727895735421
52.2395585140998
50.0225396048077
46.80170017235
42.8031634325986
38.7405717950868
35.2429181944285
32.3733971952731
29.793493374479
27.2786253660065
24.89342430281
22.6774736574728
20.3921914309214
17.7749620541621
14.9978008657945
12.6777998443716
11.3357563317154
10.924502620361
10.9750511707594
11.123023314719
11.3179698484171
11.4897841037874
11.2123603751969
9.93113110529609
7.55691624171051
4.68403553338316
2.10587224833136
0.16107539240042
-1.35701685413637
-2.70994662146556
-3.82808916645136
-4.51135498145902
-4.88414543011129
-5.42558933088819
-6.46526206602964
-7.76147624403448
-8.70726956549096
-8.93231273933773
-8.59303327890066
-8.06585490169483
-7.50683551445614
-6.84633605600135
-6.15155754699634
-5.78315774015733
-6.06447375793692
-6.866686466705
-7.66696085078436
-8.04840580195344
-8.05332615914119
-8.00159793297456
-8.07020548465925
-8.19783665656598
-8.39540722872175
-8.97058962145559
-10.2814308930739
-12.2795847186631
-14.4275270505872
-16.1363618122323
-17.2304734693759
-17.9253958733062
-18.4203412573523
-18.6573248567661
-18.5220651352585
-18.1513625040704
-17.8771617024039
-17.8394179856624
-17.7599289387631
-17.1806936397778
-15.8894021764985
-14.0417924511655
-11.9026679049163
-9.60003400777975
-7.20454666920418
-4.9549590646949
-3.23599266816134
-2.26939728289403
-1.90972283008497
-1.84064466488323
-1.95413705593943
-2.44685759158293
-3.52838817256211
-5.1371788047858
-7.03758055882918
-9.14981863894239
-11.6367317374229
-14.5846150027134
-17.671776737787
-20.2827489603443
-21.99091727626
-22.8703708363058
-23.2982348358166
-23.518130018363
-23.4868853857129
-23.1244773792266
-22.5700034279843
-22.0747633932832
-21.6724798587451
-21.0771826186262
-19.9739900735317
-18.3721130062649
-16.6233470062649
-15.1335085475046
-14.1399220054942
-13.7663507567009
-14.1586799882453
-15.4185908238082
-17.3895828946987
-19.6217184244114
-21.649916707021
-23.3086807720294
-24.7343208730204
-26.0887580055207
-27.376586565385
-28.5680235775836
-29.79568344278
-31.2680682691317
-32.9279719750251
-34.2806025566414
-34.6782423160184
-33.8124151352517
-31.8997838095073
-29.4004865409636
-26.6452786924304
-23.8035266938911
-21.14436739553
-19.1516781172258
-18.2493963411661
-18.4190455201764
-19.170198130179
-19.9276329826612
-20.4232439416254
-20.7069978084531
-20.8589150903427
-20.7997367876478
-20.4011178409381
-19.6860408331855
-18.818798038153
-17.8911623895054
-16.7854868626058
-15.2875665741799
-13.3042516710443
-10.936952385133
-8.37666416016187
-5.7999686175936
-3.38071993462913
-1.32237998204419
0.21358270378715
1.21668405608666
1.79519169136642
1.99015436094287
1.65651998587759
0.587997875488437
-1.24173632743259
-3.61619495844402
-6.26656543167496
-9.04890350554883
-11.8407085545341
-14.2691594923969
-15.6638330506911
-15.4112090789161
-13.4013698640789
-10.0999344318753
-6.17342545173099
-2.08346886365099
1.94327576317181
5.64888896763182
8.61947147645989
10.5306448011483
11.4868445389417
12.0133257055355
12.6433766985977
13.5068386095011
14.3163623214981
14.6988826729509
14.479417098145
13.6654934159931
12.2748191017273
10.2994393179035
7.86426213760242
5.35664102259044
3.32839258921406
2.23783528099254
2.26152117082331
3.29558916493554
5.06674393271135
7.22683877819158
9.40798162817513
11.280003563841
12.6033953189575
13.2279266509569
13.0477794626674
11.9975538374029
10.1226600325747
7.63153877725483
4.82762385515133
1.97493661521733
-0.73187565219331
-3.03780817115912
-4.51545330421563
-4.68297698546009
-3.30733124760361
-0.595616136215702
2.93480072303074
6.76515749450773
10.532626374143
13.9236125904598
16.5432212787247
18.0312635239804
18.3516711003209
17.9049928484332
17.2769606284343
16.8553068572433
16.6987077695222
16.7317381773257
16.95903310423
17.418590273288
17.9778612204911
18.3049209976973
18.1159202394486
17.4135526895929
16.4076686312872
15.1981758989464
13.606604689013
11.3646331591107
8.42503082362456
5.01738484843147
1.40848860448076
-2.29354475285464
-6.02338038146316
-9.49118875039586
-12.1518091977168
-13.5219218483272
-13.5216101828296
-12.4717502469291
-10.7768153356806
-8.6628896827209
-6.21498901556196
-3.55942700893726
-0.885816254897131
1.73175498047714
4.45160608760998
7.52161648820035
11.0156084959999
14.7444945117194
18.414416796138
21.8071457939357
24.7763108475761
27.1392876709766
28.6934416250054
29.3908992366389
29.4409372031975
29.1525919069962
28.6481904418038
27.7588505069477
26.2105529522763
23.8750286961041
20.8138671825302
17.1295359572524
12.8725438986187
8.1426272446575
3.23178495085485
-1.41861507551152
-5.44245442669922
-8.72562318151357
-11.3739094103325
-13.5591917900594
-15.4242486938696
-17.0745290351383
-18.5436944737677
-19.7030058394503
-20.2518298644524
-19.8919446792197
-18.5570123272314
-16.4616233817694
-13.9372448313985
-11.2868461333691
-8.8446146282855
-7.10570030737896
-6.63239374260998
-7.70755164997351
-10.0796296759082
-13.114045917979
-16.2165150441332
-19.0790239398585
-21.5366484306372
-23.3205268493739
-24.0982222211883
-23.7623519170105
-22.5458088738315
-20.753805255796
-18.4520794088997
-15.5724913177022
-12.3550386421942
-9.52606668048806
-7.8680752165048
-7.63104395363476
-8.53543901026026
-10.4112476365443
-13.598238125239
-18.3253352295212
-23.4882254484266
-26.2337303990705
-23.2729515092906
-13.2088045410267
1.9706357011939
17.5293165379521
28.3413007379843
31.2925045066356
26.2058735171279
14.9614525254157
-0.347921905411712
-18.9216313134349
-41.4337886960751
-68.8131061027676
-100.600627250034
-134.298507420287
-166.27510229046
-193.155214430382
-211.898601953116
-218.153405681219
-204.830315827681
-163.388050066547
-87.7904051548446
22.1167253178935
161.04579305914
321.797800541473
497.383637045032
678.460088648921
848.527943941935
983.348701916635
1058.03059981798
1057.47502895934
981.635837828225
841.593365662702
651.480058877667
424.984451736847
179.078516175351
-61.7088153250742
-268.998818240055
-422.353137240862
-519.392025141754
-574.297212704734
-605.213111846439
-621.539705446908
-621.733227740243
-601.567545649341
-563.077133294209
-515.260582026868
-467.163291579245
-421.556372702478
-375.597959580543
-326.741750258683
-277.023499708415
-231.633365490787
-194.306520826238
-164.984479063767
-141.864395154686
-124.814854493035
-115.924136993914
-116.446787950921
-123.408906707591
-129.525310482576
-126.951177333387
-112.079221637674
-87.8996565012526
-62.3729281556246
-43.940577634322
-36.958064241127
-39.7553688553117
-46.3700093580261
-50.6303693990767
-49.7033911689321
-44.7547729700365
-38.7512235603689
-33.6666641888637
-29.4358468556155
-24.9998738426002
-19.8374494543204
-14.3705609297362
-9.23123281441928
-4.58269442127975
-0.26534069984034
3.68842620840529
7.01708292193924
9.71083844844144
12.2623128275844
15.2464176336918
18.7312069350619
22.2919288243089
25.6227830111306
28.9545817281359
32.7415549498024
37.0400624746838
41.3979688313539
45.3880083230364
49.0617988964063
52.7053576465937
56.2071587451483
58.8856236701421
60.0578751456731
59.690677699099
58.3652925161698
56.6394597706598
54.6058173657833
52.1341883045842
49.3865631361031
46.8741502183744
44.9630361048653
43.4701213778931
41.8792273173625
39.9266668916169
37.8738691394784
36.2175066856465
35.2737639397467
35.13151785779
35.8972360310908
37.7652074794395
40.7442177759305
44.4030220713774
48.0136834009004
50.9584303181784
52.9367231318733
53.8113122067425
53.4324620528267
51.7735148346527
